1.738623046875
1.84013671875
1.75634765625
1.722509765625
1.7370117187499998
1.735400390625
1.714453125
1.6959228515625
1.706396484375
1.7080078125
1.732177734375
1.7289550781249998
1.7370117187499998
1.73056640625
1.7337890624999999
1.7466796875
1.740234375
1.751513671875
1.7466796875
1.7499023437499999
1.735400390625
1.740234375
1.635498046875
1.7265380859375
1.7619873046874999
1.74345703125
1.7458740234374999
1.7635986328125
1.812744140625
1.8014648437499998
1.7410400390624998
1.7442626953125
1.738623046875
1.7450683593749998
1.7329833984374998
1.7418457031249999
1.7410400390624998
1.7297607421874999
1.732177734375
1.7337890624999999
1.7345947265625
1.7394287109375
1.7345947265625
1.7684326171875
1.8111328125
1.7096191406249999
1.735400390625
1.7345947265625
1.7128417968749998
1.690283203125
1.7120361328125
1.7055908203124999
1.7345947265625
1.738623046875
1.7458740234374999
1.7329833984374998
1.7442626953125
1.7418457031249999
1.7418457031249999
1.7442626953125
1.74345703125
1.738623046875
1.7394287109375
1.7410400390624998
1.7055908203124999
1.7128417968749998
1.7668212890625
1.7490966796874998
1.7418457031249999
1.7571533203124998
1.770849609375
1.8062988281249999
1.7337890624999999
1.7418457031249999
1.74345703125
1.74345703125
1.735400390625
1.7450683593749998
1.738623046875
1.7378173828124999
1.7313720703125
1.7337890624999999
1.738623046875
1.7313720703125
1.735400390625
1.7362060546875
1.8183837890624999
1.722509765625
1.7297607421874999
1.7378173828124999
1.7233154296875
1.7249267578124998
1.7039794921875
1.703173828125
1.72734375
1.7410400390624998
1.7450683593749998
1.7378173828124999
1.73056640625
1.74345703125
1.7313720703125
1.7418457031249999
1.7474853515625
1.740234375
1.7410400390624998
1.740234375
1.72734375
1.651611328125
1.7660156249999999
1.7394287109375
1.735400390625
1.7474853515625
1.7619873046874999
1.82080078125
1.7813232421874998
1.7450683593749998
1.7313720703125
1.7362060546875
1.7345947265625
1.74345703125
1.735400390625
1.7394287109375
1.735400390625
1.73056640625
1.7345947265625
1.738623046875
1.738623046875
1.7370117187499998
1.8361083984375
1.722509765625
1.72412109375
1.740234375
1.735400390625
1.7217041015624999
1.6886718749999998
1.7096191406249999
1.7208984374999998
1.7345947265625
1.732177734375
1.7378173828124999
1.735400390625
1.751513671875
1.7378173828124999
1.7466796875
1.7442626953125
1.74345703125
1.7450683593749998
1.748291015625
1.7458740234374999
1.6395263671875
1.7531249999999998
1.751513671875
1.7313720703125
1.7442626953125
1.7635986328125
1.8006591796875
1.7982421874999999
1.738623046875
1.7265380859375
1.732177734375
1.7289550781249998
1.7345947265625
1.735400390625
1.7410400390624998
1.7337890624999999
1.735400390625
1.738623046875
1.7313720703125
1.7370117187499998
1.7370117187499998
1.828857421875
1.7748779296875
1.735400390625
1.7450683593749998
1.732177734375
1.706396484375
1.7023681640625
1.7120361328125
1.7055908203124999
1.7249267578124998
1.735400390625
1.7410400390624998
1.7410400390624998
1.7370117187499998
1.735400390625
1.7410400390624998
1.7458740234374999
1.7450683593749998
1.7442626953125
1.74345703125
1.7378173828124999
1.6451660156249999
1.7168701171874998
1.75634765625
1.738623046875
1.748291015625
1.7700439453124999
1.78857421875
1.8151611328125
1.7499023437499999
1.74345703125
1.735400390625
1.735400390625
1.7289550781249998
1.7257324218749999
1.7265380859375
1.72734375
1.7257324218749999
1.7450683593749998
1.7499023437499999
1.7450683593749998
1.73056640625
1.7531249999999998
1.7974365234374998
1.719287109375
1.740234375
1.7450683593749998
1.7249267578124998
1.7152587890625
1.7136474609374999
1.7080078125
1.7289550781249998
1.7362060546875
1.74345703125
1.7418457031249999
1.7345947265625
1.748291015625
1.7370117187499998
1.7410400390624998
1.74345703125
1.7394287109375
1.7442626953125
1.7378173828124999
1.7176757812499999
1.7039794921875
1.764404296875
1.7426513671875
1.7418457031249999
1.7595703125
1.7635986328125
1.8240234375
1.7660156249999999
1.7337890624999999
1.7313720703125
1.740234375
1.738623046875
1.7362060546875
1.7378173828124999
1.7337890624999999
1.7345947265625
1.732177734375
1.732177734375
1.7337890624999999
1.738623046875
1.7370117187499998
1.8224121093749999
1.7265380859375
1.7337890624999999
1.7410400390624998
1.7265380859375
1.7184814453125
1.6991455078125
1.7015624999999999
1.7208984374999998
1.738623046875
1.7458740234374999
1.7362060546875
1.7370117187499998
1.74345703125
1.7289550781249998
1.7362060546875
1.7507080078125
1.751513671875
1.7370117187499998
1.7362060546875
1.72412109375
1.6443603515624998
1.7579589843749999
1.754736328125
1.7394287109375
1.76279296875
1.7716552734375
1.8417480468749998
1.764404296875
1.7313720703125
1.7265380859375
1.7362060546875
1.735400390625
1.740234375
1.7370117187499998
1.74345703125
1.7370117187499998
1.7450683593749998
1.7337890624999999
1.7345947265625
1.7345947265625
1.738623046875
1.8312744140625
1.751513671875
1.7249267578124998
1.7370117187499998
1.7297607421874999
1.7200927734375
1.6935058593749999
1.706396484375
1.7176757812499999
1.7337890624999999
1.7370117187499998
1.7418457031249999
1.7442626953125
1.740234375
1.740234375
1.7418457031249999
1.7370117187499998
1.7426513671875
1.735400390625
1.7394287109375
1.74345703125
1.6371093749999999
1.7595703125
1.754736328125
1.7426513671875
1.7571533203124998
1.770849609375
1.7853515624999998
1.815966796875
1.7281494140625
1.732177734375
1.7370117187499998
1.7378173828124999
1.7345947265625
1.7418457031249999
1.74345703125
1.7362060546875
1.7345947265625
1.7345947265625
1.7362060546875
1.735400390625
1.738623046875
1.8248291015625
1.7684326171875
1.7176757812499999
1.7418457031249999
1.7362060546875
1.706396484375
1.6951171875
1.7023681640625
1.7096191406249999
1.7394287109375
1.7345947265625
1.7539306640624999
1.7345947265625
1.740234375
1.740234375
1.7410400390624998
1.7442626953125
1.7426513671875
1.7410400390624998
1.7289550781249998
1.735400390625
1.651611328125
1.7088134765624998
1.76279296875
1.740234375
1.7450683593749998
1.7635986328125
1.7684326171875
1.828857421875
1.7611816406249998
1.7474853515625
1.7458740234374999
1.7426513671875
1.748291015625
1.7257324218749999
1.7394287109375
1.7394287109375
1.732177734375
1.7362060546875
1.7345947265625
1.7337890624999999
1.740234375
1.748291015625
1.8175781249999998
1.7152587890625
1.7313720703125
1.740234375
1.7281494140625
1.7096191406249999
1.6951171875
1.706396484375
1.7281494140625
1.7370117187499998
1.7410400390624998
1.7410400390624998
1.738623046875
1.7418457031249999
1.7337890624999999
1.732177734375
1.740234375
1.7458740234374999
1.748291015625
1.738623046875
1.7313720703125
1.6927001953124998
1.7635986328125
1.7474853515625
1.7490966796874998
1.7555419921875
1.764404296875
1.8377197265624998
1.751513671875
1.7370117187499998
1.735400390625
1.7370117187499998
1.7450683593749998
1.738623046875
1.735400390625
1.7249267578124998
1.7249267578124998
1.7345947265625
1.7458740234374999
1.74345703125
1.74345703125
1.7466796875
1.8336914062499998
1.7249267578124998
1.7217041015624999
1.7378173828124999
1.7265380859375
1.7128417968749998
1.6959228515625
1.7088134765624998
1.7168701171874998
1.740234375
1.7362060546875
1.7378173828124999
1.740234375
1.7450683593749998
1.7410400390624998
1.7378173828124999
1.7499023437499999
1.7410400390624998
1.7466796875
1.7410400390624998
1.7450683593749998
1.6371093749999999
1.7595703125
1.748291015625
1.7466796875
1.7531249999999998
1.7595703125
1.8014648437499998
1.7877685546875
1.738623046875
1.7281494140625
1.7370117187499998
1.7265380859375
1.7370117187499998
1.732177734375
1.7337890624999999
1.732177734375
1.7345947265625
1.735400390625
1.735400390625
1.74345703125
1.7410400390624998
1.8256347656249998
1.73056640625
1.7249267578124998
1.738623046875
1.7337890624999999
1.7249267578124998
1.6854492187499999
1.703173828125
1.7136474609374999
1.7345947265625
1.735400390625
1.740234375
1.7362060546875
1.7507080078125
1.7418457031249999
1.7378173828124999
1.7442626953125
1.738623046875
1.7418457031249999
1.738623046875
1.7418457031249999
1.6363037109374998
1.754736328125
1.7571533203124998
1.7362060546875
1.7442626953125
1.7474853515625
1.7539306640624999
1.7958251953125
1.7458740234374999
1.735400390625
1.738623046875
1.7418457031249999
1.7394287109375
1.7362060546875
1.7337890624999999
1.7378173828124999
1.7297607421874999
1.7362060546875
1.7378173828124999
1.7370117187499998
1.7313720703125
1.8087158203125
1.7797119140625
1.716064453125
1.7410400390624998
1.735400390625
1.719287109375
1.703173828125
1.7047851562499998
1.7096191406249999
1.7184814453125
1.7329833984374998
1.7458740234374999
1.738623046875
1.7418457031249999
1.7337890624999999
1.7345947265625
1.7450683593749998
1.7474853515625
1.7426513671875
1.7410400390624998
1.7313720703125
1.65966796875
1.69833984375
1.7579589843749999
1.751513671875
1.7418457031249999
1.7587646484375
1.7692382812499998
1.8175781249999998
1.7507080078125
1.73056640625
1.7362060546875
1.738623046875
1.7345947265625
1.7507080078125
1.7490966796874998
1.7410400390624998
1.7297607421874999
1.7313720703125
1.7313720703125
1.7329833984374998
1.735400390625
1.738623046875
1.7821289062499999
1.7217041015624999
1.7265380859375
1.7378173828124999
1.7184814453125
1.71123046875
1.7023681640625
1.699951171875
1.7289550781249998
1.7337890624999999
1.738623046875
1.738623046875
1.735400390625
1.7499023437499999
1.7370117187499998
1.7442626953125
1.7499023437499999
1.7410400390624998
1.7378173828124999
1.7410400390624998
1.7289550781249998
1.6943115234375
1.7668212890625
1.7523193359375
1.7418457031249999
1.7635986328125
1.7595703125
1.8183837890624999
1.7595703125
1.7345947265625
1.7345947265625
1.735400390625
1.7378173828124999
1.7362060546875
1.7329833984374998
1.7329833984374998
1.7265380859375
1.7249267578124998
1.72412109375
1.7370117187499998
1.7289550781249998
1.7410400390624998
1.8393310546875
1.7249267578124998
1.732177734375
1.7394287109375
1.72734375
1.722509765625
1.7096191406249999
1.716064453125
1.719287109375
1.72734375
1.7410400390624998
1.7394287109375
1.732177734375
1.732177734375
1.732177734375
1.7313720703125
1.7426513671875
1.7410400390624998
1.7450683593749998
1.7442626953125
1.7394287109375
1.635498046875
1.7571533203124998
1.7539306640624999
1.7458740234374999
1.7539306640624999
1.7587646484375
1.8240234375
1.77568359375
1.7418457031249999
1.7337890624999999
1.7313720703125
1.722509765625
1.716064453125
1.73056640625
1.74345703125
1.7474853515625
1.7490966796874998
1.74345703125
1.7329833984374998
1.7265380859375
1.72734375
1.8111328125
1.7378173828124999
1.7289550781249998
1.74345703125
1.7337890624999999
1.7128417968749998
1.683837890625
1.6886718749999998
1.7047851562499998
1.7426513671875
1.7426513671875
1.74345703125
1.740234375
1.740234375
1.740234375
1.74345703125
1.7539306640624999
1.7450683593749998
1.7458740234374999
1.7394287109375
1.7345947265625
1.63388671875
1.7426513671875
1.7652099609374998
1.738623046875
1.7458740234374999
1.7579589843749999
1.7772949218749998
1.7861572265624999
1.738623046875
1.732177734375
1.73056640625
1.7281494140625
1.7337890624999999
1.7313720703125
1.740234375
1.7313720703125
1.7249267578124998
1.732177734375
1.732177734375
1.7281494140625
1.7329833984374998
1.8103271484374999
1.7716552734375
1.7088134765624998
1.7418457031249999
1.735400390625
1.716064453125
1.69189453125
1.7072021484375
1.7128417968749998
1.7249267578124998
1.735400390625
1.7426513671875
1.7313720703125
1.7345947265625
1.7337890624999999
1.7378173828124999
1.7345947265625
1.7378173828124999
1.74345703125
1.7410400390624998
1.7442626953125
1.6669189453125
1.6935058593749999
1.7555419921875
1.7466796875
1.7410400390624998
1.7684326171875
1.7732666015624998
1.8240234375
1.7652099609374998
1.7249267578124998
1.7233154296875
1.71123046875
1.719287109375
1.7297607421874999
1.7394287109375
1.7410400390624998
1.7426513671875
1.7442626953125
1.7595703125
1.7458740234374999
1.7313720703125
1.7297607421874999
1.7893798828124998
1.7257324218749999
1.7378173828124999
1.7329833984374998
1.7104248046875
1.7096191406249999
1.6910888671875
1.7039794921875
1.7233154296875
1.7329833984374998
1.7394287109375
1.738623046875
1.738623046875
1.7410400390624998
1.740234375
1.7410400390624998
1.7426513671875
1.7370117187499998
1.7426513671875
1.7466796875
1.6773925781249999
1.6822265625
1.767626953125
1.7531249999999998
1.7418457031249999
1.7611816406249998
1.7603759765625
1.8336914062499998
1.770849609375
1.7635986328125
1.7370117187499998
1.7152587890625
1.732177734375
1.7297607421874999
1.735400390625
1.7362060546875
1.7329833984374998
1.7362060546875
1.74345703125
1.7490966796874998
1.7426513671875
1.75634765625
1.8489990234375
1.7281494140625
1.7313720703125
1.7442626953125
1.7289550781249998
1.72412109375
1.6854492187499999
1.7233154296875
1.7281494140625
1.7345947265625
1.735400390625
1.740234375
1.740234375
1.7490966796874998
1.751513671875
1.7426513671875
1.754736328125
1.7450683593749998
1.7394287109375
1.7345947265625
1.74345703125
1.6306640625
1.7619873046874999
1.7531249999999998
1.7426513671875
1.751513671875
1.7668212890625
1.8143554687499999
1.7982421874999999
1.7426513671875
1.7418457031249999
1.7337890624999999
1.73056640625
1.738623046875
1.7329833984374998
1.735400390625
1.7394287109375
1.735400390625
1.7410400390624998
1.7410400390624998
1.7474853515625
1.7458740234374999
1.8441650390625
1.7450683593749998
1.7176757812499999
1.738623046875
1.7313720703125
1.7128417968749998
1.699951171875
1.7088134765624998
1.7257324218749999
1.735400390625
1.7297607421874999
1.7362060546875
1.73056640625
1.7490966796874998
1.740234375
1.748291015625
1.7442626953125
1.748291015625
1.7531249999999998
1.7450683593749998
1.7410400390624998
1.6427490234375
1.7450683593749998
1.7716552734375
1.7410400390624998
1.7426513671875
1.7579589843749999
1.770849609375
1.8054931640624998
1.7523193359375
1.7410400390624998
1.7265380859375
1.7313720703125
1.7329833984374998
1.735400390625
1.7394287109375
1.7507080078125
1.7474853515625
1.740234375
1.7442626953125
1.735400390625
1.748291015625
1.7942138671874999
1.77890625
1.740234375
1.7724609375
1.7579589843749999
1.719287109375
1.6967285156249998
1.6951171875
1.7096191406249999
1.73056640625
1.7450683593749998
1.7313720703125
1.7249267578124998
1.748291015625
1.7539306640624999
1.7378173828124999
1.7410400390624998
1.7345947265625
1.7313720703125
1.7370117187499998
1.7450683593749998
1.67578125
1.7015624999999999
1.7772949218749998
1.7531249999999998
1.7523193359375
1.7635986328125
1.7853515624999998
1.82724609375
1.7611816406249998
1.7418457031249999
1.7345947265625
1.738623046875
1.738623046875
1.7265380859375
1.7345947265625
1.7378173828124999
1.722509765625
1.7362060546875
1.7458740234374999
1.7490966796874998
1.7474853515625
1.7426513671875
1.803076171875
1.7208984374999998
1.7345947265625
1.7394287109375
1.7200927734375
1.72412109375
1.6886718749999998
1.7200927734375
1.740234375
1.7450683593749998
1.740234375
1.7370117187499998
1.738623046875
1.7378173828124999
1.7345947265625
1.7370117187499998
1.7426513671875
1.7458740234374999
1.75634765625
1.7378173828124999
1.719287109375
1.6765869140624998
1.7716552734375
1.767626953125
1.7490966796874998
1.7700439453124999
1.7732666015624998
1.79501953125
1.7571533203124998
1.7378173828124999
1.7370117187499998
1.738623046875
1.7418457031249999
1.7531249999999998
1.7571533203124998
1.7531249999999998
1.751513671875
1.764404296875
1.770849609375
1.7595703125
1.7362060546875
1.73056640625
1.8248291015625
1.7208984374999998
1.735400390625
1.7474853515625
1.7362060546875
1.7281494140625
1.7072021484375
1.7088134765624998
1.7297607421874999
1.735400390625
1.7378173828124999
1.735400390625
1.735400390625
1.7450683593749998
1.7450683593749998
1.7337890624999999
1.73056640625
1.73056640625
1.7394287109375
1.754736328125
1.751513671875
1.6435546875
1.7410400390624998
1.7603759765625
1.7466796875
1.7619873046874999
1.770849609375
1.7732666015624998
1.799853515625
1.735400390625
1.7418457031249999
1.7345947265625
1.738623046875
1.7410400390624998
1.706396484375
1.7217041015624999
1.7345947265625
1.7297607421874999
1.7394287109375
1.751513671875
1.751513671875
1.7555419921875
1.8361083984375
1.812744140625
1.7555419921875
1.7740722656249999
1.7426513671875
1.7249267578124998
1.7176757812499999
1.7015624999999999
1.6975341796874999
1.722509765625
1.732177734375
1.7313720703125
1.7410400390624998
1.7466796875
1.7217041015624999
1.7249267578124998
1.7329833984374998
1.735400390625
1.73056640625
1.7442626953125
1.7426513671875
1.6749755859375
1.699951171875
1.7797119140625
1.7587646484375
1.770849609375
1.76279296875
1.780517578125
1.8103271484374999
1.7531249999999998
1.7329833984374998
1.738623046875
1.7362060546875
1.7418457031249999
1.7450683593749998
1.74345703125
1.7426513671875
1.740234375
1.7426513671875
1.7458740234374999
1.738623046875
1.7370117187499998
1.74345703125
1.8361083984375
1.7168701171874998
1.74345703125
1.7490966796874998
1.7120361328125
1.7047851562499998
1.690283203125
1.7047851562499998
1.72412109375
1.735400390625
1.74345703125
1.7458740234374999
1.738623046875
1.7257324218749999
1.7313720703125
1.740234375
1.7555419921875
1.767626953125
1.764404296875
1.7499023437499999
1.7337890624999999
1.6854492187499999
1.7732666015624998
1.7579589843749999
1.7652099609374998
1.7934082031249998
1.7781005859374999
1.8071044921875
1.75634765625
1.7281494140625
1.7313720703125
1.7297607421874999
1.735400390625
1.74345703125
1.74345703125
1.7418457031249999
1.7394287109375
1.7297607421874999
1.7362060546875
1.722509765625
1.6975341796874999
1.6967285156249998
1.812744140625
1.7249267578124998
1.73056640625
1.7579589843749999
1.7507080078125
1.7362060546875
1.7055908203124999
1.7313720703125
1.7660156249999999
1.780517578125
1.7490966796874998
1.754736328125
1.740234375
1.7490966796874998
1.7329833984374998
1.7233154296875
1.735400390625
1.7329833984374998
1.7418457031249999
1.7442626953125
1.7507080078125
1.63388671875
1.7297607421874999
1.7450683593749998
1.7337890624999999
1.754736328125
1.754736328125
1.7772949218749998
1.7934082031249998
1.7249267578124998
1.7297607421874999
1.7297607421874999
1.714453125
1.7168701171874998
1.7249267578124998
1.740234375
1.738623046875
1.7208984374999998
1.7176757812499999
1.7394287109375
1.7297607421874999
1.7329833984374998
1.8328857421875
1.8038818359375
1.7474853515625
1.7668212890625
1.770849609375
1.7265380859375
1.6749755859375
1.6814208984374999
1.703173828125
1.7217041015624999
1.7217041015624999
1.719287109375
1.7217041015624999
1.7176757812499999
1.73056640625
1.7370117187499998
1.7362060546875
1.7128417968749998
1.6935058593749999
1.6765869140624998
1.7080078125
1.6508056640625
1.7015624999999999
1.7813232421874998
1.7499023437499999
1.7378173828124999
1.7772949218749998
1.828857421875
1.8763916015625
1.7893798828124998
1.740234375
1.72734375
1.7217041015624999
1.7249267578124998
1.7257324218749999
1.7096191406249999
1.7015624999999999
1.7007568359374998
1.703173828125
1.714453125
1.716064453125
1.7337890624999999
1.7370117187499998
1.8143554687499999
1.7152587890625
1.7370117187499998
1.751513671875
1.7313720703125
1.71123046875
1.699951171875
1.7047851562499998
1.732177734375
1.7249267578124998
1.7088134765624998
1.7176757812499999
1.722509765625
1.7168701171874998
1.719287109375
1.7265380859375
1.735400390625
1.7378173828124999
1.7329833984374998
1.7289550781249998
1.7128417968749998
1.6371093749999999
1.754736328125
1.7217041015624999
1.719287109375
1.7539306640624999
1.754736328125
1.803076171875
1.786962890625
1.7257324218749999
1.7208984374999998
1.7249267578124998
1.7281494140625
1.7345947265625
1.73056640625
1.7337890624999999
1.732177734375
1.7217041015624999
1.7257324218749999
1.7281494140625
1.7176757812499999
1.719287109375
1.82724609375
1.7249267578124998
1.7208984374999998
1.7329833984374998
1.7184814453125
1.706396484375
1.67900390625
1.6943115234375
1.7047851562499998
1.7249267578124998
1.73056640625
1.7313720703125
1.7289550781249998
1.7281494140625
1.7265380859375
1.7120361328125
1.7281494140625
1.719287109375
1.72734375
1.73056640625
1.7370117187499998
1.6346923828125
1.754736328125
1.76279296875
1.7466796875
1.7764892578125
1.791796875
1.812744140625
1.7893798828124998
1.7329833984374998
1.7176757812499999
1.7104248046875
1.72412109375
1.740234375
1.7289550781249998
1.73056640625
1.7281494140625
1.722509765625
1.73056640625
1.72734375
1.7072021484375
1.6975341796874999
1.8054931640624998
1.7579589843749999
1.7007568359374998
1.7345947265625
1.7410400390624998
1.7249267578124998
1.716064453125
1.7345947265625
1.7426513671875
1.7362060546875
1.738623046875
1.7370117187499998
1.7337890624999999
1.73056640625
1.7313720703125
1.7233154296875
1.7233154296875
1.7281494140625
1.7378173828124999
1.719287109375
1.7257324218749999
1.6403320312499998
1.7088134765624998
1.7821289062499999
1.7378173828124999
1.7410400390624998
1.7571533203124998
1.783740234375
1.8256347656249998
1.7466796875
1.74345703125
1.73056640625
1.7257324218749999
1.735400390625
1.7337890624999999
1.74345703125
1.7265380859375
1.7289550781249998
1.732177734375
1.7233154296875
1.714453125
1.7442626953125
1.7571533203124998
1.8344970703124999
1.7072021484375
1.7217041015624999
1.7362060546875
1.706396484375
1.6959228515625
1.6951171875
1.7007568359374998
1.7378173828124999
1.7337890624999999
1.7257324218749999
1.7337890624999999
1.73056640625
1.7507080078125
1.7418457031249999
1.7499023437499999
1.7418457031249999
1.7345947265625
1.740234375
1.7362060546875
1.7257324218749999
1.6371093749999999
1.7595703125
1.738623046875
1.7265380859375
1.7426513671875
1.7370117187499998
1.8014648437499998
1.7748779296875
1.72412109375
1.722509765625
1.7249267578124998
1.73056640625
1.7523193359375
1.7764892578125
1.770849609375
1.751513671875
1.72734375
1.7555419921875
1.7571533203124998
1.7603759765625
1.7555419921875
1.851416015625
1.7200927734375
1.7152587890625
1.7128417968749998
1.69833984375
1.6927001953124998
1.6685302734374998
1.6830322265625
1.73056640625
1.7297607421874999
1.7378173828124999
1.7394287109375
1.7410400390624998
1.7450683593749998
1.7289550781249998
1.722509765625
1.7523193359375
1.748291015625
1.7418457031249999
1.7345947265625
1.7362060546875
1.6435546875
1.7668212890625
1.751513671875
1.735400390625
1.7474853515625
1.748291015625
1.7845458984375
1.7474853515625
1.71123046875
1.7120361328125
1.7080078125
1.7249267578124998
1.751513671875
1.75634765625
1.738623046875
1.738623046875
1.7289550781249998
1.7619873046874999
1.7635986328125
1.7700439453124999
1.7531249999999998
1.8473876953125
1.767626953125
1.7096191406249999
1.7168701171874998
1.716064453125
1.7039794921875
1.6910888671875
1.6991455078125
1.7015624999999999
1.72734375
1.738623046875
1.7418457031249999
1.7329833984374998
1.7362060546875
1.716064453125
1.72412109375
1.7490966796874998
1.7466796875
1.7337890624999999
1.7394287109375
1.7418457031249999
1.651611328125
1.722509765625
1.7748779296875
1.7345947265625
1.735400390625
1.7490966796874998
1.7660156249999999
1.8232177734375
1.7378173828124999
1.7297607421874999
1.732177734375
1.7378173828124999
1.7378173828124999
1.7313720703125
1.7313720703125
1.7571533203124998
1.7595703125
1.7362060546875
1.72734375
1.7313720703125
1.7289550781249998
1.7410400390624998
1.8143554687499999
1.71123046875
1.7370117187499998
1.7370117187499998
1.722509765625
1.7128417968749998
1.7047851562499998
1.7007568359374998
1.7329833984374998
1.7329833984374998
1.73056640625
1.7378173828124999
1.738623046875
1.735400390625
1.74345703125
1.7531249999999998
1.7289550781249998
1.719287109375
1.7208984374999998
1.7281494140625
1.7184814453125
1.609716796875
1.7531249999999998
1.738623046875
1.7418457031249999
1.764404296875
1.780517578125
1.8506103515624999
1.8256347656249998
1.7531249999999998
1.764404296875
1.7579589843749999
1.748291015625
1.77568359375
1.7684326171875
1.7345947265625
1.706396484375
1.7072021484375
1.7176757812499999
1.7233154296875
1.7265380859375
1.7337890624999999
1.8409423828125
1.7289550781249998
1.719287109375
1.72412109375
1.7184814453125
1.7080078125
1.6894775390624999
1.7088134765624998
1.7289550781249998
1.735400390625
1.73056640625
1.738623046875
1.7450683593749998
1.7458740234374999
1.732177734375
1.72734375
1.7362060546875
1.7370117187499998
1.7378173828124999
1.7442626953125
1.7531249999999998
1.6508056640625
1.7668212890625
1.7635986328125
1.7362060546875
1.7329833984374998
1.748291015625
1.791796875
1.8014648437499998
1.72734375
1.72412109375
1.7329833984374998
1.7362060546875
1.7345947265625
1.72734375
1.7466796875
1.7313720703125
1.74345703125
1.7394287109375
1.7208984374999998
1.7249267578124998
1.735400390625
1.8175781249999998
1.764404296875
1.7418457031249999
1.7660156249999999
1.738623046875
1.72412109375
1.7313720703125
1.732177734375
1.7345947265625
1.7442626953125
1.714453125
1.714453125
1.7265380859375
1.72412109375
1.7208984374999998
1.7313720703125
1.735400390625
1.754736328125
1.767626953125
1.7619873046874999
1.7418457031249999
1.635498046875
1.6878662109375
1.7257324218749999
1.7080078125
1.7297607421874999
1.748291015625
1.7507080078125
1.8232177734375
1.7635986328125
1.75634765625
1.7893798828124998
1.7579589843749999
1.7450683593749998
1.7579589843749999
1.7370117187499998
1.7410400390624998
1.7410400390624998
1.7370117187499998
1.7337890624999999
1.7265380859375
1.7289550781249998
1.7531249999999998
1.8038818359375
1.7080078125
1.7184814453125
1.7362060546875
1.714453125
1.7047851562499998
1.6830322265625
1.7120361328125
1.7289550781249998
1.7394287109375
1.740234375
1.74345703125
1.7378173828124999
1.7418457031249999
1.7466796875
1.7418457031249999
1.7378173828124999
1.7289550781249998
1.7345947265625
1.7345947265625
1.7184814453125
1.6685302734374998
1.786962890625
1.7474853515625
1.7313720703125
1.748291015625
1.7660156249999999
1.8216064453124998
1.7724609375
1.7281494140625
1.7337890624999999
1.7297607421874999
1.7378173828124999
1.7329833984374998
1.7337890624999999
1.7289550781249998
1.72412109375
1.7257324218749999
1.7289550781249998
1.7362060546875
1.7394287109375
1.740234375
1.843359375
1.7297607421874999
1.7329833984374998
1.7257324218749999
1.7184814453125
1.72734375
1.7104248046875
1.7208984374999998
1.732177734375
1.735400390625
1.7362060546875
1.7539306640624999
1.7466796875
1.7426513671875
1.751513671875
1.7579589843749999
1.754736328125
1.73056640625
1.7345947265625
1.7474853515625
1.740234375
1.6218017578125
1.7426513671875
1.7426513671875
1.7450683593749998
1.7490966796874998
1.754736328125
1.7934082031249998
1.7982421874999999
1.748291015625
1.7450683593749998
1.735400390625
1.7313720703125
1.7297607421874999
1.7281494140625
1.7337890624999999
1.7418457031249999
1.7345947265625
1.74345703125
1.7337890624999999
1.7257324218749999
1.7426513671875
1.8336914062499998
1.7595703125
1.7184814453125
1.7394287109375
1.7233154296875
1.7096191406249999
1.7039794921875
1.7023681640625
1.7233154296875
1.732177734375
1.7297607421874999
1.732177734375
1.7450683593749998
1.7474853515625
1.740234375
1.7466796875
1.754736328125
1.7531249999999998
1.7587646484375
1.7603759765625
1.7531249999999998
1.6121337890624998
1.6636962890625
1.7233154296875
1.7176757812499999
1.73056640625
1.7507080078125
1.767626953125
1.8224121093749999
1.791796875
1.7821289062499999
1.7845458984375
1.764404296875
1.7507080078125
1.748291015625
1.7337890624999999
1.73056640625
1.7168701171874998
1.7507080078125
1.7595703125
1.7611816406249998
1.732177734375
1.7394287109375
1.7934082031249998
1.7088134765624998
1.714453125
1.6951171875
1.690283203125
1.6910888671875
1.690283203125
1.706396484375
1.7539306640624999
1.7555419921875
1.7579589843749999
1.7531249999999998
1.767626953125
1.7474853515625
1.7523193359375
1.7579589843749999
1.7426513671875
1.7249267578124998
1.7337890624999999
1.74345703125
1.7208984374999998
1.6749755859375
1.764404296875
1.7345947265625
1.7466796875
1.7748779296875
1.7587646484375
1.8143554687499999
1.7571533203124998
1.735400390625
1.748291015625
1.7442626953125
1.7337890624999999
1.735400390625
1.7458740234374999
1.738623046875
1.7458740234374999
1.732177734375
1.748291015625
1.7418457031249999
1.7378173828124999
1.7281494140625
1.8199951171875
1.714453125
1.722509765625
1.7410400390624998
1.72412109375
1.72412109375
1.6846435546874998
1.7096191406249999
1.7249267578124998
1.7362060546875
1.7362060546875
1.73056640625
1.7337890624999999
1.7490966796874998
1.7394287109375
1.754736328125
1.7587646484375
1.7450683593749998
1.7370117187499998
1.7394287109375
1.732177734375
1.6363037109374998
1.7748779296875
1.7595703125
1.754736328125
1.7474853515625
1.7716552734375
1.8175781249999998
1.7974365234374998
1.7587646484375
1.7450683593749998
1.7265380859375
1.7176757812499999
1.7345947265625
1.72734375
1.7345947265625
1.7329833984374998
1.7313720703125
1.7531249999999998
1.7466796875
1.7362060546875
1.7426513671875
1.8377197265624998
1.7474853515625
1.7039794921875
1.719287109375
1.7168701171874998
1.7088134765624998
1.66611328125
1.7072021484375
1.7523193359375
1.7571533203124998
1.7668212890625
1.791796875
1.7877685546875
1.767626953125
1.7370117187499998
1.72412109375
1.7329833984374998
1.738623046875
1.7362060546875
1.7313720703125
1.7378173828124999
1.622607421875
1.72412109375
1.7652099609374998
1.7442626953125
1.75634765625
1.7732666015624998
1.7901855468749999
1.815966796875
1.7217041015624999
1.7080078125
1.7370117187499998
1.7490966796874998
1.7635986328125
1.7700439453124999
1.7611816406249998
1.764404296875
1.7772949218749998
1.7611816406249998
1.7555419921875
1.7571533203124998
1.748291015625
1.7772949218749998
1.7877685546875
1.7047851562499998
1.7418457031249999
1.7450683593749998
1.7152587890625
1.703173828125
1.7047851562499998
1.7200927734375
1.740234375
1.7579589843749999
1.7611816406249998
1.740234375
1.7418457031249999
1.7458740234374999
1.7426513671875
1.7539306640624999
1.7507080078125
1.7337890624999999
1.7378173828124999
1.738623046875
1.7120361328125
1.6749755859375
1.7772949218749998
1.7507080078125
1.7603759765625
1.7740722656249999
1.7764892578125
1.8651123046875
1.796630859375
1.7684326171875
1.7378173828124999
1.7337890624999999
1.72734375
1.7466796875
1.740234375
1.7370117187499998
1.7394287109375
1.7450683593749998
1.7490966796874998
1.7507080078125
1.7450683593749998
1.748291015625
1.8409423828125
1.722509765625
1.7426513671875
1.7611816406249998
1.7378173828124999
1.7313720703125
1.6943115234375
1.7208984374999998
1.7297607421874999
1.7394287109375
1.735400390625
1.7499023437499999
1.7571533203124998
1.75634765625
1.7418457031249999
1.751513671875
1.7595703125
1.7507080078125
1.754736328125
1.7458740234374999
1.748291015625
1.6266357421875
1.7579589843749999
1.75634765625
1.74345703125
1.7579589843749999
1.7982421874999999
1.8385253906249999
1.786962890625
1.7635986328125
1.7797119140625
1.7861572265624999
1.7603759765625
1.7458740234374999
1.7257324218749999
1.735400390625
1.72412109375
1.7184814453125
1.7128417968749998
1.7249267578124998
1.7426513671875
1.7474853515625
1.867529296875
1.7764892578125
1.7410400390624998
1.77568359375
1.7692382812499998
1.7595703125
1.7015624999999999
1.7337890624999999
1.732177734375
1.7539306640624999
1.73056640625
1.738623046875
1.735400390625
1.7490966796874998
1.7507080078125
1.7345947265625
1.754736328125
1.7692382812499998
1.783740234375
1.7893798828124998
1.7587646484375
1.6169677734374999
1.73056640625
1.7571533203124998
1.7418457031249999
1.7490966796874998
1.7732666015624998
1.7958251953125
1.8506103515624999
1.7619873046874999
1.7523193359375
1.75634765625
1.76279296875
1.7668212890625
1.77568359375
1.770849609375
1.754736328125
1.7507080078125
1.7619873046874999
1.7813232421874998
1.786962890625
1.7700439453124999
1.7724609375
1.799853515625
1.7120361328125
1.7370117187499998
1.7555419921875
1.7249267578124998
1.7128417968749998
1.7080078125
1.7257324218749999
1.7499023437499999
1.7466796875
1.7176757812499999
1.7015624999999999
1.7362060546875
1.754736328125
1.7603759765625
1.8054931640624998
1.7926025390625
1.7901855468749999
1.7982421874999999
1.8038818359375
1.738623046875
1.7023681640625
1.82080078125
1.7845458984375
1.7474853515625
1.7458740234374999
1.7555419921875
1.8417480468749998
1.7660156249999999
1.7450683593749998
1.7635986328125
1.7724609375
1.7531249999999998
1.7716552734375
1.7909912109375
1.764404296875
1.732177734375
1.7418457031249999
1.7490966796874998
1.751513671875
1.75634765625
1.748291015625
1.832080078125
1.7410400390624998
1.754736328125
1.7700439453124999
1.7539306640624999
1.7458740234374999
1.7184814453125
1.7362060546875
1.7466796875
1.7539306640624999
1.7611816406249998
1.7635986328125
1.7603759765625
1.75634765625
1.75634765625
1.770849609375
1.7635986328125
1.7595703125
1.7579589843749999
1.748291015625
1.7297607421874999
1.641943359375
1.7893798828124998
1.780517578125
1.7692382812499998
1.7901855468749999
1.803076171875
1.8328857421875
1.8062988281249999
1.796630859375
1.8062988281249999
1.7926025390625
1.7909912109375
1.7813232421874998
1.7619873046874999
1.740234375
1.754736328125
1.7587646484375
1.738623046875
1.722509765625
1.7450683593749998
1.751513671875
1.8820312499999998
1.7716552734375
1.72412109375
1.7523193359375
1.7418457031249999
1.7208984374999998
1.6910888671875
1.7410400390624998
1.7571533203124998
1.7603759765625
1.7652099609374998
1.7990478515625
1.7958251953125
1.7748779296875
1.7692382812499998
1.7772949218749998
1.7684326171875
1.7531249999999998
1.7523193359375
1.7507080078125
1.7619873046874999
1.6379150390625
1.764404296875
1.8046875
1.767626953125
1.7772949218749998
1.791796875
1.7982421874999999
1.8377197265624998
1.7345947265625
1.732177734375
1.7474853515625
1.754736328125
1.7611816406249998
1.77890625
1.7797119140625
1.7853515624999998
1.7901855468749999
1.8014648437499998
1.8014648437499998
1.79501953125
1.7507080078125
1.7942138671874999
1.82080078125
1.719287109375
1.7362060546875
1.7466796875
1.7329833984374998
1.7200927734375
1.71123046875
1.735400390625
1.7668212890625
1.7724609375
1.764404296875
1.7539306640624999
1.7668212890625
1.7700439453124999
1.7684326171875
1.7764892578125
1.770849609375
1.7748779296875
1.7660156249999999
1.7660156249999999
1.7023681640625
1.6798095703125
1.7660156249999999
1.7345947265625
1.7499023437499999
1.791796875
1.79501953125
1.883642578125
1.8071044921875
1.77890625
1.7990478515625
1.8038818359375
1.7740722656249999
1.76279296875
1.7555419921875
1.735400390625
1.714453125
1.7370117187499998
1.7458740234374999
1.7652099609374998
1.796630859375
1.8054931640624998
1.8844482421875
1.7716552734375
1.7845458984375
1.780517578125
1.7297607421874999
1.7184814453125
1.6725585937499998
1.6951171875
1.7394287109375
1.7716552734375
1.7595703125
1.751513671875
1.7611816406249998
1.7845458984375
1.7587646484375
1.7499023437499999
1.7660156249999999
1.8022705078124999
1.8304687499999999
1.8312744140625
1.77890625
1.65966796875
1.7982421874999999
1.767626953125
1.7474853515625
1.7692382812499998
1.77568359375
1.8135498046874998
1.80791015625
1.7539306640624999
1.748291015625
1.75634765625
1.7724609375
1.7587646484375
1.75634765625
1.7692382812499998
1.7821289062499999
1.77568359375
1.764404296875
1.7635986328125
1.7668212890625
1.7700439453124999
1.8925048828125
1.7466796875
1.7176757812499999
1.7450683593749998
1.7426513671875
1.7378173828124999
1.7047851562499998
1.7289550781249998
1.748291015625
1.7748779296875
1.7934082031249998
1.77890625
1.7700439453124999
1.799853515625
1.7901855468749999
1.767626953125
1.7531249999999998
1.7523193359375
1.754736328125
1.770849609375
1.7893798828124998
1.6322753906249998
1.7797119140625
1.79501953125
1.7474853515625
1.7660156249999999
1.7861572265624999
1.8248291015625
1.8586669921874999
1.7797119140625
1.7668212890625
1.7531249999999998
1.767626953125
1.7619873046874999
1.7490966796874998
1.7724609375
1.7748779296875
1.7370117187499998
1.7450683593749998
1.7716552734375
1.7490966796874998
1.7539306640624999
1.8369140625
1.8417480468749998
1.7668212890625
1.8071044921875
1.8062988281249999
1.764404296875
1.735400390625
1.6991455078125
1.72734375
1.7539306640624999
1.7603759765625
1.7571533203124998
1.7362060546875
1.7184814453125
1.7208984374999998
1.7531249999999998
1.7611816406249998
1.7724609375
1.78857421875
1.799853515625
1.8135498046874998
1.7499023437499999
1.7281494140625
1.8038818359375
1.7619873046874999
1.7595703125
1.7781005859374999
1.7829345703125
1.8602783203125
1.7821289062499999
1.7579589843749999
1.7571533203124998
1.77568359375
1.799853515625
1.8151611328125
1.7587646484375
1.738623046875
1.7531249999999998
1.7684326171875
1.7539306640624999
1.7499023437499999
1.7595703125
1.7797119140625
1.928759765625
1.7611816406249998
1.7619873046874999
1.764404296875
1.7337890624999999
1.7257324218749999
1.69189453125
1.7257324218749999
1.7490966796874998
1.7531249999999998
1.7410400390624998
1.7635986328125
1.7635986328125
1.7740722656249999
1.7764892578125
1.780517578125
1.770849609375
1.7732666015624998
1.7732666015624998
1.7958251953125
1.7893798828124998
1.6798095703125
1.819189453125
1.7797119140625
1.7716552734375
1.7893798828124998
1.7958251953125
1.8296630859374998
1.8465820312499999
1.7531249999999998
1.7539306640624999
1.75634765625
1.7571533203124998
1.764404296875
1.7684326171875
1.770849609375
1.767626953125
1.7313720703125
1.75634765625
1.7748779296875
1.7668212890625
1.7893798828124998
1.9593749999999999
1.770849609375
1.7450683593749998
1.79501953125
1.7724609375
1.74345703125
1.69833984375
1.7120361328125
1.7217041015624999
1.7668212890625
1.7772949218749998
1.77568359375
1.7668212890625
1.7740722656249999
1.764404296875
1.7700439453124999
1.767626953125
1.7716552734375
1.7603759765625
1.74345703125
1.7249267578124998
1.5960205078124998
1.7893798828124998
1.8175781249999998
1.7821289062499999
1.791796875
1.8111328125
1.82724609375
1.9053955078125
1.832080078125
1.828857421875
1.8393310546875
1.815966796875
1.7490966796874998
1.7265380859375
1.754736328125
1.751513671875
1.7507080078125
1.7579589843749999
1.7579589843749999
1.7555419921875
1.7700439453124999
1.8522216796875
1.8312744140625
1.7152587890625
1.735400390625
1.7418457031249999
1.7418457031249999
1.7257324218749999
1.722509765625
1.7458740234374999
1.751513671875
1.7926025390625
1.8280517578125
1.799853515625
1.8022705078124999
1.7821289062499999
1.7692382812499998
1.783740234375
1.7942138671874999
1.79501953125
1.8038818359375
1.79501953125
1.6588623046875
1.6636962890625
1.8119384765625
1.77568359375
1.7684326171875
1.7829345703125
1.7982421874999999
1.8949218749999999
1.8014648437499998
1.7579589843749999
1.76279296875
1.7684326171875
1.7861572265624999
1.7982421874999999
1.7990478515625
1.8046875
1.7724609375
1.767626953125
1.7523193359375
1.7474853515625
1.7732666015624998
1.7797119140625
1.9384277343749998
1.7265380859375
1.7539306640624999
1.7821289062499999
1.7587646484375
1.7362060546875
1.7104248046875
1.738623046875
1.7684326171875
1.77890625
1.7684326171875
1.7700439453124999
1.7692382812499998
1.780517578125
1.77568359375
1.7893798828124998
1.7861572265624999
1.7813232421874998
1.7861572265624999
1.791796875
1.786962890625
1.6040771484374998
1.8240234375
1.7861572265624999
1.77568359375
1.7861572265624999
1.812744140625
1.8626953124999999
1.8635009765625
1.7740722656249999
1.7684326171875
1.77568359375
1.7716552734375
1.7748779296875
1.767626953125
1.78857421875
1.780517578125
1.7692382812499998
1.770849609375
1.7732666015624998
1.7684326171875
1.7716552734375
1.8989501953124999
1.7700439453124999
1.7668212890625
1.7942138671874999
1.767626953125
1.7595703125
1.7096191406249999
1.7217041015624999
1.7265380859375
1.7668212890625
1.7821289062499999
1.7901855468749999
1.7764892578125
1.8054931640624998
1.8054931640624998
1.7909912109375
1.7861572265624999
1.7797119140625
1.7934082031249998
1.7974365234374998
1.7893798828124998
1.690283203125
1.791796875
1.80791015625
1.7797119140625
1.8071044921875
1.82080078125
1.835302734375
1.9005615234375
1.7700439453124999
1.7700439453124999
1.7740722656249999
1.7901855468749999
1.7942138671874999
1.7926025390625
1.7853515624999998
1.77568359375
1.7740722656249999
1.7740722656249999
1.7507080078125
1.7410400390624998
1.7579589843749999
1.8739746093749998
1.861083984375
1.7579589843749999
1.7926025390625
1.80791015625
1.796630859375
1.7764892578125
1.73056640625
1.74345703125
1.7764892578125
1.7748779296875
1.767626953125
1.7619873046874999
1.7772949218749998
1.77890625
1.7853515624999998
1.791796875
1.803076171875
1.8022705078124999
1.7958251953125
1.7901855468749999
1.6701416015625
1.7297607421874999
1.8489990234375
1.7942138671874999
1.7934082031249998
1.8522216796875
1.8618896484374998
1.920703125
1.79501953125
1.77890625
1.7821289062499999
1.783740234375
1.783740234375
1.780517578125
1.7490966796874998
1.7281494140625
1.7337890624999999
1.7507080078125
1.767626953125
1.791796875
1.8103271484374999
1.8135498046874998
1.9843505859375
1.82724609375
1.8506103515624999
1.8280517578125
1.7861572265624999
1.7450683593749998
1.7088134765624998
1.72412109375
1.738623046875
1.770849609375
1.767626953125
1.7958251953125
1.7845458984375
1.7813232421874998
1.7942138671874999
1.8183837890624999
1.8071044921875
1.803076171875
1.79501953125
1.78857421875
1.77890625
1.619384765625
1.844970703125
1.7909912109375
1.767626953125
1.796630859375
1.8135498046874998
1.8860595703124998
1.8699462890624998
1.783740234375
1.7724609375
1.7821289062499999
1.77890625
1.786962890625
1.7724609375
1.77568359375
1.767626953125
1.7724609375
1.786962890625
1.791796875
1.7587646484375
1.7539306640624999
1.8989501953124999
1.7668212890625
1.780517578125
1.79501953125
1.786962890625
1.75634765625
1.6967285156249998
1.72734375
1.7337890624999999
1.7829345703125
1.7901855468749999
1.7813232421874998
1.7692382812499998
1.7901855468749999
1.79501953125
1.8095214843749998
1.819189453125
1.8199951171875
1.8135498046874998
1.7934082031249998
1.7748779296875
1.606494140625
1.7982421874999999
1.8232177734375
1.791796875
1.8038818359375
1.8175781249999998
1.8312744140625
1.8763916015625
1.751513671875
1.7660156249999999
1.7740722656249999
1.7684326171875
1.7668212890625
1.7660156249999999
1.7652099609374998
1.76279296875
1.7603759765625
1.76279296875
1.7668212890625
1.7595703125
1.770849609375
1.7781005859374999
1.8240234375
1.7208984374999998
1.7474853515625
1.74345703125
1.716064453125
1.72412109375
1.7184814453125
1.72412109375
1.7571533203124998
1.7724609375
1.7724609375
1.7668212890625
1.7797119140625
1.786962890625
1.7901855468749999
1.7724609375
1.76279296875
1.767626953125
1.7660156249999999
1.770849609375
1.6427490234375
1.7233154296875
1.8409423828125
1.7700439453124999
1.7700439453124999
1.79501953125
1.8046875
1.90458984375
1.7877685546875
1.7531249999999998
1.751513671875
1.7507080078125
1.7611816406249998
1.767626953125
1.7555419921875
1.7611816406249998
1.7611816406249998
1.7507080078125
1.74345703125
1.7499023437499999
1.7539306640624999
1.7635986328125
1.9327880859375
1.7450683593749998
1.7724609375
1.783740234375
1.7555419921875
1.7370117187499998
1.7168701171874998
1.7176757812499999
1.7249267578124998
1.767626953125
1.7748779296875
1.7732666015624998
1.7507080078125
1.7466796875
1.7345947265625
1.7458740234374999
1.7507080078125
1.7394287109375
1.7684326171875
1.7700439453124999
1.7829345703125
1.6209960937499999
1.832080078125
1.780517578125
1.7700439453124999
1.7934082031249998
1.799853515625
1.8884765625
1.8224121093749999
1.735400390625
1.7362060546875
1.740234375
1.74345703125
1.748291015625
1.7474853515625
1.7507080078125
1.7531249999999998
1.7531249999999998
1.74345703125
1.716064453125
1.719287109375
1.7168701171874998
1.8538330078124998
1.740234375
1.674169921875
1.703173828125
1.6854492187499999
1.6878662109375
1.6717529296875
1.7096191406249999
1.7096191406249999
1.7184814453125
1.71123046875
1.7217041015624999
1.7217041015624999
1.7458740234374999
1.7490966796874998
1.7531249999999998
1.7587646484375
1.7490966796874998
1.732177734375
1.72412109375
1.74345703125
1.5960205078124998
1.7410400390624998
1.8175781249999998
1.7635986328125
1.7507080078125
1.7821289062499999
1.8296630859374998
1.8498046874999998
1.7176757812499999
1.722509765625
1.7249267578124998
1.7120361328125
1.7329833984374998
1.7466796875
1.7579589843749999
1.7797119140625
1.7660156249999999
1.7603759765625
1.7877685546875
1.77890625
1.7555419921875
1.7571533203124998
1.7829345703125
1.667724609375
1.714453125
1.7281494140625
1.7080078125
1.6991455078125
1.69833984375
1.7047851562499998
1.738623046875
1.7499023437499999
1.7571533203124998
1.754736328125
1.7732666015624998
1.7635986328125
1.7507080078125
1.7692382812499998
1.783740234375
1.796630859375
1.8087158203125
1.8014648437499998
1.65
1.6862548828125
1.7821289062499999
1.7490966796874998
1.783740234375
1.8006591796875
1.8199951171875
1.9037841796875
1.7990478515625
1.7603759765625
1.7853515624999998
1.7531249999999998
1.7619873046874999
1.767626953125
1.7781005859374999
1.7853515624999998
1.7466796875
1.7345947265625
1.7660156249999999
1.819189453125
1.8393310546875
1.8304687499999999
1.9795166015624999
1.75634765625
1.7499023437499999
1.77568359375
1.7740722656249999
1.754736328125
1.7200927734375
1.7233154296875
1.7426513671875
1.75634765625
1.7603759765625
1.7700439453124999
1.7716552734375
1.7724609375
1.7619873046874999
1.76279296875
1.764404296875
1.7611816406249998
1.7772949218749998
1.7716552734375
1.7539306640624999
1.5984375
1.8014648437499998
1.7764892578125
1.7732666015624998
1.78857421875
1.8022705078124999
1.9198974609375
1.7958251953125
1.7619873046874999
1.7652099609374998
1.767626953125
1.7724609375
1.7829345703125
1.8022705078124999
1.7901855468749999
1.76279296875
1.7587646484375
1.7660156249999999
1.7772949218749998
1.7877685546875
1.7901855468749999
1.94970703125
1.819189453125
1.7635986328125
1.77568359375
1.7660156249999999
1.740234375
1.6822265625
1.7249267578124998
1.7281494140625
1.7781005859374999
1.7821289062499999
1.780517578125
1.7684326171875
1.7853515624999998
1.7845458984375
1.7893798828124998
1.7829345703125
1.7853515624999998
1.783740234375
1.7732666015624998
1.77568359375
1.6185791015625
1.767626953125
1.82724609375
1.7942138671874999
1.8103271484374999
1.8409423828125
1.867529296875
1.9343994140624998
1.8336914062499998
1.770849609375
1.7716552734375
1.767626953125
1.770849609375
1.7668212890625
1.764404296875
1.7724609375
1.7781005859374999
1.7845458984375
1.780517578125
1.791796875
1.7934082031249998
1.8006591796875
1.8377197265624998
1.7289550781249998
1.7579589843749999
1.7168701171874998
1.6927001953124998
1.6910888671875
1.6894775390624999
1.7152587890625
1.74345703125
1.7466796875
1.7410400390624998
1.738623046875
1.7337890624999999
1.7394287109375
1.748291015625
1.75634765625
1.72734375
1.714453125
1.7265380859375
1.740234375
1.6169677734374999
1.6959228515625
1.8296630859374998
1.7748779296875
1.770849609375
1.8014648437499998
1.8111328125
1.8780029296874998
1.7635986328125
1.7096191406249999
1.7104248046875
1.69189453125
1.6814208984374999
1.7128417968749998
1.740234375
1.738623046875
1.7378173828124999
1.7442626953125
1.7394287109375
1.74345703125
1.7418457031249999
1.7450683593749998
1.8908935546874999
1.7168701171874998
1.7362060546875
1.7539306640624999
1.738623046875
1.6935058593749999
1.6685302734374998
1.6951171875
1.7208984374999998
1.7337890624999999
1.740234375
1.7611816406249998
1.7595703125
1.76279296875
1.7531249999999998
1.722509765625
1.7297607421874999
1.7337890624999999
1.7531249999999998
1.7603759765625
1.767626953125
1.609716796875
1.8538330078124998
1.8304687499999999
1.80791015625
1.8103271484374999
1.8377197265624998
1.9327880859375
1.835302734375
1.7531249999999998
1.7571533203124998
1.7724609375
1.803076171875
1.8264404296874999
1.819189453125
1.8361083984375
1.832080078125
1.8248291015625
1.8240234375
1.8369140625
1.8232177734375
1.8256347656249998
1.9625976562499998
1.799853515625
1.7853515624999998
1.7668212890625
1.7233154296875
1.7176757812499999
1.6967285156249998
1.7507080078125
1.7893798828124998
1.8119384765625
1.78857421875
1.7926025390625
1.8111328125
1.8167724609375
1.8111328125
1.8183837890624999
1.8304687499999999
1.832080078125
1.864306640625
1.8417480468749998
1.835302734375
1.6475830078125
1.8377197265624998
1.8248291015625
1.7781005859374999
1.7958251953125
1.815966796875
1.8361083984375
1.8506103515624999
1.7772949218749998
1.7781005859374999
1.796630859375
1.8103271484374999
1.8111328125
1.82080078125
1.8256347656249998
1.8183837890624999
1.8119384765625
1.8183837890624999
1.8240234375
1.8103271484374999
1.7982421874999999
1.920703125
1.8393310546875
1.770849609375
1.8111328125
1.7982421874999999
1.7579589843749999
1.7337890624999999
1.7539306640624999
1.7603759765625
1.780517578125
1.7861572265624999
1.7829345703125
1.7901855468749999
1.8385253906249999
1.8087158203125
1.8006591796875
1.786962890625
1.8119384765625
1.8256347656249998
1.8232177734375
1.7982421874999999
1.6524169921874998
1.748291015625
1.8489990234375
1.7781005859374999
1.8046875
1.8248291015625
1.8304687499999999
1.915869140625
1.84013671875
1.8095214843749998
1.819189453125
1.8103271484374999
1.8022705078124999
1.812744140625
1.815966796875
1.8151611328125
1.7942138671874999
1.819189453125
1.8199951171875
1.7909912109375
1.7748779296875
1.7974365234374998
1.9223144531249998
1.751513671875
1.7853515624999998
1.8046875
1.7724609375
1.7748779296875
1.7523193359375
1.7934082031249998
1.8199951171875
1.8361083984375
1.84013671875
1.8385253906249999
1.8304687499999999
1.8264404296874999
1.8240234375
1.8143554687499999
1.8038818359375
1.80791015625
1.8119384765625
1.8183837890624999
1.8046875
1.7345947265625
1.8635009765625
1.8046875
1.796630859375
1.8344970703124999
1.8465820312499999
1.957763671875
1.82080078125
1.8038818359375
1.796630859375
1.796630859375
1.8071044921875
1.7982421874999999
1.7893798828124998
1.7853515624999998
1.786962890625
1.7982421874999999
1.7877685546875
1.7845458984375
1.7764892578125
1.783740234375
1.9311767578124999
1.7450683593749998
1.75634765625
1.791796875
1.7635986328125
1.7490966796874998
1.703173828125
1.748291015625
1.7668212890625
1.7982421874999999
1.7958251953125
1.7861572265624999
1.7942138671874999
1.8054931640624998
1.7990478515625
1.7982421874999999
1.8046875
1.8014648437499998
1.7990478515625
1.8006591796875
1.7958251953125
1.6306640625
1.8344970703124999
1.812744140625
1.8006591796875
1.8175781249999998
1.8256347656249998
1.8788085937499999
1.8635009765625
1.7845458984375
1.7781005859374999
1.7772949218749998
1.77568359375
1.7861572265624999
1.786962890625
1.786962890625
1.7877685546875
1.7845458984375
1.791796875
1.7942138671874999
1.7974365234374998
1.8014648437499998
1.931982421875
1.780517578125
1.7772949218749998
1.79501953125
1.7764892578125
1.764404296875
1.72412109375
1.7579589843749999
1.75634765625
1.78857421875
1.7853515624999998
1.7942138671874999
1.7845458984375
1.796630859375
1.7652099609374998
1.7587646484375
1.7660156249999999
1.7539306640624999
1.751513671875
1.7410400390624998
1.7418457031249999
1.6137451171875
1.7748779296875
1.7829345703125
1.7394287109375
1.75634765625
1.7845458984375
1.7781005859374999
1.861083984375
1.7450683593749998
1.7297607421874999
1.738623046875
1.7362060546875
1.7362060546875
1.7345947265625
1.740234375
1.7289550781249998
1.72734375
1.7329833984374998
1.7345947265625
1.7418457031249999
1.7345947265625
1.8248291015625
1.77890625
1.67578125
1.732177734375
1.722509765625
1.7015624999999999
1.6951171875
1.6725585937499998
1.6636962890625
1.7047851562499998
1.7289550781249998
1.722509765625
1.7378173828124999
1.7499023437499999
1.7499023437499999
1.754736328125
1.7732666015624998
1.74345703125
1.7426513671875
1.738623046875
1.7362060546875
1.611328125
1.6330810546874999
1.7579589843749999
1.7128417968749998
1.7265380859375
1.7466796875
1.7539306640624999
1.8473876953125
1.7297607421874999
1.7120361328125
1.7152587890625
1.7104248046875
1.7176757812499999
1.7096191406249999
1.7152587890625
1.716064453125
1.714453125
1.7120361328125
1.722509765625
1.7297607421874999
1.7313720703125
1.7289550781249998
1.869140625
1.6693359374999999
1.703173828125
1.7233154296875
1.716064453125
1.7072021484375
1.6669189453125
1.7072021484375
1.7337890624999999
1.74345703125
1.7531249999999998
1.76279296875
1.7555419921875
1.7619873046874999
1.748291015625
1.7394287109375
1.751513671875
1.748291015625
1.7595703125
1.751513671875
1.7418457031249999
1.5863525390625
1.7958251953125
1.7289550781249998
1.7176757812499999
1.7635986328125
1.7692382812499998
1.8216064453124998
1.7893798828124998
1.7104248046875
1.71123046875
1.7128417968749998
1.7080078125
1.7257324218749999
1.719287109375
1.7281494140625
1.719287109375
1.7208984374999998
1.735400390625
1.7313720703125
1.738623046875
1.7490966796874998
1.9021728515624998
1.7168701171874998
1.72412109375
1.748291015625
1.735400390625
1.7184814453125
1.667724609375
1.7072021484375
1.7176757812499999
1.74345703125
1.7378173828124999
1.7394287109375
1.7265380859375
1.7281494140625
1.7168701171874998
1.72734375
1.7217041015624999
1.7176757812499999
1.7184814453125
1.71123046875
1.7168701171874998
1.5460693359375
1.7410400390624998
1.7418457031249999
1.6967285156249998
1.7080078125
1.7249267578124998
1.786962890625
1.7926025390625
1.7047851562499998
1.7047851562499998
1.6878662109375
1.69189453125
1.699951171875
1.706396484375
1.7096191406249999
1.699951171875
1.7136474609374999
1.72412109375
1.719287109375
1.72412109375
1.73056640625
1.8377197265624998
1.7660156249999999
1.6685302734374998
1.7096191406249999
1.6975341796874999
1.63388671875
1.6161621093749998
1.6403320312499998
1.6636962890625
1.71123046875
1.732177734375
1.7313720703125
1.716064453125
1.7362060546875
1.732177734375
1.7208984374999998
1.7289550781249998
1.7152587890625
1.6975341796874999
1.6975341796874999
1.69189453125
1.571044921875
1.6572509765624999
1.751513671875
1.7080078125
1.71123046875
1.7410400390624998
1.7531249999999998
1.8369140625
1.67578125
1.65966796875
1.6564453124999998
1.6636962890625
1.6645019531249998
1.6846435546874998
1.7176757812499999
1.6951171875
1.6717529296875
1.670947265625
1.6669189453125
1.667724609375
1.67578125
1.6830322265625
1.7539306640624999
1.6322753906249998
1.65
1.6411376953124999
1.609716796875
1.609716796875
1.5968261718749999
1.6121337890624998
1.6185791015625
1.6379150390625
1.6330810546874999
1.635498046875
1.638720703125
1.6435546875
1.6411376953124999
1.638720703125
1.62744140625
1.641943359375
1.6532226562499999
1.641943359375
1.5670166015625
1.577490234375
1.7096191406249999
1.6532226562499999
1.6443603515624998
1.6645019531249998
1.6645019531249998
1.7499023437499999
1.6749755859375
1.6169677734374999
1.61455078125
1.6040771484374998
1.6209960937499999
1.6250244140624999
1.6290527343749999
1.625830078125
1.6242187499999998
1.6234130859375
1.6266357421875
1.622607421875
1.6250244140624999
1.6346923828125
1.7877685546875
1.6153564453125
1.6209960937499999
1.6314697265625
1.6266357421875
1.6040771484374998
1.5686279296874999
1.60166015625
1.6266357421875
1.6435546875
1.6443603515624998
1.6491943359374999
1.6427490234375
1.6508056640625
1.6435546875
1.651611328125
1.6483886718749998
1.6483886718749998
1.6451660156249999
1.6403320312499998
1.638720703125
1.4759765624999999
1.6935058593749999
1.651611328125
1.6403320312499998
1.6564453124999998
1.670947265625
1.738623046875
1.706396484375
1.6218017578125
1.625830078125
1.6201904296874998
1.625830078125
1.6459716796875
1.6363037109374998
1.6322753906249998
1.6298583984375
1.625830078125
1.6242187499999998
1.6290527343749999
1.6379150390625
1.6379150390625
1.7926025390625
1.6137451171875
1.59521484375
1.6411376953124999
1.6290527343749999
1.609716796875
1.561376953125
1.5895751953125
1.622607421875
1.6459716796875
1.6363037109374998
1.63388671875
1.6282470703124998
1.6363037109374998
1.619384765625
1.6314697265625
1.6451660156249999
1.6403320312499998
1.65
1.6169677734374999
1.593603515625
1.43408203125
1.6427490234375
1.6604736328124998
1.638720703125
1.6636962890625
1.6806152343749998
1.71123046875
1.7579589843749999
1.6451660156249999
1.625830078125
1.6314697265625
1.6290527343749999
1.6322753906249998
1.6048828124999999
1.606494140625
1.6105224609375
1.609716796875
1.6209960937499999
1.622607421875
1.6242187499999998
1.6185791015625
1.7233154296875
1.6854492187499999
1.587158203125
1.6209960937499999
1.6250244140624999
1.59521484375
1.571044921875
1.5799072265624998
1.5927978515624999
1.6242187499999998
1.6282470703124998
1.6322753906249998
1.625830078125
1.63388671875
1.6314697265625
1.635498046875
1.6403320312499998
1.6290527343749999
1.6346923828125
1.6322753906249998
1.6177734375
1.529150390625
1.554931640625
1.670947265625
1.625830078125
1.6346923828125
1.6653076171874999
1.66611328125
1.7571533203124998
1.6491943359374999
1.6137451171875
1.6185791015625
1.62744140625
1.6395263671875
1.62744140625
1.6169677734374999
1.6177734375
1.6266357421875
1.6218017578125
1.61455078125
1.6209960937499999
1.6234130859375
1.6169677734374999
1.7152587890625
1.5839355468749998
1.6137451171875
1.6290527343749999
1.611328125
1.611328125
1.590380859375
1.606494140625
1.606494140625
1.6081054687499998
1.619384765625
1.62744140625
1.6266357421875
1.6209960937499999
1.619384765625
1.625830078125
1.6427490234375
1.6209960937499999
1.6306640625
1.6242187499999998
1.5686279296874999
1.5331787109375
1.6967285156249998
1.6403320312499998
1.6290527343749999
1.65
1.658056640625
1.7652099609374998
1.6540283203125
1.6129394531249999
1.606494140625
1.6048828124999999
1.6081054687499998
1.6153564453125
1.6298583984375
1.619384765625
1.6266357421875
1.63388671875
1.6266357421875
1.6201904296874998
1.6242187499999998
1.6209960937499999
1.78857421875
1.6000488281249998
1.6056884765625
1.625830078125
1.6153564453125
1.5911865234375
1.5436523437499998
1.5911865234375
1.5976318359375
1.6379150390625
1.6282470703124998
1.6322753906249998
1.6298583984375
1.6266357421875
1.6363037109374998
1.622607421875
1.6330810546874999
1.6322753906249998
1.6290527343749999
1.625830078125
1.6201904296874998
1.456640625
1.662890625
1.654833984375
1.6306640625
1.651611328125
1.6669189453125
1.73056640625
1.706396484375
1.606494140625
1.6185791015625
1.6234130859375
1.619384765625
1.6330810546874999
1.6234130859375
1.6282470703124998
1.619384765625
1.61455078125
1.6209960937499999
1.6298583984375
1.6282470703124998
1.6322753906249998
1.735400390625
1.6105224609375
1.58232421875
1.619384765625
1.6105224609375
1.587158203125
1.558154296875
1.5847412109374999
1.61455078125
1.66611328125
1.6427490234375
1.6379150390625
1.6306640625
1.635498046875
1.625830078125
1.63388671875
1.6266357421875
1.6314697265625
1.6298583984375
1.6322753906249998
1.6322753906249998
1.4606689453125
1.6395263671875
1.6814208984374999
1.6330810546874999
1.6483886718749998
1.6773925781249999
1.6878662109375
1.748291015625
1.6306640625
1.6081054687499998
1.6209960937499999
1.6177734375
1.6250244140624999
1.6306640625
1.6306640625
1.6282470703124998
1.619384765625
1.62744140625
1.6282470703124998
1.6266357421875
1.6290527343749999
1.7080078125
1.7055908203124999
1.5847412109374999
1.6298583984375
1.6290527343749999
1.6000488281249998
1.5726562499999999
1.5678222656249998
1.5911865234375
1.6234130859375
1.6306640625
1.6322753906249998
1.6330810546874999
1.635498046875
1.638720703125
1.63388671875
1.6282470703124998
1.6330810546874999
1.6322753906249998
1.6322753906249998
1.6363037109374998
1.554931640625
1.5444580078124999
1.6765869140624998
1.638720703125
1.6443603515624998
1.6733642578124999
1.6862548828125
1.7587646484375
1.6330810546874999
1.6089111328124999
1.625830078125
1.6266357421875
1.622607421875
1.6282470703124998
1.6282470703124998
1.625830078125
1.622607421875
1.6298583984375
1.62744140625
1.622607421875
1.61455078125
1.6242187499999998
1.7313720703125
1.5879638671874998
1.6121337890624998
1.6427490234375
1.6234130859375
1.606494140625
1.5726562499999999
1.6048828124999999
1.6177734375
1.6161621093749998
1.6201904296874998
1.6346923828125
1.6346923828125
1.6298583984375
1.6234130859375
1.638720703125
1.651611328125
1.6564453124999998
1.6532226562499999
1.641943359375
1.638720703125
1.5202880859374999
1.6910888671875
1.6532226562499999
1.635498046875
1.6508056640625
1.6612792968749999
1.7700439453124999
1.651611328125
1.6161621093749998
1.6072998046875
1.606494140625
1.606494140625
1.6242187499999998
1.6250244140624999
1.6371093749999999
1.6290527343749999
1.6250244140624999
1.6282470703124998
1.6242187499999998
1.62744140625
1.6290527343749999
1.7926025390625
1.6201904296874998
1.5984375
1.6185791015625
1.6105224609375
1.60166015625
1.5791015625
1.593603515625
1.6040771484374998
1.619384765625
1.62744140625
1.635498046875
1.6242187499999998
1.6451660156249999
1.6443603515624998
1.6451660156249999
1.6411376953124999
1.6306640625
1.6282470703124998
1.6250244140624999
1.6298583984375
1.458251953125
1.6532226562499999
1.654833984375
1.641943359375
1.65
1.6685302734374998
1.72734375
1.714453125
1.6089111328124999
1.6161621093749998
1.6177734375
1.6234130859375
1.6209960937499999
1.6242187499999998
1.6314697265625
1.622607421875
1.6250244140624999
1.6298583984375
1.6250244140624999
1.6242187499999998
1.6290527343749999
1.714453125
1.6371093749999999
1.590380859375
1.6322753906249998
1.6185791015625
1.5895751953125
1.5807128906249999
1.590380859375
1.5911865234375
1.6306640625
1.6403320312499998
1.6330810546874999
1.625830078125
1.6242187499999998
1.6282470703124998
1.6282470703124998
1.6330810546874999
1.6371093749999999
1.6371093749999999
1.6266357421875
1.6129394531249999
1.426025390625
1.61455078125
1.67900390625
1.6322753906249998
1.6636962890625
1.6894775390624999
1.690283203125
1.7466796875
1.6781982421875
1.65
1.63388671875
1.6201904296874998
1.6250244140624999
1.622607421875
1.609716796875
1.6040771484374998
1.5919921874999998
1.6089111328124999
1.6201904296874998
1.625830078125
1.635498046875
1.687060546875
1.740234375
1.5863525390625
1.6250244140624999
1.6234130859375
1.5927978515624999
1.5839355468749998
1.5654052734375
1.5847412109374999
1.6153564453125
1.6298583984375
1.6306640625
1.62744140625
1.6363037109374998
1.6346923828125
1.638720703125
1.635498046875
1.6290527343749999
1.6306640625
1.6242187499999998
1.6266357421875
1.5686279296874999
1.5202880859374999
1.6798095703125
1.6314697265625
1.638720703125
1.6564453124999998
1.662890625
1.7539306640624999
1.6725585937499998
1.6129394531249999
1.6129394531249999
1.6169677734374999
1.6169677734374999
1.6234130859375
1.6290527343749999
1.6314697265625
1.6209960937499999
1.6185791015625
1.622607421875
1.6218017578125
1.6201904296874998
1.6282470703124998
1.7523193359375
1.5839355468749998
1.6137451171875
1.6242187499999998
1.6024658203125
1.59521484375
1.5436523437499998
1.585546875
1.6089111328124999
1.625830078125
1.622607421875
1.6282470703124998
1.6234130859375
1.635498046875
1.6298583984375
1.6314697265625
1.6314697265625
1.6266357421875
1.6290527343749999
1.6314697265625
1.6330810546874999
1.4945068359375
1.6814208984374999
1.6475830078125
1.6242187499999998
1.6556396484375
1.662890625
1.7297607421874999
1.6725585937499998
1.6137451171875
1.6048828124999999
1.6081054687499998
1.6040771484374998
1.6306640625
1.625830078125
1.6282470703124998
1.6250244140624999
1.6177734375
1.6242187499999998
1.609716796875
1.6129394531249999
1.6105224609375
1.7821289062499999
1.6169677734374999
1.5831298828125
1.6161621093749998
1.611328125
1.5992431640625
1.554931640625
1.6048828124999999
1.6072998046875
1.6371093749999999
1.6443603515624998
1.667724609375
1.6451660156249999
1.6491943359374999
1.6379150390625
1.635498046875
1.63388671875
1.6314697265625
1.6443603515624998
1.6201904296874998
1.6169677734374999
1.4364990234375
1.6242187499999998
1.6540283203125
1.62744140625
1.6330810546874999
1.6483886718749998
1.706396484375
1.71123046875
1.6161621093749998
1.6153564453125
1.603271484375
1.6129394531249999
1.6218017578125
1.6201904296874998
1.6266357421875
1.6201904296874998
1.6089111328124999
1.6209960937499999
1.625830078125
1.6282470703124998
1.6201904296874998
1.6894775390624999
1.6443603515624998
1.5992431640625
1.6403320312499998
1.6121337890624998
1.58232421875
1.5734619140625
1.5654052734375
1.590380859375
1.6266357421875
1.6403320312499998
1.6411376953124999
1.6242187499999998
1.625830078125
1.6137451171875
1.6290527343749999
1.63388671875
1.6314697265625
1.6298583984375
1.6266357421875
1.6218017578125
1.4598632812499999
1.611328125
1.6830322265625
1.6379150390625
1.6346923828125
1.6604736328124998
1.6636962890625
1.7490966796874998
1.641943359375
1.6153564453125
1.619384765625
1.619384765625
1.6153564453125
1.6185791015625
1.6290527343749999
1.6266357421875
1.6137451171875
1.5919921874999998
1.5968261718749999
1.6137451171875
1.609716796875
1.658056640625
1.7499023437499999
1.5960205078124998
1.6411376953124999
1.662890625
1.64677734375
1.593603515625
1.577490234375
1.5960205078124998
1.61455078125
1.63388671875
1.6024658203125
1.6048828124999999
1.6201904296874998
1.62744140625
1.622607421875
1.6185791015625
1.6346923828125
1.63388671875
1.6250244140624999
1.635498046875
1.5968261718749999
1.5033691406249998
1.67578125
1.6330810546874999
1.6266357421875
1.6564453124999998
1.6725585937499998
1.78857421875
1.6693359374999999
1.6000488281249998
1.6040771484374998
1.6048828124999999
1.6250244140624999
1.6282470703124998
1.625830078125
1.6218017578125
1.6161621093749998
1.6242187499999998
1.6298583984375
1.6218017578125
1.6234130859375
1.6201904296874998
1.7926025390625
1.5815185546875
1.606494140625
1.6346923828125
1.60166015625
1.5879638671874998
1.546875
1.5831298828125
1.6008544921874999
1.6314697265625
1.6209960937499999
1.6201904296874998
1.6209960937499999
1.6403320312499998
1.6371093749999999
1.6282470703124998
1.6427490234375
1.6306640625
1.6379150390625
1.6330810546874999
1.6322753906249998
1.4800048828124999
1.6781982421875
1.64677734375
1.6314697265625
1.6443603515624998
1.651611328125
1.7128417968749998
1.6749755859375
1.6185791015625
1.6201904296874998
1.6161621093749998
1.6234130859375
1.62744140625
1.6177734375
1.6250244140624999
1.619384765625
1.6185791015625
1.622607421875
1.62744140625
1.6081054687499998
1.61455078125
1.7740722656249999
1.6218017578125
1.5799072265624998
1.635498046875
1.6290527343749999
1.5960205078124998
1.5404296874999999
1.58232421875
1.60166015625
1.6314697265625
1.6290527343749999
1.6346923828125
1.619384765625
1.635498046875
1.6161621093749998
1.6209960937499999
1.619384765625
1.622607421875
1.6314697265625
1.641943359375
1.6234130859375
1.4493896484375
1.63388671875
1.66611328125
1.6306640625
1.6459716796875
1.670947265625
1.6822265625
1.75634765625
1.6403320312499998
1.6177734375
1.6185791015625
1.6169677734374999
1.6169677734374999
1.6242187499999998
1.6266357421875
1.6161621093749998
1.6161621093749998
1.6314697265625
1.6298583984375
1.6250244140624999
1.6379150390625
1.6725585937499998
1.65
1.5726562499999999
1.61455078125
1.6266357421875
1.587158203125
1.5726562499999999
1.5589599609375
1.5911865234375
1.6306640625
1.6298583984375
1.6298583984375
1.6282470703124998
1.6346923828125
1.6395263671875
1.6306640625
1.6330810546874999
1.6371093749999999
1.6201904296874998
1.619384765625
1.6153564453125
1.5791015625
1.6048828124999999
1.6862548828125
1.6322753906249998
1.6322753906249998
1.667724609375
1.6572509765624999
1.7772949218749998
1.6508056640625
1.6435546875
1.6330810546874999
1.6218017578125
1.6081054687499998
1.606494140625
1.62744140625
1.6379150390625
1.6298583984375
1.6201904296874998
1.622607421875
1.625830078125
1.6266357421875
1.6435546875
1.7611816406249998
1.587158203125
1.609716796875
1.6266357421875
1.5976318359375
1.590380859375
1.55009765625
1.5976318359375
1.6129394531249999
1.6290527343749999
1.6290527343749999
1.62744140625
1.622607421875
1.6322753906249998
1.6322753906249998
1.63388671875
1.6363037109374998
1.6306640625
1.6306640625
1.6218017578125
1.5968261718749999
1.4759765624999999
1.6773925781249999
1.62744140625
1.6266357421875
1.6411376953124999
1.6459716796875
1.748291015625
1.6773925781249999
1.5984375
1.6161621093749998
1.6290527343749999
1.63388671875
1.6411376953124999
1.638720703125
1.635498046875
1.6322753906249998
1.6121337890624998
