1.17626953125
1.284228515625
1.3092041015625
1.50498046875
1.6991455078125
2.56201171875
2.20751953125
1.8788085937499999
1.7047851562499998
1.6540283203125
1.6427490234375
1.5887695312499999
1.6379150390625
1.6894775390624999
1.5654052734375
1.5146484375
1.561376953125
1.52109375
1.5839355468749998
1.5517089843749998
2.3388427734375
1.9053955078125
1.7901855468749999
1.7313720703125
1.6121337890624998
1.4735595703125
1.0973144531249999
0.9289306640624999
1.0562255859375
1.1923828125
1.32451171875
1.348681640625
1.409912109375
1.345458984375
1.493701171875
1.4767822265625
1.4501953125
1.46953125
1.4058837890625
1.49853515625
1.5138427734375
0.594580078125
1.0973144531249999
1.2536132812499998
1.3333740234375
1.271337890625
1.6129394531249999
2.5547607421875
2.2107421874999997
1.9440673828125
1.7313720703125
1.611328125
1.64677734375
1.6491943359374999
1.6298583984375
1.6072998046875
1.5863525390625
1.558154296875
1.5396240234374998
1.56298828125
1.5235107421874998
1.5025634765625
2.55234375
2.0737792968749997
1.85625
1.79501953125
1.6846435546874998
1.4920898437499999
1.15048828125
0.9144287109375
0.95390625
1.1883544921875
1.3285400390625
1.3365966796875
1.384130859375
1.3792968749999999
1.3768798828125
1.461474609375
1.4791992187499998
1.5033691406249998
1.5122314453124999
1.4759765624999999
1.4880615234374999
0.40524902343749997
1.0803955078125
1.26328125
1.327734375
1.3857421875
1.522705078125
2.318701171875
2.3267578125
1.9400390625
1.7523193359375
1.67578125
1.6209960937499999
1.6685302734374998
1.6161621093749998
1.6105224609375
1.5799072265624998
1.714453125
1.53720703125
1.5146484375
1.546875
1.50498046875
2.521728515625
2.0109375
1.869140625
1.848193359375
1.7104248046875
1.5235107421874998
1.1835205078125
0.8789794921874999
0.942626953125
1.1545166015625
1.2721435546875
1.335791015625
1.3333740234375
1.3817138671875
1.4244140625
1.4767822265625
1.4606689453125
1.529150390625
1.482421875
1.4759765624999999
1.5041748046874999
0.41813964843749996
0.8483642578124999
1.164990234375
1.2697265624999998
1.393798828125
1.4880615234374999
2.0455810546874997
2.462109375
2.07861328125
1.85947265625
1.6975341796874999
1.670947265625
1.6564453124999998
1.6081054687499998
1.6346923828125
1.6346923828125
1.5460693359375
1.5315673828124998
1.590380859375
1.5791015625
1.529150390625
2.0979492187499997
2.3315917968749997
1.8457763671874998
1.796630859375
1.69833984375
1.5758789062499998
1.203662109375
1.0530029296874999
0.90234375
1.1480712890625
1.2479736328125
1.2850341796875
1.2769775390625
1.3543212890624998
1.3873535156249999
1.4469726562499998
1.509814453125
1.4961181640624999
1.4896728515625
1.5162597656249999
1.5404296874999999
0.8225830078124999
0.7822998046874999
1.15693359375
1.200439453125
1.2785888671874999
1.538818359375
1.732177734375
2.5354248046874996
2.14306640625
1.8441650390625
1.651611328125
1.670947265625
1.6161621093749998
1.6435546875
1.658056640625
1.577490234375
1.5686279296874999
1.5589599609375
1.5404296874999999
1.5347900390625
1.5726562499999999
1.9529296875
2.3477050781249997
1.9625976562499998
1.82724609375
1.7088134765624998
1.5831298828125
1.4751708984374998
1.0836181640625
0.8934814453125
1.0497802734375
1.2656982421874998
1.340625
1.3551269531249999
1.4010498046875
1.3784912109374998
1.456640625
1.4316650390624999
1.456640625
1.493701171875
1.509814453125
1.4880615234374999
1.0836181640625
0.53818359375
1.1061767578125
1.264892578125
1.3301513671874998
1.400244140625
1.635498046875
2.4604980468749997
2.2502197265625
1.9464843749999998
1.754736328125
1.6653076171874999
1.65
1.6250244140624999
1.67578125
1.6653076171874999
1.5565429687499999
1.5444580078124999
1.58232421875
1.5645996093749999
1.4993408203124998
1.5380126953125
2.5676513671874996
1.9311767578124999
1.8103271484374999
1.7337890624999999
1.5766845703124999
1.4993408203124998
1.126318359375
1.0086914062499999
1.1214843749999999
1.1786865234375
1.26005859375
1.3140380859374998
1.3253173828125
1.42119140625
1.3962158203125
1.4920898437499999
1.52109375
1.5122314453124999
1.477587890625
1.4993408203124998
1.4655029296875
0.5164306640624999
1.026416015625
1.2262207031249999
1.2334716796875
1.400244140625
1.55009765625
2.1535400390625
2.281640625
1.98837890625
1.7926025390625
1.6830322265625
1.66611328125
1.6701416015625
1.6451660156249999
1.6491943359374999
1.5243164062499999
1.513037109375
1.5605712890624999
1.5839355468749998
1.5412353515625
1.5162597656249999
2.5225341796875
2.1060058593749997
1.8240234375
1.80791015625
1.7015624999999999
1.5662109375
1.06025390625
0.9563232421875
0.9627685546875
1.1794921875
1.2947021484374999
1.38896484375
1.340625
1.3720458984375
1.3752685546874999
1.4574462890625
1.496923828125
1.4783935546875
1.4888671875
1.5017578125
1.4735595703125
0.3673828125
0.8403076171874999
1.2334716796875
1.2826171874999999
1.3728515625
1.5919921874999998
2.2341064453125
2.367041015625
2.0818359374999997
1.803076171875
1.7055908203124999
1.670947265625
1.6081054687499998
1.60166015625
1.611328125
1.6177734375
1.5734619140625
1.5589599609375
1.52109375
1.5460693359375
1.5299560546875
2.1333984375
2.1680419921875
1.8683349609375
1.8264404296874999
1.6894775390624999
1.5412353515625
1.276171875
1.0320556640625
0.9603515625
1.1408203125
1.2503906249999999
1.3229003906249999
1.3478759765625
1.3849365234375
1.384130859375
1.448583984375
1.4703369140625
1.4759765624999999
1.4840332031249999
1.49853515625
1.5082031249999999
0.5003173828124999
0.82177734375
1.1577392578124999
1.2254150390625
1.3365966796875
1.4526123046875
1.6765869140624998
2.4516357421875
2.1068115234375
1.8489990234375
1.6806152343749998
1.6346923828125
1.6532226562499999
1.6451660156249999
1.6330810546874999
1.59521484375
1.5654052734375
1.5331787109375
1.5847412109374999
1.5726562499999999
1.5122314453124999
1.9190917968749999
2.3549560546875
1.9650146484375
1.7772949218749998
1.7249267578124998
1.6403320312499998
1.252001953125
1.0634765625
0.9345703125
1.281005859375
1.2044677734375
1.2979248046874998
1.3140380859374998
1.3728515625
1.3672119140624999
1.380908203125
1.482421875
1.4912841796874998
1.5235107421874998
1.4510009765624998
1.4848388671875
1.0376953125
0.44230957031249996
1.20849609375
1.2834228515625
1.32451171875
1.45341796875
1.635498046875
2.4613037109375
2.2832519531249997
1.912646484375
1.8103271484374999
1.6411376953124999
1.6314697265625
1.6306640625
1.6306640625
1.593603515625
1.5605712890624999
1.5509033203125
1.5565429687499999
1.5517089843749998
1.5517089843749998
1.561376953125
2.3839599609374997
1.9118408203125
1.8175781249999998
1.703173828125
1.603271484375
1.4518066406249999
1.0409179687499999
0.9112060546874999
1.084423828125
1.2310546875
1.313232421875
1.3768798828125
1.361572265625
1.3954101562499999
1.4381103515625
1.4348876953124998
1.506591796875
1.482421875
1.461474609375
1.456640625
1.1674072265625
0.5486572265624999
1.100537109375
1.2423339843749999
1.2777832031249998
1.3865478515624998
1.5533203125
2.5007812499999997
2.222021484375
1.95615234375
1.72412109375
1.6653076171874999
1.6636962890625
1.754736328125
1.5670166015625
1.6685302734374998
1.5267333984375
1.5533203125
1.585546875
1.46953125
1.5734619140625
1.493701171875
2.5080322265625
2.1140624999999997
1.8602783203125
1.735400390625
1.6653076171874999
1.5138427734375
1.00224609375
0.9402099609375
1.0481689453125
1.203662109375
1.3140380859374998
1.351904296875
1.332568359375
1.40185546875
1.3792968749999999
1.4437499999999999
1.4711425781249998
1.4703369140625
1.509814453125
1.5122314453124999
1.4767822265625
0.44150390624999997
1.061865234375
1.2310546875
1.2101074218749999
1.34384765625
1.5170654296875
2.2486083984375
2.408935546875
1.9972412109375
1.7531249999999998
1.654833984375
1.635498046875
1.638720703125
1.6685302734374998
1.662890625
1.6250244140624999
1.5299560546875
1.533984375
1.5509033203125
1.538818359375
1.5412353515625
2.4822509765625
2.1019775390624997
1.8489990234375
1.8216064453124998
1.72734375
1.5525146484374999
1.20849609375
0.984521484375
0.9611572265624999
1.11181640625
1.2906738281249999
1.3092041015625
1.2673095703125
1.33740234375
1.4284423828125
1.5162597656249999
1.5404296874999999
1.42119140625
1.4622802734375
1.5146484375
1.5073974609374998
0.5051513671875
0.8507812499999999
1.1657958984374999
1.2463623046874999
1.3792968749999999
1.4671142578124998
1.925537109375
2.486279296875
2.15595703125
1.7974365234374998
1.6693359374999999
1.6564453124999998
1.6645019531249998
1.6379150390625
1.6572509765624999
1.609716796875
1.5726562499999999
1.5315673828124998
1.5404296874999999
1.561376953125
1.525927734375
1.9593749999999999
2.3275634765624997
1.883642578125
1.8312744140625
1.6935058593749999
1.5766845703124999
1.3067871093749999
1.0820068359375
0.958740234375
1.1013427734374999
1.2834228515625
1.3019531249999998
1.3349853515624999
1.3502929687499998
1.4171630859375
1.4397216796874999
1.4888671875
1.5082031249999999
1.4864501953125
1.4953124999999998
1.4872558593749998
0.9676025390624999
0.7822998046874999
1.1456542968749999
1.2616699218749998
1.3462646484374998
1.442138671875
1.65
2.408935546875
2.13662109375
1.8385253906249999
1.7249267578124998
1.6564453124999998
1.6024658203125
1.6161621093749998
1.6314697265625
1.5492919921875
1.5557373046874998
1.6024658203125
1.5807128906249999
1.5267333984375
1.5484863281249999
1.7716552734375
2.3879882812499997
1.9424560546874998
1.819189453125
1.7233154296875
1.7152587890625
1.4171630859375
1.0884521484375
0.93779296875
1.0626708984375
1.2270263671875
1.252001953125
1.3140380859374998
1.4252197265625
1.4155517578124999
1.4236083984374999
1.4767822265625
1.4679199218749999
1.46953125
1.493701171875
1.47275390625
1.1617675781249999
0.5470458984375
1.11826171875
1.2455566406249998
1.3365966796875
1.4115234374999999
1.5944091796875
2.437939453125
2.2590820312499997
1.8755859375
1.7450683593749998
1.6322753906249998
1.658056640625
1.6612792968749999
1.622607421875
1.6395263671875
1.571044921875
1.5267333984375
1.546875
1.5597656249999998
1.5654052734375
1.5605712890624999
2.4645263671874997
1.9714599609374999
1.8248291015625
1.799853515625
1.6508056640625
1.4840332031249999
1.087646484375
0.93779296875
1.042529296875
1.1939941406249999
1.3510986328124999
1.3607666015625
1.32451171875
1.364794921875
1.4058837890625
1.5106201171875
1.5355957031249998
1.461474609375
1.4945068359375
1.4493896484375
1.4364990234375
0.4922607421875
1.084423828125
1.155322265625
1.327734375
1.3688232421875
1.554931640625
2.30419921875
2.23974609375
2.0568603515625
1.8409423828125
1.6927001953124998
1.6846435546874998
1.6282470703124998
1.6234130859375
1.571044921875
1.6089111328124999
1.5662109375
1.5645996093749999
1.56943359375
1.5428466796875
1.5396240234374998
2.4870849609374996
2.0987548828125
1.8361083984375
1.8111328125
1.732177734375
1.4550292968749998
1.061865234375
0.984521484375
0.9708251953125
1.2302490234374999
1.2987304687499999
1.3446533203125
1.3156494140625
1.351904296875
1.4276367187499999
1.4228027343749998
1.4791992187499998
1.461474609375
1.5138427734375
1.493701171875
1.50498046875
0.44553222656249997
1.0078857421875
1.2310546875
1.264892578125
1.3390136718749999
1.506591796875
2.1076171875
2.43310546875
1.9513183593749999
1.8119384765625
1.719287109375
1.6266357421875
1.6266357421875
1.603271484375
1.6564453124999998
1.6056884765625
1.5726562499999999
1.585546875
1.546875
1.5235107421874998
1.5122314453124999
2.4145751953125
2.1889892578125
1.8820312499999998
1.8683349609375
1.7200927734375
1.7128417968749998
1.3502929687499998
0.984521484375
0.994189453125
1.1077880859375
1.216552734375
1.2689208984375
1.3502929687499998
1.380908203125
1.405078125
1.3946044921874998
1.477587890625
1.3792968749999999
1.4228027343749998
1.5057861328125
1.53076171875
0.5849121093749999
0.7629638671875
1.1537109374999999
1.2342773437499999
1.3382080078124998
1.4437499999999999
1.8892822265625
2.4677490234375
2.102783203125
1.912646484375
1.7200927734375
1.6910888671875
1.6282470703124998
1.6266357421875
1.6161621093749998
1.5573486328125
1.5597656249999998
1.593603515625
1.5726562499999999
1.5662109375
1.5444580078124999
1.80791015625
2.4049072265625
1.8578613281249998
1.8328857421875
1.7104248046875
1.619384765625
1.3825195312499998
1.0787841796875
0.9732421874999999
1.1045654296875
1.2415283203124998
1.2769775390625
1.2938964843749998
1.3752685546874999
1.3664062499999998
1.43408203125
1.448583984375
1.513037109375
1.4977294921875
1.5009521484375
1.4880615234374999
1.1996337890625
0.7001220703125
1.1794921875
1.2503906249999999
1.2987304687499999
1.432470703125
1.5831298828125
2.3396484374999997
2.2099365234375
2.018994140625
1.7370117187499998
1.690283203125
1.6669189453125
1.6540283203125
1.6572509765624999
1.6201904296874998
1.5436523437499998
1.51787109375
1.5114257812499998
1.5621826171875
1.5082031249999999
1.6564453124999998
2.4790283203124996
2.0310791015625
1.8602783203125
1.7611816406249998
1.6862548828125
1.51787109375
1.0852294921874999
0.9595458984374999
1.029638671875
1.239111328125
1.2947021484374999
1.3237060546875
1.3382080078124998
1.4316650390624999
1.3631835937499999
1.46630859375
1.477587890625
1.482421875
1.482421875
1.47275390625
1.380908203125
0.47050781249999996
0.9772705078124999
1.2544189453124999
1.3011474609375
1.335791015625
1.5895751953125
2.425048828125
2.276806640625
1.973876953125
1.735400390625
1.6701416015625
1.6379150390625
1.6508056640625
1.6636962890625
1.6620849609375
1.5645996093749999
1.5460693359375
1.5662109375
1.5299560546875
1.5662109375
1.5517089843749998
2.5330078124999997
2.02060546875
1.8498046874999998
1.8135498046874998
1.658056640625
1.513037109375
1.04736328125
0.9305419921875
0.9708251953125
1.1706298828125
1.2987304687499999
1.329345703125
1.3422363281249998
1.3994384765624999
1.4332763671875
1.458251953125
1.5082031249999999
1.4437499999999999
1.5589599609375
1.5154541015624998
1.4977294921875
0.37785644531249996
0.945849609375
1.173046875
1.239111328125
1.4066894531249998
1.5509033203125
1.9303710937499998
2.3726806640625
2.03994140625
1.8062988281249999
1.683837890625
1.6290527343749999
1.662890625
1.6814208984374999
1.6435546875
1.5758789062499998
1.5396240234374998
1.5428466796875
1.5678222656249998
1.5557373046874998
1.5017578125
2.415380859375
2.131787109375
1.8796142578125
1.8312744140625
1.7208984374999998
1.59521484375
1.1214843749999999
0.9990234375
0.990966796875
1.168212890625
1.2479736328125
1.2745605468749999
1.3019531249999998
1.416357421875
1.4373046875
1.4155517578124999
1.4268310546874998
1.480810546875
1.4783935546875
1.4800048828124999
1.4993408203124998
0.554296875
0.758935546875
1.171435546875
1.2383056640624999
1.3261230468749998
1.4155517578124999
1.770849609375
2.5144775390625
2.20107421875
1.85625
1.7410400390624998
1.6773925781249999
1.606494140625
1.6403320312499998
1.635498046875
1.7104248046875
1.5025634765625
1.5251220703125
1.5057861328125
1.5283447265624999
1.5517089843749998
1.7861572265624999
2.2486083984375
1.8892822265625
1.8240234375
1.7176757812499999
1.55009765625
1.4284423828125
1.0465576171875
0.9933837890624999
1.1174560546874999
1.2536132812499998
1.34384765625
1.3261230468749998
1.3784912109374998
1.38896484375
1.3962158203125
1.4977294921875
1.5517089843749998
1.4977294921875
1.482421875
1.4864501953125
0.6179443359375
0.700927734375
1.1158447265625
1.2141357421874999
1.3414306640625
1.4526123046875
1.5879638671874998
2.473388671875
2.1035888671875
1.8828369140624999
1.6943115234375
1.6363037109374998
1.6161621093749998
1.5927978515624999
1.6636962890625
1.6443603515624998
1.5267333984375
1.7200927734375
1.5911865234375
1.5428466796875
1.53076171875
1.5984375
2.4234375
1.9513183593749999
1.77890625
1.77890625
1.6524169921874998
1.405078125
1.0320556640625
0.920068359375
1.0175537109375
1.2350830078125
1.2906738281249999
1.3188720703124999
1.3744628906249998
1.36962890625
1.4155517578124999
1.490478515625
1.4864501953125
1.4719482421874999
1.5355957031249998
1.4687255859375
1.3744628906249998
0.4713134765625
1.1319580078125
1.2616699218749998
1.2020507812499999
1.44052734375
1.6040771484374998
2.280029296875
2.3074218749999997
1.9650146484375
1.8377197265624998
1.6201904296874998
1.63388671875
1.6443603515624998
1.6693359374999999
1.6773925781249999
1.5654052734375
1.5235107421874998
1.5686279296874999
1.5484863281249999
1.533984375
1.5146484375
2.4983642578125
1.9835449218749999
1.7982421874999999
1.7813232421874998
1.6371093749999999
1.5218994140625
1.0739501953125
0.9434326171874999
1.02802734375
1.15693359375
1.3108154296874999
1.348681640625
1.364794921875
1.4228027343749998
1.3631835937499999
1.4679199218749999
1.456640625
1.4920898437499999
1.480810546875
1.4864501953125
1.474365234375
0.48178710937499997
1.019970703125
1.2189697265625
1.2616699218749998
1.35673828125
1.5267333984375
2.2405517578125
2.357373046875
2.064111328125
1.74345703125
1.6894775390624999
1.6459716796875
1.609716796875
1.6008544921874999
1.6008544921874999
1.60166015625
1.5509033203125
1.5347900390625
1.5484863281249999
1.5323730468749999
1.5589599609375
2.3912109375
2.2663330078125
1.8062988281249999
1.7861572265624999
1.670947265625
1.55009765625
1.126318359375
0.9772705078124999
1.01513671875
1.1859374999999999
1.271337890625
1.3059814453124998
1.345458984375
1.319677734375
1.3390136718749999
1.4872558593749998
1.5251220703125
1.4864501953125
1.490478515625
1.4888671875
1.4526123046875
0.5615478515625
0.9498779296875
1.1931884765625
1.2737548828124998
1.3575439453125
1.5033691406249998
1.8715576171875
2.4999755859375
2.067333984375
1.8046875
1.6975341796874999
1.651611328125
1.6242187499999998
1.6137451171875
1.61455078125
1.542041015625
1.5799072265624998
1.571044921875
1.571044921875
1.5444580078124999
1.5347900390625
2.31064453125
2.2107421874999997
1.8546386718749999
1.8054931640624998
1.6830322265625
1.6008544921874999
1.4469726562499998
1.0127197265624999
0.9756591796874999
1.1110107421875
1.2495849609374998
1.3382080078124998
1.3527099609375
1.393798828125
1.3591552734374999
1.4123291015625
1.4719482421874999
1.49853515625
1.477587890625
1.4832275390624998
1.4783935546875
0.7146240234375
0.7178466796874999
1.1529052734375
1.2544189453124999
1.329345703125
1.496923828125
1.67900390625
2.454052734375
2.16884765625
1.8143554687499999
1.7136474609374999
1.74345703125
1.6403320312499998
1.6379150390625
1.6854492187499999
1.571044921875
1.4953124999999998
1.6161621093749998
1.5565429687499999
1.5726562499999999
1.5267333984375
1.6459716796875
2.4854736328125
1.912646484375
1.7797119140625
1.7442626953125
1.5750732421875
1.409912109375
1.1190673828125
0.9531005859374999
1.084423828125
1.2350830078125
1.3317626953125
1.3510986328124999
1.3543212890624998
1.4228027343749998
1.384130859375
1.4832275390624998
1.490478515625
1.477587890625
1.4953124999999998
1.4961181640624999
1.4042724609375
0.71220703125
1.1384033203125
1.2205810546875
1.3502929687499998
1.4219970703125
1.5412353515625
2.2888916015625
2.205908203125
1.91748046875
1.7539306640624999
1.67578125
1.6290527343749999
1.6701416015625
1.6306640625
1.6048828124999999
1.5541259765625
1.593603515625
1.5565429687499999
1.5492919921875
1.5476806640624998
1.5533203125
2.4838623046875
2.0085205078125
1.812744140625
1.732177734375
1.6773925781249999
1.4526123046875
0.984521484375
0.928125
1.01513671875
1.2157470703125
1.2745605468749999
1.3229003906249999
1.3631835937499999
1.397021484375
1.4381103515625
1.4155517578124999
1.4711425781249998
1.4953124999999998
1.5073974609374998
1.5162597656249999
1.429248046875
0.4519775390625
0.9885498046875
1.2495849609374998
1.332568359375
1.4115234374999999
1.5476806640624998
2.341259765625
2.273583984375
1.8892822265625
1.722509765625
1.6959228515625
1.585546875
1.64677734375
1.6121337890624998
1.62744140625
1.55009765625
1.5533203125
1.60166015625
1.5782958984375
1.5847412109374999
1.5484863281249999
2.410546875
1.989990234375
1.835302734375
1.8385253906249999
1.6733642578124999
1.5428466796875
1.1021484375
0.9329589843749999
1.0006347656249999
1.1835205078125
1.222998046875
1.3309570312499999
1.319677734375
1.4115234374999999
1.3672119140624999
1.4864501953125
1.4953124999999998
1.4542236328125
1.490478515625
1.496923828125
1.4977294921875
0.45358886718749997
0.9176513671875
1.1690185546875
1.3204833984375
1.3365966796875
1.464697265625
1.7047851562499998
2.3718749999999997
2.0713623046875
1.8264404296874999
1.7281494140625
1.8006591796875
1.66611328125
1.6218017578125
1.6137451171875
1.6121337890624998
1.5484863281249999
1.3994384765624999
1.5960205078124998
1.5718505859374998
1.5194824218749998
2.3195068359374997
2.21396484375
1.8377197265624998
1.740234375
1.7055908203124999
1.5645996093749999
1.1690185546875
1.00546875
0.9885498046875
1.1609619140625
1.2503906249999999
1.33740234375
1.2963134765625
1.3744628906249998
1.4332763671875
1.4332763671875
1.4542236328125
1.474365234375
1.4800048828124999
1.4920898437499999
1.5033691406249998
0.708984375
0.8846191406249999
1.19560546875
1.276171875
1.3285400390625
1.4429443359374998
1.69189453125
2.49755859375
2.067333984375
1.8683349609375
1.7362060546875
1.6685302734374998
1.6532226562499999
1.6411376953124999
1.6330810546874999
1.6306640625
1.55009765625
1.513037109375
1.5009521484375
1.5492919921875
1.5355957031249998
2.23974609375
2.2663330078125
1.8981445312499998
1.7926025390625
1.7281494140625
1.609716796875
1.3752685546874999
1.02802734375
0.95390625
1.12470703125
1.21494140625
1.2979248046874998
1.3124267578125
1.368017578125
1.4187744140624998
1.5436523437499998
1.41796875
1.4872558593749998
1.442138671875
1.4872558593749998
1.542041015625
0.7935791015625
0.6703125
1.1150390625
1.2560302734375
1.3744628906249998
1.4356933593749999
1.6878662109375
2.487890625
2.2002685546875
1.90458984375
1.69833984375
1.6588623046875
1.63388671875
1.611328125
1.6524169921874998
1.6298583984375
1.5525146484374999
1.58232421875
1.558154296875
1.545263671875
1.5863525390625
1.5186767578125
2.47177734375
1.9142578124999998
1.8304687499999999
1.7539306640624999
1.6008544921874999
1.445361328125
1.103759765625
0.93779296875
1.0570312499999999
1.2125244140625
1.3156494140625
1.3301513671874998
1.3881591796875
1.3929931640625
1.3792968749999999
1.4316650390624999
1.4888671875
1.4638916015624999
1.5138427734375
1.525927734375
1.4888671875
0.5986083984375
1.1126220703125
1.2705322265624999
1.2689208984375
1.4026611328124998
1.6121337890624998
2.24619140625
2.225244140625
1.9585693359374998
1.7877685546875
1.7136474609374999
1.6153564453125
1.6153564453125
1.6443603515624998
1.65966796875
1.6161621093749998
1.51787109375
1.574267578125
1.577490234375
1.5082031249999999
1.5347900390625
2.52978515625
2.00771484375
1.8377197265624998
1.867529296875
1.69833984375
1.546875
1.06025390625
0.9087890624999999
0.978076171875
1.123095703125
1.30517578125
1.4147460937499998
1.3510986328124999
1.3817138671875
1.3543212890624998
1.474365234375
1.4542236328125
1.4800048828124999
1.4945068359375
1.4759765624999999
1.4687255859375
0.42619628906249996
0.95068359375
1.2028564453125
1.2850341796875
1.3720458984375
1.53076171875
2.27197265625
2.384765625
2.0826416015625
1.7700439453124999
1.683837890625
1.654833984375
1.6048828124999999
1.6427490234375
1.6218017578125
1.558154296875
1.5396240234374998
1.5186767578125
1.5637939453124998
1.5992431640625
1.5686279296874999
2.3203125
2.038330078125
1.7990478515625
1.799853515625
1.6846435546874998
1.5476806640624998
1.1416259765624999
0.9933837890624999
0.9966064453125
1.134375
1.27294921875
1.3631835937499999
1.3422363281249998
1.3897705078125
1.3986328124999998
1.4228027343749998
1.5122314453124999
1.490478515625
1.4493896484375
1.4735595703125
1.4679199218749999
0.4600341796875
0.8926757812499999
1.1666015625
1.2495849609374998
1.3575439453125
1.4687255859375
1.7716552734375
2.4629150390625
2.0761962890625
1.8328857421875
1.7152587890625
1.6701416015625
1.64677734375
1.6169677734374999
1.674169921875
1.6532226562499999
1.5347900390625
1.5476806640624998
1.5678222656249998
1.5662109375
1.571044921875
2.2196044921875
2.2969482421875
1.9190917968749999
1.796630859375
1.6910888671875
1.6048828124999999
1.1996337890625
1.0143310546875
0.9474609374999999
1.1335693359374999
1.2785888671874999
1.3599609375
1.3220947265624998
1.329345703125
1.3744628906249998
1.4526123046875
1.4888671875
1.4783935546875
1.482421875
1.4373046875
1.4638916015624999
0.7903564453124999
0.6678955078125
1.2270263671875
1.268115234375
1.380908203125
1.4912841796874998
1.6443603515624998
2.4226318359375
2.209130859375
1.8635009765625
1.7200927734375
1.7015624999999999
1.6443603515624998
1.6201904296874998
1.6153564453125
1.6322753906249998
1.5001464843749999
1.5509033203125
1.5702392578125
1.5541259765625
1.5509033203125
1.546875
2.2872802734374997
1.9408447265625
1.7716552734375
1.8554443359375
1.60166015625
1.4518066406249999
1.0505859375
0.9176513671875
1.071533203125
1.1980224609374999
1.3083984375
1.319677734375
1.3237060546875
1.4316650390624999
1.46953125
1.47275390625
1.3672119140624999
1.5162597656249999
1.493701171875
1.5194824218749998
0.9047607421874999
0.6131103515624999
1.071533203125
1.235888671875
1.340625
1.4308593749999998
1.5782958984375
2.4999755859375
2.2486083984375
1.977099609375
1.7619873046874999
1.6653076171874999
1.6411376953124999
1.6411376953124999
1.5839355468749998
1.5919921874999998
1.5726562499999999
1.5404296874999999
1.5162597656249999
1.5597656249999998
1.5686279296874999
1.5138427734375
2.5096435546875
2.0181884765625
1.8578613281249998
1.7772949218749998
1.66611328125
1.442138671875
0.9998291015624999
0.9176513671875
1.0546142578125
1.2238037109375
1.2930908203125
1.3510986328124999
1.3639892578125
1.4155517578124999
1.3849365234375
1.4203857421875
1.4751708984374998
1.477587890625
1.4896728515625
1.4800048828124999
1.480810546875
0.45439453124999996
1.09892578125
1.26328125
1.287451171875
1.4590576171874998
1.5726562499999999
2.32998046875
2.4548583984375
1.9360107421875
1.780517578125
1.6886718749999998
1.6000488281249998
1.667724609375
1.5162597656249999
1.6250244140624999
1.5726562499999999
1.5605712890624999
1.5702392578125
1.585546875
1.474365234375
1.4638916015624999
2.4886962890624997
2.0439697265625
1.8264404296874999
1.8183837890624999
1.7096191406249999
1.506591796875
1.1287353515625
0.9869384765625
1.0078857421875
1.1456542968749999
1.2745605468749999
1.3591552734374999
1.319677734375
1.4284423828125
1.3954101562499999
1.4800048828124999
1.5057861328125
1.4800048828124999
1.5170654296875
1.4606689453125
1.4872558593749998
0.439892578125
0.9095947265625
1.2262207031249999
1.26005859375
1.335791015625
1.5412353515625
2.1229248046875
2.4000732421874997
2.0794189453125
1.815966796875
1.7337890624999999
1.6685302734374998
1.5863525390625
1.6411376953124999
1.6161621093749998
1.60166015625
1.5670166015625
1.5662109375
1.5267333984375
1.538818359375
1.554931640625
2.2437744140625
2.238134765625
1.8659179687499998
1.767626953125
1.667724609375
1.5678222656249998
1.135986328125
1.013525390625
0.952294921875
1.1545166015625
1.2938964843749998
1.426025390625
1.2544189453124999
1.384130859375
1.393798828125
1.42119140625
1.4977294921875
1.5347900390625
1.496923828125
1.4800048828124999
1.4469726562499998
0.694482421875
0.8523925781249999
1.135986328125
1.2544189453124999
1.4219970703125
1.5202880859374999
1.7015624999999999
2.570068359375
2.1543457031249997
1.893310546875
1.7394287109375
1.6483886718749998
1.6314697265625
1.5734619140625
1.62744140625
1.6234130859375
1.5670166015625
1.5428466796875
1.5597656249999998
1.5243164062499999
1.5194824218749998
2.1205078125
2.2937255859375
1.928759765625
1.791796875
1.6636962890625
1.5968261718749999
1.4558349609374999
0.9732421874999999
0.897509765625
1.1045654296875
1.2850341796875
1.332568359375
1.31162109375
1.4058837890625
1.3857421875
1.456640625
1.4622802734375
1.5170654296875
1.4953124999999998
1.4622802734375
1.4679199218749999
0.9144287109375
0.631640625
1.0973144531249999
1.2503906249999999
1.3664062499999998
1.4469726562499998
1.740234375
2.5080322265625
2.263916015625
1.8876708984375
1.732177734375
1.6403320312499998
1.5847412109374999
1.611328125
1.6306640625
1.6475830078125
1.5057861328125
1.51787109375
1.4880615234374999
1.5791015625
1.5654052734375
1.6403320312499998
2.5595947265624996
1.896533203125
1.7901855468749999
1.7531249999999998
1.6209960937499999
1.4389160156249998
1.055419921875
0.9249023437499999
1.0546142578125
1.2665039062499999
1.2705322265624999
1.3067871093749999
1.319677734375
1.35673828125
1.525927734375
1.4840332031249999
1.5025634765625
1.5033691406249998
1.4598632812499999
1.4759765624999999
1.49853515625
0.565576171875
1.0803955078125
1.2374999999999998
1.335791015625
1.45341796875
1.5186767578125
2.4661376953125
2.3501220703125
2.002880859375
1.8071044921875
1.66611328125
1.62744140625
1.6395263671875
1.6306640625
1.6282470703124998
1.590380859375
1.5565429687499999
1.5041748046874999
1.513037109375
1.5041748046874999
1.513037109375
2.5845703125
2.0729736328125
1.819189453125
1.79501953125
1.9601806640625
1.6604736328124998
1.1367919921875
0.8604492187499999
0.9450439453124999
1.1674072265625
1.2479736328125
1.2721435546875
1.3664062499999998
1.3857421875
1.3575439453125
1.3873535156249999
1.5202880859374999
1.5831298828125
1.4461669921875
1.4228027343749998
1.4195800781249999
0.26748046875
1.0014404296875
1.087646484375
1.2987304687499999
1.3583496093749998
1.577490234375
2.34287109375
2.5467041015625
2.0504150390625
1.716064453125
1.7080078125
1.6540283203125
1.585546875
1.5637939453124998
1.5597656249999998
1.5315673828124998
1.5090087890625
1.4622802734375
1.538818359375
1.5444580078124999
1.5533203125
2.6876953125
2.215576171875
1.8417480468749998
1.82724609375
1.6773925781249999
1.47275390625
1.1206787109375
0.8193603515625
0.7903564453124999
1.018359375
1.2383056640624999
1.3140380859374998
1.2858398437499998
1.353515625
1.400244140625
1.4920898437499999
1.525927734375
1.5323730468749999
1.525927734375
1.5364013671874999
1.522705078125
0.217529296875
0.671923828125
1.1126220703125
1.2785888671874999
1.3470703124999999
1.558154296875
2.3396484374999997
2.63935546875
2.257470703125
1.9384277343749998
1.7329833984374998
1.6451660156249999
1.658056640625
1.5782958984375
1.6669189453125
1.6645019531249998
1.5186767578125
1.5565429687499999
1.558154296875
1.5017578125
1.5090087890625
2.3952392578125
2.473388671875
1.8586669921874999
1.8224121093749999
1.6508056640625
1.5073974609374998
1.0562255859375
0.9232910156249999
0.7621582031249999
1.0401123046875
1.1931884765625
1.2850341796875
1.181103515625
1.3688232421875
1.4655029296875
1.5001464843749999
1.506591796875
1.538818359375
1.5162597656249999
1.4542236328125
1.482421875
0.7476562499999999
0.6751464843749999
1.084423828125
1.2366943359375
1.3543212890624998
1.5299560546875
1.7080078125
2.744091796875
2.3646240234375
1.92392578125
1.7732666015624998
1.651611328125
1.5525146484374999
1.5887695312499999
1.6218017578125
1.545263671875
1.5404296874999999
1.5315673828124998
1.5194824218749998
1.490478515625
1.5323730468749999
2.07861328125
2.5845703125
2.0020751953125
1.8409423828125
1.6169677734374999
1.5299560546875
1.3905761718749998
0.8548095703124999
0.71865234375
0.91845703125
1.2101074218749999
1.2673095703125
1.377685546875
1.416357421875
1.4300537109375
1.4493896484375
1.4501953125
1.4526123046875
1.5017578125
1.5202880859374999
1.5597656249999998
0.752490234375
0.2972900390625
0.9345703125
1.2374999999999998
1.4348876953124998
1.43408203125
1.8280517578125
2.9414794921875
2.487890625
1.8981445312499998
1.7740722656249999
1.5799072265624998
1.587158203125
1.6153564453125
1.60166015625
1.6435546875
1.6169677734374999
1.585546875
1.6129394531249999
1.5686279296874999
1.5670166015625
1.5396240234374998
2.8311035156249997
2.080224609375
1.851416015625
1.7861572265624999
1.6121337890624998
1.4574462890625
1.0650878906249999
0.8290283203125
0.9837158203124999
1.181103515625
1.2785888671874999
1.319677734375
1.3752685546874999
1.4316650390624999
1.40830078125
1.4123291015625
1.5114257812499998
1.490478515625
1.5799072265624998
1.4880615234374999
1.5315673828124998
0.1168212890625
0.8910644531249999
1.287451171875
1.3591552734374999
1.506591796875
1.6572509765624999
2.947119140625
2.8528564453125
2.2808349609375
1.9142578124999998
1.72734375
1.6411376953124999
1.6846435546874998
1.690283203125
1.8546386718749999
1.509814453125
1.8361083984375
3.0010986328125
2.9978759765625
2.9978759765625
2.995458984375
2.9994873046875
2.9986816406249996
2.9994873046875
2.9970703125
2.9962646484374997
2.8794433593749997
2.9986816406249996
2.9986816406249996
2.334814453125
1.6669189453125
1.3108154296874999
0.878173828125
0.36899414062499997
0.2505615234375
0.075732421875
0.4680908203125
0.46970214843749997
0.562353515625
0.7694091796875
0.43425292968749996
1.0530029296874999
0.0322265625
0.02900390625
0.0314208984375
0.0314208984375
0.0322265625
0.4713134765625
2.437939453125
2.9962646484374997
2.9946533203124996
2.9978759765625
3.0002929687499997
2.969677734375
2.9994873046875
2.8689697265625
2.7730957031249996
2.4766113281249997
2.16884765625
1.9142578124999998
1.6781982421875
1.4751708984374998
1.3188720703124999
2.9970703125
2.9986816406249996
3.003515625
3.0002929687499997
2.9994873046875
2.9986816406249996
1.6967285156249998
0.159521484375
0.033032226562499996
0.033032226562499996
0.0322265625
0.0322265625
0.0322265625
0.03544921875
0.0281982421875
0.25620117187499997
0.37302246093749997
0.5389892578125
0.6695068359374999
0.78310546875
0.9112060546874999
0.033837890625
0.033032226562499996
0.0322265625
0.0362548828125
0.02900390625
0.1248779296875
0.8282226562499999
2.9986816406249996
2.9986816406249996
3.0002929687499997
2.9970703125
2.9986816406249996
2.940673828125
2.91328125
2.9986816406249996
2.972900390625
2.487890625
2.4322998046874997
2.1301757812499997
1.948095703125
1.8111328125
2.9962646484374997
2.9962646484374997
3.001904296875
3.0027099609374996
2.9994873046875
2.9986816406249996
2.70380859375
0.230419921875
0.03544921875
0.0322265625
0.0322265625
0.037060546874999996
0.0362548828125
0.033837890625
0.030615234374999998
0.17724609375
0.31743164062499996
0.5551025390625
0.775048828125
1.0417236328125
1.1255126953124999
0.033032226562499996
0.0314208984375
0.0322265625
0.02900390625
0.0322265625
0.030615234374999998
0.3714111328125
2.9994873046875
3.001904296875
2.9986816406249996
2.9986816406249996
2.9970703125
2.995458984375
3.0002929687499997
3.0002929687499997
3.0002929687499997
2.784375
2.4838623046875
2.3138671875
2.1624023437499997
1.8747802734374999
1.5815185546875
3.0002929687499997
3.0002929687499997
3.003515625
3.0002929687499997
2.9978759765625
2.76826171875
0.9901611328125
0.02900390625
0.0322265625
0.02900390625
0.033032226562499996
0.0314208984375
0.0281982421875
0.3472412109375
0.037060546874999996
0.24169921875
0.294873046875
0.40122070312499997
0.5422119140625
0.0314208984375
0.6243896484375
0.0322265625
0.0362548828125
0.0322265625
0.0322265625
0.033032226562499996
0.0322265625
2.4556640625
2.9986816406249996
2.9986816406249996
2.9994873046875
2.9978759765625
3.0002929687499997
3.0002929687499997
2.9986816406249996
2.9986816406249996
2.92294921875
2.7102539062499997
2.4983642578125
2.302587890625
2.1567626953125
2.064111328125
2.9986816406249996
2.9970703125
3.0002929687499997
2.995458984375
2.9986816406249996
3.0002929687499997
1.7313720703125
0.0322265625
0.02900390625
0.0322265625
0.0378662109375
0.033032226562499996
0.03544921875
0.0322265625
0.033032226562499996
0.0539794921875
0.40202636718749996
0.636474609375
0.8064697265624999
1.1061767578125
1.2302490234374999
0.0322265625
0.0362548828125
0.033032226562499996
0.0322265625
0.033032226562499996
0.050756835937499994
0.9087890624999999
2.9978759765625
2.9962646484374997
2.9986816406249996
2.9970703125
2.9986816406249996
2.9978759765625
2.9986816406249996
3.0002929687499997
2.9986816406249996
2.7481201171875
2.824658203125
2.4427734375
2.2913085937499997
2.0488037109375
3.0027099609374996
3.0010986328125
3.0010986328125
2.9986816406249996
3.001904296875
3.0002929687499997
2.21396484375
0.18852539062499998
0.033032226562499996
0.0314208984375
0.027392578124999997
0.033032226562499996
0.0298095703125
0.0346435546875
0.0281982421875
0.0346435546875
0.23283691406249998
0.49870605468749996
0.74443359375
0.9531005859374999
1.2286376953125
0.0322265625
0.033837890625
0.0362548828125
0.033837890625
0.030615234374999998
0.0281982421875
0.630029296875
2.9978759765625
2.9986816406249996
3.001904296875
2.9978759765625
2.9986816406249996
2.9986816406249996
3.001904296875
2.9986816406249996
2.9978759765625
2.7521484375
2.6143798828125
2.47822265625
2.3291748046875
2.1809326171875
1.9859619140625
2.9978759765625
2.9994873046875
2.9986816406249996
2.9970703125
3.0010986328125
2.843994140625
1.15048828125
0.033032226562499996
0.033032226562499996
0.0322265625
0.030615234374999998
0.033032226562499996
0.0281982421875
0.02900390625
0.0322265625
0.27231445312499997
0.37705078124999997
0.5148193359375
0.7694091796875
0.9966064453125
1.480810546875
0.0314208984375
0.033032226562499996
0.03544921875
0.0314208984375
0.026586914062499998
0.136962890625
2.7948486328124997
3.001904296875
2.9986816406249996
2.9978759765625
2.9986816406249996
2.9720947265624997
2.9978759765625
2.9978759765625
2.9970703125
2.9986816406249996
2.8721923828125
2.69736328125
2.5450927734374997
2.4766113281249997
2.344482421875
2.9986816406249996
2.9986816406249996
2.9978759765625
2.9970703125
3.0027099609374996
3.0010986328125
1.2568359375
0.0322265625
0.0322265625
0.0346435546875
0.033032226562499996
0.0314208984375
0.030615234374999998
0.030615234374999998
0.030615234374999998
0.16838378906249998
0.40524902343749997
0.639697265625
0.8427246093749999
0.8693115234375
1.1053710937499999
0.0346435546875
0.0322265625
0.0314208984375
0.0362548828125
0.0346435546875
0.0314208984375
2.663525390625
2.9978759765625
2.9986816406249996
2.9970703125
2.9986816406249996
2.9994873046875
2.9970703125
2.9970703125
2.9986816406249996
2.9986816406249996
2.8818603515624996
2.7964599609375
2.7086425781249996
2.6176025390624997
2.4161865234374997
2.9946533203124996
2.9986816406249996
3.0002929687499997
2.9970703125
2.9978759765625
2.9994873046875
2.34609375
0.46647949218749996
0.0322265625
0.0346435546875
0.030615234374999998
0.033032226562499996
0.0322265625
0.0298095703125
0.033032226562499996
0.0322265625
0.1941650390625
0.4036376953125
0.5615478515625
0.7194580078124999
0.90556640625
0.03544921875
0.033032226562499996
0.0322265625
0.0314208984375
0.033032226562499996
0.0322265625
0.6630615234374999
2.99384765625
2.9986816406249996
2.9994873046875
2.9978759765625
2.995458984375
3.0027099609374996
3.0091552734375
2.9978759765625
2.9970703125
2.8770263671875
2.7328124999999996
2.56201171875
2.2913085937499997
2.1358154296875
2.0737792968749997
2.9978759765625
3.0010986328125
2.9978759765625
3.0002929687499997
2.9978759765625
2.843994140625
1.069921875
0.033032226562499996
0.0322265625
0.0346435546875
0.0322265625
0.0346435546875
0.0322265625
0.0314208984375
0.033032226562499996
0.103125
0.2586181640625
0.4278076171875
0.5389892578125
0.807275390625
0.8403076171874999
0.0314208984375
0.0322265625
0.02900390625
0.0298095703125
0.033032226562499996
0.2827880859375
2.7690673828124996
3.0002929687499997
2.9970703125
2.9978759765625
2.9978759765625
2.9970703125
2.9986816406249996
2.9978759765625
2.9986816406249996
2.9978759765625
2.771484375
2.5201171875
2.7247558593749996
2.1632080078125
2.1277587890625
2.9986816406249996
3.0002929687499997
2.9970703125
2.9994873046875
2.9994873046875
2.9970703125
1.4518066406249999
0.02900390625
0.0314208984375
0.0281982421875
0.0322265625
0.03544921875
0.0346435546875
0.0314208984375
0.02900390625
0.040283203125
0.3802734375
0.5148193359375
0.7234863281249999
0.9031494140624999
1.0787841796875
0.0322265625
0.0362548828125
0.0322265625
0.02900390625
0.033837890625
0.0322265625
2.872998046875
3.0002929687499997
2.9986816406249996
3.0010986328125
2.9986816406249996
2.995458984375
2.9994873046875
3.0002929687499997
2.9970703125
2.9986816406249996
2.8383544921875
2.7545654296874997
2.6522460937499996
2.4242431640624997
2.292919921875
2.9970703125
2.9962646484374997
2.9978759765625
2.9970703125
3.0010986328125
2.995458984375
2.0173828124999997
0.2296142578125
0.033032226562499996
0.0322265625
0.030615234374999998
0.030615234374999998
0.0322265625
0.0314208984375
0.0281982421875
0.0281982421875
0.18852539062499998
0.4568115234375
0.6920654296875
0.7629638671875
0.9369873046874999
0.030615234374999998
0.0346435546875
0.0322265625
0.033032226562499996
0.0314208984375
0.0322265625
1.0111083984375
2.995458984375
2.995458984375
3.0002929687499997
2.9946533203124996
2.9978759765625
2.99384765625
2.9986816406249996
2.9986816406249996
2.9962646484374997
2.892333984375
2.7803466796875
2.5716796874999996
2.4363281249999997
2.325146484375
3.0010986328125
2.9978759765625
3.001904296875
2.9986816406249996
2.9978759765625
3.0002929687499997
2.7948486328124997
0.33837890625
0.0322265625
0.0298095703125
0.0314208984375
0.0346435546875
0.033032226562499996
0.0298095703125
0.033032226562499996
0.030615234374999998
0.111181640625
0.1506591796875
0.362548828125
0.4318359375
0.52529296875
0.0298095703125
0.033032226562499996
0.0322265625
0.0281982421875
0.0322265625
0.0322265625
0.2263916015625
2.9986816406249996
2.9986816406249996
2.9978759765625
2.9978759765625
2.9986816406249996
2.9986816406249996
2.9978759765625
2.9962646484374997
2.9970703125
2.9753173828125
2.8294921874999996
2.763427734375
2.63291015625
2.4322998046874997
2.2921142578125
2.9978759765625
3.0027099609374996
3.0010986328125
3.0002929687499997
3.0002929687499997
2.9624267578124996
1.2616699218749998
0.0362548828125
0.030615234374999998
0.0314208984375
0.0362548828125
0.03544921875
0.033837890625
0.0314208984375
0.033837890625
0.0040283203125
0.2537841796875
0.394775390625
0.6340576171875
0.7468505859375
0.8040527343749999
0.033032226562499996
0.033032226562499996
0.0314208984375
0.0314208984375
0.0322265625
0.0797607421875
2.9962646484374997
3.0002929687499997
2.9978759765625
2.9970703125
2.9986816406249996
2.9986816406249996
2.9986816406249996
2.9986816406249996
2.9970703125
2.956787109375
2.856884765625
2.840771484375
2.6466064453125
2.534619140625
2.376708984375
2.9978759765625
2.9978759765625
2.9978759765625
3.0002929687499997
2.9962646484374997
3.003515625
1.5984375
0.0322265625
0.033032226562499996
0.030615234374999998
0.0322265625
0.0314208984375
0.0322265625
0.0322265625
0.033032226562499996
0.02900390625
0.0749267578125
0.34482421874999997
0.5760498046875
0.68642578125
0.7073730468749999
0.033032226562499996
0.02900390625
0.0322265625
0.033032226562499996
0.027392578124999997
0.0322265625
1.6967285156249998
2.9978759765625
2.9946533203124996
2.9970703125
3.0010986328125
2.9970703125
3.0027099609374996
2.9978759765625
2.9986816406249996
2.9994873046875
2.9350341796875
2.8294921874999996
2.7255615234375
2.6361328124999996
2.4854736328125
2.9970703125
2.9986816406249996
3.001904296875
2.9946533203124996
2.9986816406249996
2.9986816406249996
1.8054931640624998
0.15146484375
0.033032226562499996
0.0322265625
0.0314208984375
0.03544921875
0.0322265625
0.0322265625
0.0362548828125
0.0322265625
0.20705566406249998
0.36416015625
0.4406982421875
0.543017578125
0.7782714843749999
0.0346435546875
0.0322265625
0.0322265625
0.0322265625
0.030615234374999998
0.0322265625
0.871728515625
2.9986816406249996
2.995458984375
3.001904296875
2.9986816406249996
2.9994873046875
2.9946533203124996
2.995458984375
2.9946533203124996
2.9986816406249996
2.9156982421874997
2.776318359375
2.7416748046875
2.618408203125
2.98740234375
2.963232421875
2.9970703125
2.995458984375
2.9986816406249996
3.0010986328125
2.9978759765625
2.876220703125
1.1384033203125
0.033837890625
0.0314208984375
0.0322265625
0.0314208984375
0.030615234374999998
0.02900390625
0.0322265625
0.0322265625
0.1941650390625
0.38510742187499997
0.5148193359375
0.72509765625
0.8499755859375
0.359326171875
0.0346435546875
0.02900390625
0.0322265625
0.033032226562499996
0.0322265625
0.2586181640625
2.9986816406249996
2.9970703125
2.9978759765625
2.9922363281249997
2.9970703125
2.9970703125
2.9946533203124996
3.0002929687499997
2.9962646484374997
2.9390625
2.8077392578125
2.7819580078125
2.6925292968749996
2.5177001953125
2.36220703125
2.9970703125
2.9962646484374997
2.9978759765625
2.9994873046875
2.9986816406249996
2.9986816406249996
1.670947265625
0.033837890625
0.02900390625
0.0314208984375
0.0314208984375
0.02900390625
0.0346435546875
0.0322265625
0.03544921875
0.0322265625
0.0749267578125
0.3359619140625
0.6260009765625
0.7275146484374999
0.768603515625
0.033032226562499996
0.0281982421875
0.03544921875
0.0322265625
0.0322265625
0.0322265625
1.56298828125
2.9970703125
2.9986816406249996
2.9970703125
2.9994873046875
2.9970703125
2.9978759765625
3.0002929687499997
3.0002929687499997
2.9285888671875
2.9970703125
2.9253662109375
2.7730957031249996
2.642578125
2.4451904296875
3.0002929687499997
2.9978759765625
2.9986816406249996
2.9978759765625
2.9970703125
2.995458984375
1.851416015625
0.159521484375
0.033032226562499996
0.0314208984375
0.030615234374999998
0.030615234374999998
0.030615234374999998
0.0346435546875
0.0314208984375
0.0298095703125
0.146630859375
0.21511230468749998
0.35690917968749997
0.5083740234374999
0.72509765625
0.033032226562499996
0.030615234374999998
0.033032226562499996
0.02900390625
0.0314208984375
0.0298095703125
0.8588378906249999
2.995458984375
2.995458984375
2.9978759765625
2.9970703125
2.9970703125
2.9962646484374997
2.9978759765625
2.9978759765625
2.995458984375
2.8834716796874997
2.8423828125
2.7908203124999997
2.6723876953124996
2.550732421875
3.0002929687499997
2.9978759765625
2.99384765625
2.995458984375
2.9978759765625
2.9978759765625
2.9970703125
1.2544189453124999
0.03544921875
0.0322265625
0.033032226562499996
0.0346435546875
0.0322265625
0.0322265625
0.030615234374999998
0.0314208984375
0.040283203125
0.2715087890625
0.4326416015625
0.46083984375
0.6832031249999999
0.0322265625
0.033032226562499996
0.0314208984375
0.0322265625
0.030615234374999998
0.0281982421875
0.322265625
2.9962646484374997
2.9970703125
3.0002929687499997
2.9946533203124996
2.9978759765625
2.9994873046875
2.9970703125
2.995458984375
2.9994873046875
2.9986816406249996
2.9326171875
2.995458984375
2.985791015625
2.8214355468749996
2.6885009765624996
2.9978759765625
2.9978759765625
3.0002929687499997
2.9970703125
2.9978759765625
2.9962646484374997
1.5057861328125
0.0314208984375
0.0298095703125
0.033837890625
0.0322265625
0.0314208984375
0.0322265625
0.033837890625
0.0322265625
0.0314208984375
0.03544921875
0.17885742187499998
0.4004150390625
0.581689453125
0.16032714843749998
0.027392578124999997
0.0322265625
0.0298095703125
0.0322265625
0.0322265625
0.0314208984375
2.9946533203124996
2.9962646484374997
2.9970703125
2.99384765625
2.9986816406249996
3.003515625
2.9978759765625
2.9978759765625
2.9930419921875
2.995458984375
2.9962646484374997
2.905224609375
2.8576904296874996
2.8302978515625
2.8061279296875
3.0002929687499997
2.9986816406249996
2.9970703125
2.9970703125
2.9970703125
2.9978759765625
2.360595703125
0.8564208984374999
0.0314208984375
0.0298095703125
0.0314208984375
0.0322265625
0.03544921875
0.0322265625
0.033837890625
0.0281982421875
0.0990966796875
0.1780517578125
0.30937499999999996
0.475341796875
0.578466796875
0.0298095703125
0.0314208984375
0.02900390625
0.033032226562499996
0.0322265625
0.0322265625
0.928125
2.9978759765625
2.9978759765625
3.0002929687499997
2.9962646484374997
2.9978759765625
2.9986816406249996
2.9946533203124996
2.9986816406249996
2.995458984375
3.0043212890624997
2.9986816406249996
2.9962646484374997
2.9994873046875
2.8931396484375
2.9994873046875
2.9978759765625
2.9986816406249996
2.99384765625
2.9970703125
2.9986816406249996
2.9970703125
1.7821289062499999
0.0314208984375
0.0322265625
0.0322265625
0.033032226562499996
0.0314208984375
0.027392578124999997
0.0322265625
0.0322265625
0.054785156249999994
0.0765380859375
0.2038330078125
0.2972900390625
0.4310302734375
0.03544921875
0.030615234374999998
0.0322265625
0.033032226562499996
0.0322265625
0.0314208984375
0.0322265625
2.9978759765625
2.995458984375
2.995458984375
2.99384765625
2.9970703125
2.9978759765625
3.0010986328125
3.0010986328125
2.9978759765625
2.9986816406249996
2.9970703125
2.9970703125
2.9519531249999997
2.8141845703125
2.9962646484374997
2.9970703125
2.9994873046875
3.0002929687499997
2.9994873046875
2.9970703125
2.9978759765625
1.819189453125
0.033837890625
0.0322265625
0.0322265625
0.0322265625
0.0314208984375
0.033837890625
0.027392578124999997
0.0314208984375
0.02900390625
0.053173828124999996
0.09829101562499999
0.19658203124999998
0.3440185546875
0.0314208984375
0.0314208984375
0.03544921875
0.0314208984375
0.0281982421875
0.0322265625
0.0346435546875
2.9986816406249996
2.9946533203124996
2.9986816406249996
2.9986816406249996
2.9994873046875
2.9986816406249996
2.9994873046875
2.9970703125
2.9970703125
2.9978759765625
2.9519531249999997
2.785986328125
2.80048828125
2.68125
2.6748046875
2.9986816406249996
2.995458984375
2.9962646484374997
2.9986816406249996
2.9978759765625
2.9986816406249996
2.4210205078125
1.2189697265625
0.0322265625
0.0322265625
0.02900390625
0.0314208984375
0.0322265625
0.030615234374999998
0.0298095703125
0.0281982421875
0.06606445312499999
0.0878173828125
0.23525390624999998
0.33273925781249997
0.388330078125
0.02900390625
0.0314208984375
0.0314208984375
0.0322265625
0.030615234374999998
0.0322265625
1.4469726562499998
2.9978759765625
2.9986816406249996
2.9978759765625
2.9986816406249996
2.9978759765625
3.0027099609374996
2.99384765625
3.0002929687499997
2.9978759765625
2.9978759765625
2.9986816406249996
3.0002929687499997
2.9833740234375
2.9342285156249996
2.9962646484374997
2.9986816406249996
2.9994873046875
2.9970703125
2.9970703125
2.99384765625
2.9978759765625
1.5009521484375
0.030615234374999998
0.0314208984375
0.033837890625
0.0281982421875
0.030615234374999998
0.030615234374999998
0.0346435546875
0.030615234374999998
0.0314208984375
0.033837890625
0.0765380859375
0.20705566406249998
0.3907470703125
0.02900390625
0.0322265625
0.0322265625
0.0322265625
0.0314208984375
0.0322265625
0.0322265625
3.001904296875
2.995458984375
2.9978759765625
2.99384765625
2.9986816406249996
2.9970703125
2.995458984375
2.9986816406249996
2.9978759765625
2.9986816406249996
2.9970703125
2.9350341796875
2.9181152343749996
2.8238525390625
2.9986816406249996
2.9970703125
2.9978759765625
2.9986816406249996
2.9970703125
3.0002929687499997
2.9978759765625
1.864306640625
0.1490478515625
0.03544921875
0.0314208984375
0.0322265625
0.0314208984375
0.0314208984375
0.0322265625
0.02900390625
0.0346435546875
0.0322265625
0.07734374999999999
0.0314208984375
0.1297119140625
0.0362548828125
0.0314208984375
0.030615234374999998
0.03544921875
0.033837890625
0.033032226562499996
0.03544921875
2.9583984374999996
2.9986816406249996
2.9978759765625
2.9986816406249996
2.995458984375
2.9986816406249996
2.9978759765625
2.9986816406249996
2.9978759765625
2.9994873046875
2.9978759765625
2.9986816406249996
2.9559814453124997
2.8899169921874996
2.7344238281249997
2.9986816406249996
3.0002929687499997
3.0010986328125
3.0002929687499997
2.9986816406249996
2.9986816406249996
2.5305908203125
1.094091796875
0.033032226562499996
0.0281982421875
0.0314208984375
0.0346435546875
0.033032226562499996
0.0314208984375
0.0346435546875
0.0298095703125
0.033032226562499996
0.0362548828125
0.11359863281249999
0.24733886718749998
0.191748046875
0.0314208984375
0.02900390625
0.033032226562499996
0.03544921875
0.030615234374999998
0.0281982421875
1.6072998046875
2.9978759765625
2.9986816406249996
2.9962646484374997
2.9970703125
2.9970703125
2.9970703125
2.9986816406249996
2.9994873046875
2.9978759765625
2.9986816406249996
2.9994873046875
2.995458984375
2.9986816406249996
2.9028076171875
2.9986816406249996
2.9986816406249996
2.9970703125
2.9978759765625
2.9986816406249996
2.9978759765625
2.9994873046875
0.833056640625
0.0314208984375
0.02900390625
0.0314208984375
0.0314208984375
0.0314208984375
0.033837890625
0.0322265625
0.0322265625
0.0298095703125
0.08217773437499999
0.1168212890625
0.14501953125
0.136962890625
0.033032226562499996
0.0322265625
0.030615234374999998
0.0322265625
0.030615234374999998
0.0346435546875
0.033032226562499996
2.9978759765625
2.99384765625
2.9970703125
3.0002929687499997
2.9986816406249996
2.9986816406249996
3.0002929687499997
3.0010986328125
2.9946533203124996
3.001904296875
2.995458984375
2.8496337890624996
2.8899169921874996
2.8552734374999997
2.9970703125
2.9978759765625
2.9970703125
3.0002929687499997
2.9946533203124996
2.9986816406249996
3.0002929687499997
1.7700439453124999
0.1119873046875
0.033032226562499996
0.02900390625
0.0314208984375
0.03544921875
0.03544921875
0.0314208984375
0.03544921875
0.0281982421875
0.0990966796875
0.104736328125
0.09748535156249999
0.2513671875
0.02900390625
0.033032226562499996
0.0322265625
0.03544921875
0.0322265625
0.0298095703125
0.027392578124999997
2.9970703125
2.99384765625
2.9978759765625
2.9970703125
2.995458984375
2.9978759765625
2.9978759765625
3.0002929687499997
2.9986816406249996
2.995458984375
2.9970703125
2.995458984375
2.9970703125
2.9060302734374996
2.737646484375
2.9962646484374997
2.9978759765625
2.9986816406249996
2.9970703125
2.9986816406249996
2.9970703125
2.27197265625
0.033837890625
0.0314208984375
0.0314208984375
0.0322265625
0.0322265625
0.030615234374999998
0.0314208984375
0.0362548828125
0.0314208984375
0.08217773437499999
0.030615234374999998
0.10231933593749999
0.1611328125
0.24169921875
0.0322265625
0.0322265625
0.0322265625
0.0346435546875
0.033837890625
0.0298095703125
1.8941162109374998
2.9970703125
2.9986816406249996
2.9946533203124996
2.9986816406249996
2.9970703125
2.9978759765625
2.9986816406249996
2.9970703125
2.99384765625
2.9986816406249996
2.9994873046875
2.8979736328124996
2.860107421875
2.7408691406249996
2.9970703125
2.9970703125
2.9986816406249996
2.9970703125
2.9978759765625
2.9986816406249996
2.1342041015624997
0.43425292968749996
0.0314208984375
0.033837890625
0.0314208984375
0.0314208984375
0.0314208984375
0.030615234374999998
0.033032226562499996
0.0322265625
0.03544921875
0.04189453125
0.2022216796875
0.2618408203125
0.339990234375
0.0346435546875
0.030615234374999998
0.030615234374999998
0.0298095703125
0.0281982421875
0.02900390625
2.093115234375
2.9970703125
2.9978759765625
2.9986816406249996
2.9978759765625
2.9978759765625
2.9978759765625
2.9994873046875
2.9994873046875
2.9970703125
2.9978759765625
2.9946533203124996
2.9970703125
2.9100585937499996
2.86494140625
2.9986816406249996
2.9970703125
2.9986816406249996
2.9986816406249996
2.9970703125
2.9970703125
2.5241455078125
0.9716308593749999
0.03544921875
0.02900390625
0.033837890625
0.0314208984375
0.0314208984375
0.0322265625
0.0314208984375
0.0322265625
0.0298095703125
0.0314208984375
0.0322265625
0.136962890625
0.14824218749999998
0.02900390625
0.0314208984375
0.030615234374999998
0.0322265625
0.0298095703125
0.0322265625
0.0322265625
2.9978759765625
2.9970703125
2.9962646484374997
2.9994873046875
2.9978759765625
2.9970703125
2.9978759765625
2.995458984375
2.9986816406249996
2.6111572265625
2.338037109375
2.083447265625
1.751513671875
1.4679199218749999
1.4010498046875
3.0010986328125
2.9970703125
2.9946533203124996
2.9970703125
2.995458984375
2.6981689453124997
0.9289306640624999
0.0314208984375
0.0322265625
0.0322265625
0.030615234374999998
0.033032226562499996
0.0322265625
0.0314208984375
0.026586914062499998
0.3359619140625
0.2505615234375
0.356103515625
0.47856445312499996
0.6010253906249999
0.7581298828124999
0.03544921875
0.0362548828125
0.02900390625
0.033032226562499996
0.033837890625
0.075732421875
2.9962646484374997
2.9978759765625
2.9970703125
2.9978759765625
2.9986816406249996
2.9970703125
2.9970703125
2.9922363281249997
2.9978759765625
2.9978759765625
2.9197265624999997
2.8536621093749996
2.745703125
2.52978515625
2.3525390625
2.9994873046875
2.9978759765625
2.995458984375
2.9978759765625
2.995458984375
2.9970703125
1.1964111328125
0.0322265625
0.0346435546875
0.033032226562499996
0.0322265625
0.0314208984375
0.0298095703125
0.0322265625
0.03544921875
0.1168212890625
0.43505859375
0.655810546875
0.90234375
1.126318359375
1.3229003906249999
0.02900390625
0.030615234374999998
0.0322265625
0.0314208984375
0.0281982421875
0.057202148437499996
2.9970703125
3.0010986328125
2.9946533203124996
2.9970703125
2.9978759765625
2.9978759765625
2.99384765625
2.9946533203124996
2.995458984375
3.0010986328125
2.947119140625
2.8617187499999996
2.7497314453125
2.76181640625
2.4725830078124997
2.9946533203124996
2.99384765625
2.9986816406249996
2.9970703125
2.9946533203124996
2.9970703125
1.7265380859375
0.12165527343749999
0.0314208984375
0.0314208984375
0.0314208984375
0.030615234374999998
0.03544921875
0.0346435546875
0.03544921875
0.0314208984375
0.21591796875
0.298095703125
0.475341796875
0.62197265625
0.7758544921874999
0.0314208984375
0.0314208984375
0.0314208984375
0.0314208984375
0.0314208984375
0.0314208984375
0.8668945312499999
2.99384765625
2.995458984375
2.9978759765625
2.9970703125
2.9986816406249996
2.9946533203124996
2.99384765625
2.9978759765625
2.9986816406249996
2.8705810546875
2.6699707031249997
2.358984375
2.2034912109375
2.0947265625
2.9986816406249996
3.001904296875
2.9978759765625
2.9946533203124996
2.9986816406249996
2.9978759765625
2.5773193359374997
0.0322265625
0.0314208984375
0.03544921875
0.0314208984375
0.030615234374999998
0.0314208984375
0.0346435546875
0.0314208984375
0.030615234374999998
0.0475341796875
0.0443115234375
0.20463867187499998
0.28037109374999997
0.3746337890625
0.0322265625
0.0314208984375
0.033837890625
0.027392578124999997
0.0314208984375
0.027392578124999997
0.217529296875
2.995458984375
3.0010986328125
2.9986816406249996
2.9970703125
3.0010986328125
2.99384765625
2.99384765625
2.83271484375
2.99384765625
2.9970703125
2.8899169921874996
2.802099609375
2.5821533203125
2.2631103515624997
2.1712646484375
3.0002929687499997
3.0002929687499997
2.9970703125
2.9978759765625
2.9986816406249996
2.4749999999999996
0.6114990234375
0.0322265625
0.0314208984375
0.0322265625
0.0298095703125
0.0314208984375
0.03544921875
0.0314208984375
0.0298095703125
0.16274414062499998
0.36577148437499996
0.5035400390625
0.6936767578124999
0.9893554687499999
0.9498779296875
0.0314208984375
0.0314208984375
0.030615234374999998
0.0314208984375
0.0314208984375
0.2892333984375
2.9962646484374997
3.0002929687499997
2.9970703125
2.9978759765625
2.9970703125
2.9986816406249996
3.0010986328125
3.0002929687499997
2.882666015625
2.9140869140624996
2.70703125
2.5370361328124997
2.2760009765625
2.1986572265624997
2.047998046875
2.9962646484374997
2.9930419921875
2.995458984375
3.0010986328125
2.9978759765625
2.5821533203125
0.7790771484375
0.0346435546875
0.0314208984375
0.030615234374999998
0.033837890625
0.0322265625
0.0281982421875
0.0281982421875
0.030615234374999998
0.0966796875
0.2771484375
0.0314208984375
0.32548828124999996
0.488232421875
0.6662841796875
0.0322265625
0.0314208984375
0.02900390625
0.0314208984375
0.0314208984375
0.033837890625
1.0086914062499999
2.9978759765625
2.9986816406249996
2.995458984375
2.9986816406249996
2.9285888671875
2.8979736328124996
2.7811523437499996
2.6441894531249996
2.6764160156249996
2.4210205078125
2.1261474609374997
1.944873046875
1.8135498046874998
1.52109375
2.9962646484374997
2.9946533203124996
2.9970703125
2.9664550781249996
2.914892578125
2.5958496093749996
0.791162109375
0.02900390625
0.0314208984375
0.030615234374999998
0.02900390625
0.04189453125
0.042700195312499994
0.33354492187499996
0.559130859375
0.7259033203124999
1.148876953125
1.461474609375
1.6830322265625
1.8111328125
1.883642578125
0.0314208984375
0.033032226562499996
0.030615234374999998
0.026586914062499998
0.030615234374999998
0.17080078124999998
1.4171630859375
2.9946533203124996
2.9930419921875
2.9978759765625
2.9970703125
2.96162109375
2.9422851562499996
2.7239501953125
2.1470947265625
2.5418701171875
2.431494140625
2.2953369140624997
2.0906982421875
1.851416015625
1.6717529296875
2.0657226562499997
2.9946533203124996
2.9970703125
2.9978759765625
2.9970703125
2.8544677734375
2.08505859375
0.049145507812499996
0.0314208984375
0.0314208984375
0.0281982421875
0.03544921875
0.0298095703125
0.0990966796875
0.1699951171875
0.31743164062499996
0.7774658203125
1.2125244140625
1.4356933593749999
1.6951171875
1.7893798828124998
1.010302734375
0.033837890625
0.0314208984375
0.0314208984375
0.0322265625
0.2022216796875
0.87978515625
2.9962646484374997
3.0002929687499997
2.9986816406249996
2.9986816406249996
2.8866943359375
2.7545654296874997
2.747314453125
2.6466064453125
2.3066162109375
2.2953369140624997
2.0069091796875
1.7458740234374999
1.6927001953124998
1.5589599609375
1.5847412109374999
2.9978759765625
3.0043212890624997
3.0002929687499997
2.7851806640624996
2.254248046875
1.4767822265625
0.033032226562499996
0.030615234374999998
0.0322265625
0.0322265625
0.0322265625
0.270703125
0.1168212890625
0.1313232421875
0.240087890625
0.4793701171875
0.9796874999999999
1.7345947265625
1.5976318359375
1.7619873046874999
1.667724609375
0.033032226562499996
0.0346435546875
0.0346435546875
0.027392578124999997
0.24492187499999998
0.8668945312499999
2.9970703125
2.9978759765625
2.9946533203124996
2.9994873046875
2.5330078124999997
2.0117431640625
1.7595703125
1.6483886718749998
1.6645019531249998
1.73056640625
1.7233154296875
1.780517578125
1.8457763671874998
1.9513183593749999
2.0415527343749997
2.995458984375
2.9978759765625
2.9994873046875
2.9986816406249996
2.9922363281249997
2.3436767578124997
0.7387939453125
0.0298095703125
0.0322265625
0.03544921875
0.0314208984375
0.1232666015625
0.26425781249999997
0.578466796875
0.8362792968749999
1.2930908203125
1.5960205078124998
1.8224121093749999
1.89169921875
1.996435546875
1.9545410156249998
0.0322265625
0.0322265625
0.0314208984375
0.033032226562499996
0.033032226562499996
0.47050781249999996
1.8659179687499998
2.9946533203124996
2.99384765625
2.9970703125
2.8359375
2.56201171875
2.42666015625
2.392822265625
2.3404541015625
2.4202148437499997
2.0552490234375
1.8103271484374999
1.53720703125
1.3986328124999998
1.3349853515624999
2.9986816406249996
2.9970703125
2.9986816406249996
2.9978759765625
2.9970703125
2.6941406249999997
1.4445556640625
0.033032226562499996
0.0281982421875
0.0362548828125
0.0668701171875
0.2747314453125
0.21108398437499998
0.43425292968749996
0.726708984375
0.8677001953125
1.4864501953125
1.8022705078124999
1.9271484374999999
2.0044921875
1.8812255859375
0.0298095703125
0.0314208984375
0.033032226562499996
0.030615234374999998
0.107958984375
0.3391845703125
1.2447509765625
2.9970703125
2.9994873046875
2.9978759765625
2.9350341796875
2.6659423828124997
2.4886962890624997
2.2276611328125
2.255859375
2.0600830078125
1.9464843749999998
1.8087158203125
1.69189453125
1.6773925781249999
1.7096191406249999
2.4081298828124997
2.9946533203124996
2.9986816406249996
2.9978759765625
2.9970703125
2.7078369140625
1.7410400390624998
0.0314208984375
0.0298095703125
0.0362548828125
0.0314208984375
0.054785156249999994
0.11359863281249999
0.3504638671875
0.55107421875
0.862060546875
1.0634765625
1.3688232421875
1.699951171875
1.8659179687499998
1.7200927734375
0.9692138671874999
0.0314208984375
0.0322265625
0.0314208984375
0.39396972656249996
0.4568115234375
1.224609375
3.0010986328125
2.9978759765625
2.9970703125
2.9994873046875
2.4983642578125
2.270361328125
1.832080078125
1.5057861328125
1.1964111328125
1.4469726562499998
1.34384765625
1.4880615234374999
1.7015624999999999
1.8054931640624998
1.869140625
3.0010986328125
2.9970703125
2.9994873046875
2.9495361328125
2.7561767578125
2.1019775390624997
0.346435546875
0.02900390625
0.027392578124999997
0.0314208984375
0.146630859375
0.2940673828125
0.38188476562499996
0.5696044921875
0.928125
1.2745605468749999
1.6645019531249998
1.8183837890624999
1.9182861328124998
1.848193359375
1.5968261718749999
0.0322265625
0.0314208984375
0.0314208984375
0.09345703124999999
0.4149169921875
0.9869384765625
2.9962646484374997
2.995458984375
2.9978759765625
2.9261718749999996
2.4596923828125
2.141455078125
2.070556640625
1.93359375
1.6927001953124998
1.683837890625
1.6129394531249999
1.5807128906249999
1.6153564453125
1.690283203125
1.7265380859375
2.9978759765625
2.9978759765625
2.9986816406249996
2.9994873046875
2.850439453125
2.1470947265625
0.28842773437499997
0.030615234374999998
0.0314208984375
0.0314208984375
0.1941650390625
0.3391845703125
0.6227783203124999
0.7395996093749999
1.2173583984375
1.4953124999999998
1.883642578125
1.9150634765624999
2.0036865234375
1.9166748046875
1.7531249999999998
0.0314208984375
0.0314208984375
0.0765380859375
0.1393798828125
0.3343505859375
0.978076171875
2.9849853515625
2.9986816406249996
2.9930419921875
2.876220703125
2.608740234375
2.309033203125
2.02060546875
1.780517578125
1.783740234375
1.7265380859375
1.5911865234375
1.6564453124999998
1.71123046875
1.7345947265625
1.6886718749999998
2.9849853515625
2.9978759765625
2.9986816406249996
2.995458984375
2.86494140625
2.341259765625
1.445361328125
0.02900390625
0.0314208984375
0.0314208984375
0.0966796875
0.29970703125
0.423779296875
0.7379882812499999
0.9901611328125
1.1859374999999999
1.611328125
1.7877685546875
1.8578613281249998
1.9021728515624998
1.77568359375
0.0314208984375
0.0314208984375
0.0322265625
0.061230468749999996
0.6090820312499999
0.765380859375
1.5186767578125
2.9970703125
2.9930419921875
2.9962646484374997
2.1615966796875
2.3952392578125
2.2083251953125
2.0713623046875
1.7934082031249998
1.5678222656249998
1.4864501953125
0.8096923828125
0.607470703125
0.58330078125
0.871728515625
1.9843505859375
3.0002929687499997
2.9962646484374997
2.9970703125
2.7811523437499996
2.4532470703125
0.8902587890625
0.0362548828125
0.030615234374999998
0.03544921875
0.193359375
0.44150390624999997
0.7855224609375
1.00224609375
1.2963134765625
1.714453125
1.74345703125
1.69189453125
1.5355957031249998
1.3905761718749998
1.3978271484375
0.742822265625
0.0281982421875
0.30051269531249997
0.4954833984375
0.68642578125
1.2125244140625
2.0600830078125
2.9978759765625
2.9962646484374997
2.7529541015624996
2.410546875
2.07216796875
1.9078125
1.754736328125
1.8240234375
1.7184814453125
1.88525390625
1.8796142578125
1.8062988281249999
1.690283203125
1.6830322265625
1.6894775390624999
2.9986816406249996
2.9986816406249996
2.889111328125
2.792431640625
2.4604980468749997
1.6854492187499999
0.030615234374999998
0.0322265625
0.033032226562499996
0.19255371093749998
0.55751953125
0.8258056640625
1.0256103515625
0.863671875
1.48564453125
1.4542236328125
1.7490966796874998
1.7893798828124998
1.72412109375
1.6435546875
1.2028564453125
0.033032226562499996
0.030615234374999998
0.4568115234375
0.720263671875
0.8677001953125
1.4542236328125
2.9970703125
2.9970703125
2.9503417968749996
2.3597900390624997
1.996435546875
1.6975341796874999
1.5847412109374999
1.5202880859374999
1.3881591796875
1.319677734375
1.44052734375
1.5170654296875
1.5807128906249999
1.7345947265625
1.828857421875
2.9986816406249996
2.9978759765625
2.8311035156249997
2.75537109375
2.431494140625
1.6862548828125
0.20705566406249998
0.0322265625
0.0314208984375
0.31259765624999997
0.90234375
1.4598632812499999
1.5734619140625
1.7023681640625
1.674169921875
1.5146484375
1.6105224609375
1.4381103515625
1.4389160156249998
1.3502929687499998
1.3317626953125
0.033032226562499996
0.027392578124999997
0.45761718749999997
