1.545263671875
1.509814453125
1.49853515625
1.493701171875
1.464697265625
1.46953125
1.4783935546875
1.4719482421874999
1.4783935546875
2.02705078125
1.6322753906249998
1.4872558593749998
1.4558349609374999
1.3986328124999998
1.4429443359374998
1.0062744140625
1.135986328125
1.1794921875
1.319677734375
1.4042724609375
1.46953125
1.4606689453125
1.5509033203125
1.5573486328125
1.5573486328125
1.6040771484374998
1.5911865234375
1.5847412109374999
1.5807128906249999
1.5637939453124998
0.7476562499999999
1.400244140625
1.5911865234375
1.62744140625
1.735400390625
1.5009521484375
1.8796142578125
2.2171875
1.8046875
1.6508056640625
1.5637939453124998
1.5428466796875
1.53076171875
1.5017578125
1.490478515625
1.4783935546875
1.458251953125
1.474365234375
1.4791992187499998
1.4759765624999999
1.4703369140625
2.018994140625
1.8941162109374998
1.4840332031249999
1.4510009765624998
1.327734375
1.3067871093749999
1.0489746093749999
1.071533203125
1.1013427734374999
1.2431396484375
1.3921875
1.4413330078125
1.4558349609374999
1.5525146484374999
1.5645996093749999
1.5758789062499998
1.6048828124999999
1.593603515625
1.5766845703124999
1.5887695312499999
1.5702392578125
0.9128173828124999
1.1319580078125
1.6024658203125
1.658056640625
1.77568359375
2.0278564453125
1.7845458984375
2.457275390625
1.9392333984374999
1.6822265625
1.59521484375
1.5355957031249998
1.53720703125
1.538818359375
1.522705078125
1.5009521484375
1.4590576171874998
1.4598632812499999
1.4751708984374998
1.477587890625
1.4638916015624999
1.482421875
1.9392333984374999
1.48564453125
1.4461669921875
1.405078125
1.203662109375
1.3188720703124999
1.0626708984375
1.094091796875
1.2254150390625
1.3575439453125
1.4413330078125
1.4759765624999999
1.5138427734375
1.561376953125
1.5702392578125
1.5960205078124998
1.5919921874999998
1.590380859375
1.5992431640625
1.5887695312499999
1.56943359375
1.058642578125
1.5984375
1.61455078125
1.7257324218749999
1.9537353515625
1.9811279296875
2.462109375
1.9625976562499998
1.7297607421874999
1.6177734375
1.5509033203125
1.522705078125
1.525927734375
1.5146484375
1.4953124999999998
1.458251953125
1.4759765624999999
1.4719482421874999
1.474365234375
1.47275390625
1.47275390625
2.2840576171875
1.5670166015625
1.445361328125
1.3921875
1.3728515625
1.2568359375
0.9643798828125
1.0787841796875
1.18916015625
1.364794921875
1.4244140625
1.47275390625
1.5186767578125
1.5605712890624999
1.561376953125
1.5637939453124998
1.6306640625
1.5919921874999998
1.6024658203125
1.5863525390625
1.5621826171875
0.7226806640625
1.5839355468749998
1.609716796875
1.69833984375
1.7313720703125
2.0310791015625
2.384765625
2.1422607421874997
1.7281494140625
1.6250244140624999
1.561376953125
1.5283447265624999
1.533984375
1.5041748046874999
1.4928955078125
1.4759765624999999
1.461474609375
1.482421875
1.47275390625
1.482421875
1.4767822265625
2.3195068359374997
1.6137451171875
1.47275390625
1.461474609375
1.368017578125
1.27294921875
0.8902587890625
1.0731445312499999
1.1512939453125
1.2955078125
1.3921875
1.4606689453125
1.4687255859375
1.5670166015625
1.5678222656249998
1.58232421875
1.5815185546875
1.5791015625
1.5887695312499999
1.5919921874999998
1.577490234375
0.6840087890625
1.4389160156249998
1.61455078125
1.6693359374999999
1.754736328125
1.5162597656249999
1.9408447265625
2.27841796875
1.8425537109374999
1.65966796875
1.5879638671874998
1.5541259765625
1.5404296874999999
1.5106201171875
1.4888671875
1.496923828125
1.4518066406249999
1.4630859374999998
1.482421875
1.477587890625
1.4606689453125
2.1148681640625
1.84013671875
1.477587890625
1.448583984375
1.3108154296874999
1.4268310546874998
0.910400390625
1.0900634765625
1.1093994140624999
1.3148437499999999
1.397021484375
1.4501953125
1.46953125
1.5637939453124998
1.5702392578125
1.5621826171875
1.6008544921874999
1.59521484375
1.5791015625
1.5750732421875
1.5686279296874999
0.80888671875
1.1939941406249999
1.6048828124999999
1.6435546875
1.7716552734375
1.513037109375
1.8715576171875
2.486279296875
1.8304687499999999
1.6620849609375
1.5911865234375
1.5444580078124999
1.5323730468749999
1.4928955078125
1.5380126953125
1.46630859375
1.4679199218749999
1.5106201171875
1.4687255859375
1.461474609375
1.4751708984374998
1.529150390625
1.9142578124999998
1.4961181640624999
1.4510009765624998
1.340625
1.3156494140625
1.3261230468749998
1.0159423828125
1.0981201171875
1.2254150390625
1.3639892578125
1.4477783203124999
1.4598632812499999
1.5218994140625
1.554931640625
1.5597656249999998
1.590380859375
1.5960205078124998
1.5791015625
1.5927978515624999
1.5799072265624998
0.913623046875
1.08603515625
1.593603515625
1.638720703125
1.7660156249999999
2.0278564453125
1.91748046875
2.479833984375
1.957763671875
1.7313720703125
1.5944091796875
1.56298828125
1.533984375
1.5057861328125
1.52109375
1.4977294921875
1.464697265625
1.45341796875
1.4542236328125
1.4679199218749999
1.4840332031249999
1.490478515625
2.27841796875
1.5090087890625
1.442138671875
1.3962158203125
1.3148437499999999
1.303564453125
1.0078857421875
1.036083984375
1.2060791015624999
1.3607666015625
1.4147460937499998
1.4767822265625
1.5243164062499999
1.5573486328125
1.5621826171875
1.587158203125
1.5911865234375
1.5879638671874998
1.587158203125
1.577490234375
1.5718505859374998
0.6985107421875
1.5799072265624998
1.6024658203125
1.7120361328125
1.98193359375
2.0101318359375
2.333203125
2.0343017578125
1.7418457031249999
1.6322753906249998
1.5758789062499998
1.5347900390625
1.5404296874999999
1.4928955078125
1.4848388671875
1.4816162109375
1.4574462890625
1.456640625
1.48564453125
1.4759765624999999
1.4638916015624999
2.3477050781249997
1.5863525390625
1.456640625
1.4058837890625
1.3688232421875
1.147265625
0.8660888671875
1.0546142578125
1.1496826171874999
1.300341796875
1.42119140625
1.4630859374999998
1.46953125
1.5541259765625
1.574267578125
1.5782958984375
1.6177734375
1.5895751953125
1.5992431640625
1.5831298828125
1.5670166015625
0.65419921875
1.464697265625
1.6218017578125
1.6951171875
1.7531249999999998
1.513037109375
2.462109375
2.2067138671874997
1.8006591796875
1.619384765625
1.5557373046874998
1.5235107421874998
1.5243164062499999
1.493701171875
1.48564453125
1.46630859375
1.4759765624999999
1.4840332031249999
1.4703369140625
1.4759765624999999
1.480810546875
2.247802734375
1.6250244140624999
1.46953125
1.4501953125
1.3212890625
1.29228515625
0.9095947265625
0.9804931640625
1.13115234375
1.2882568359375
1.3946044921874998
1.4469726562499998
1.4671142578124998
1.5637939453124998
1.585546875
1.5637939453124998
1.6185791015625
1.5782958984375
1.5992431640625
1.5815185546875
1.5968261718749999
0.6823974609375
1.4244140625
1.6242187499999998
1.6572509765624999
1.7668212890625
1.4920898437499999
1.9464843749999998
2.5201171875
1.844970703125
1.6733642578124999
1.5799072265624998
1.525927734375
1.545263671875
1.493701171875
1.4912841796874998
1.482421875
1.4437499999999999
1.480810546875
1.464697265625
1.4751708984374998
1.4655029296875
2.2051025390625
1.9029785156249999
1.4880615234374999
1.445361328125
1.3237060546875
1.4244140625
1.26328125
1.0433349609375
1.05380859375
1.2286376953125
1.3954101562499999
1.4429443359374998
1.4558349609374999
1.546875
1.5799072265624998
1.5984375
1.5887695312499999
1.5839355468749998
1.5976318359375
1.5831298828125
1.5718505859374998
0.7661865234374999
1.1239013671875
1.5831298828125
1.6411376953124999
1.780517578125
2.0455810546874997
1.8457763671874998
2.5660400390625
2.023828125
1.6822265625
1.5944091796875
1.5621826171875
1.53720703125
1.490478515625
1.5460693359375
1.5001464843749999
1.44052734375
1.4888671875
1.4816162109375
1.4832275390624998
1.4598632812499999
1.538818359375
2.2993652343749997
1.5033691406249998
1.442138671875
1.3704345703124998
1.2777832031249998
1.3027587890624999
0.9692138671874999
1.02158203125
1.21171875
1.35673828125
1.4171630859375
1.464697265625
1.5251220703125
1.5686279296874999
1.5791015625
1.5919921874999998
1.5984375
1.6081054687499998
1.5911865234375
1.5839355468749998
1.4953124999999998
1.0465576171875
1.5887695312499999
1.6290527343749999
1.719287109375
2.0923095703125
1.9593749999999999
2.57490234375
1.9625976562499998
1.7217041015624999
1.5968261718749999
1.5484863281249999
1.5154541015624998
1.53076171875
1.5057861328125
1.49853515625
1.4501953125
1.4526123046875
1.4679199218749999
1.47275390625
1.46953125
1.4791992187499998
2.3638183593749997
1.5645996093749999
1.461474609375
1.3921875
1.30517578125
0.9933837890624999
0.894287109375
1.0207763671874999
1.1222900390625
1.3011474609375
1.4107177734374998
1.4550292968749998
1.4961181640624999
1.5678222656249998
1.5734619140625
1.574267578125
1.6000488281249998
1.593603515625
1.5831298828125
1.587158203125
1.5509033203125
0.6251953124999999
1.50498046875
1.611328125
1.7362060546875
1.751513671875
1.6612792968749999
2.4081298828124997
2.2760009765625
1.8280517578125
1.6209960937499999
1.5565429687499999
1.525927734375
1.5380126953125
1.5162597656249999
1.4912841796874998
1.4928955078125
1.456640625
1.482421875
1.4655029296875
1.49853515625
1.4759765624999999
2.386376953125
1.6000488281249998
1.4550292968749998
1.4228027343749998
1.3253173828125
1.090869140625
0.75087890625
1.02158203125
1.12470703125
1.2882568359375
1.3817138671875
1.4526123046875
1.4606689453125
1.5686279296874999
1.5879638671874998
1.593603515625
1.5919921874999998
1.5863525390625
1.590380859375
1.5839355468749998
1.577490234375
0.554296875
1.4397216796874999
1.63388671875
1.6532226562499999
1.7781005859374999
1.52109375
2.093115234375
2.5757080078124996
1.8554443359375
1.654833984375
1.571044921875
1.5194824218749998
1.538818359375
1.5001464843749999
1.5025634765625
1.493701171875
1.4574462890625
1.482421875
1.4606689453125
1.46630859375
1.4735595703125
2.328369140625
1.85947265625
1.482421875
1.4437499999999999
1.29228515625
1.5565429687499999
1.2415283203124998
0.9788818359375
1.061865234375
1.21494140625
1.3865478515624998
1.44052734375
1.4413330078125
1.53076171875
1.5839355468749998
1.5678222656249998
1.61455078125
1.5944091796875
1.6000488281249998
1.5944091796875
1.5791015625
0.5873291015625
1.1883544921875
1.5960205078124998
1.6620849609375
1.8216064453124998
1.9545410156249998
2.11728515625
2.570068359375
1.9529296875
1.674169921875
1.587158203125
1.5476806640624998
1.5243164062499999
1.4912841796874998
1.529150390625
1.4888671875
1.445361328125
1.4751708984374998
1.46630859375
1.4711425781249998
1.4590576171874998
1.6612792968749999
2.2534423828125
1.5106201171875
1.4276367187499999
1.3470703124999999
1.4493896484375
1.3100097656249998
0.9740478515625
0.9893554687499999
1.1980224609374999
1.3510986328124999
1.4195800781249999
1.4469726562499998
1.5541259765625
1.561376953125
1.5807128906249999
1.6129394531249999
1.5718505859374998
1.6024658203125
1.5944091796875
1.587158203125
1.4123291015625
1.0892578124999999
1.6177734375
1.6169677734374999
1.803076171875
2.05927734375
1.8546386718749999
2.4041015624999997
2.0657226562499997
1.7716552734375
1.6282470703124998
1.546875
1.525927734375
1.5460693359375
1.5396240234374998
1.4840332031249999
1.4622802734375
1.4171630859375
1.4590576171874998
1.46953125
1.4638916015624999
1.5517089843749998
2.3138671875
1.55009765625
1.42119140625
1.3607666015625
1.168212890625
0.9812988281249999
0.984521484375
0.9917724609374999
1.1464599609375
1.332568359375
1.41796875
1.4711425781249998
1.48564453125
1.5662109375
1.5605712890624999
1.5944091796875
1.5791015625
1.5960205078124998
1.5984375
1.5839355468749998
1.5090087890625
0.6453369140624999
1.4848388671875
1.609716796875
1.722509765625
1.7587646484375
1.9384277343749998
2.5160888671875
2.2187988281249997
1.7684326171875
1.6121337890624998
1.554931640625
1.529150390625
1.5218994140625
1.5082031249999999
1.5033691406249998
1.4598632812499999
1.46953125
1.4816162109375
1.458251953125
1.46953125
1.4687255859375
2.4435791015625
1.577490234375
1.4437499999999999
1.4316650390624999
1.2802001953125
0.9716308593749999
0.8354736328125
0.9796874999999999
1.1190673828125
1.3124267578125
1.3978271484375
1.4671142578124998
1.4864501953125
1.574267578125
1.5807128906249999
1.5766845703124999
1.6298583984375
1.5879638671874998
1.5887695312499999
1.603271484375
1.5766845703124999
0.5953857421875
1.4840332031249999
1.6209960937499999
1.7168701171874998
1.7531249999999998
1.6250244140624999
2.289697265625
2.23974609375
1.828857421875
1.65966796875
1.5670166015625
1.5404296874999999
1.538818359375
1.506591796875
1.4872558593749998
1.482421875
1.4461669921875
1.474365234375
1.4655029296875
1.46953125
1.464697265625
2.4097412109375
1.8232177734375
1.45341796875
1.4606689453125
1.3220947265624998
1.6048828124999999
0.7613525390625
1.003857421875
1.0691162109374999
1.2826171874999999
1.3962158203125
1.4510009765624998
1.4389160156249998
1.5815185546875
1.5702392578125
1.6024658203125
1.5863525390625
1.5807128906249999
1.5799072265624998
1.587158203125
1.5758789062499998
0.5768554687499999
1.2109130859375
1.6242187499999998
1.6556396484375
1.8054931640624998
1.5251220703125
2.115673828125
2.56845703125
1.9029785156249999
1.6814208984374999
1.5976318359375
1.5557373046874998
1.5436523437499998
1.496923828125
1.513037109375
1.4888671875
1.4364990234375
1.4711425781249998
1.480810546875
1.4719482421874999
1.4638916015624999
1.770849609375
1.8546386718749999
1.48564453125
1.4348876953124998
1.313232421875
1.5476806640624998
1.235888671875
1.0046630859374999
1.052197265625
1.2157470703125
1.3583496093749998
1.4445556640625
1.4477783203124999
1.5460693359375
1.5944091796875
1.5750732421875
1.6250244140624999
1.5678222656249998
1.5984375
1.5807128906249999
1.5839355468749998
0.6260009765625
1.1698242187499999
1.5791015625
1.65
1.8232177734375
1.9916015624999999
1.7611816406249998
2.6039062499999996
1.9585693359374998
1.7208984374999998
1.5879638671874998
1.5412353515625
1.5162597656249999
1.4791992187499998
1.5355957031249998
1.4864501953125
1.4630859374999998
1.482421875
1.464697265625
1.47275390625
1.46953125
1.6242187499999998
2.2623046875
1.4816162109375
1.4518066406249999
1.3623779296874998
1.0981201171875
1.30517578125
0.90234375
1.0159423828125
1.1939941406249999
1.3575439453125
1.43408203125
1.4671142578124998
1.5380126953125
1.5525146484374999
1.574267578125
1.6048828124999999
1.5807128906249999
1.5992431640625
1.6000488281249998
1.5799072265624998
1.3784912109374998
0.7299316406249999
1.587158203125
1.619384765625
1.73056640625
2.0737792968749997
1.85302734375
2.5386474609375
1.9972412109375
1.74345703125
1.6209960937499999
1.5605712890624999
1.5331787109375
1.529150390625
1.4993408203124998
1.4928955078125
1.4638916015624999
1.4155517578124999
1.4655029296875
1.4848388671875
1.4791992187499998
1.45341796875
2.3017822265625
1.5533203125
1.461474609375
1.3744628906249998
1.2141357421874999
0.9933837890624999
0.7927734375
0.9933837890624999
1.12470703125
1.3124267578125
1.4147460937499998
1.461474609375
1.4888671875
1.5654052734375
1.558154296875
1.5839355468749998
1.6056884765625
1.59521484375
1.593603515625
1.603271484375
1.5090087890625
0.662255859375
1.4953124999999998
1.6121337890624998
1.7523193359375
1.7418457031249999
1.8046875
2.4355224609375
2.25263671875
1.8216064453124998
1.638720703125
1.5654052734375
1.5347900390625
1.5492919921875
1.5170654296875
1.4896728515625
1.4864501953125
1.44052734375
1.4703369140625
1.4574462890625
1.4864501953125
1.4872558593749998
2.4339111328125
1.7595703125
1.448583984375
1.429248046875
1.3559326171875
0.9966064453125
0.7669921875
1.0127197265624999
1.0642822265625
1.316455078125
1.3954101562499999
1.4437499999999999
1.490478515625
1.5654052734375
1.5863525390625
1.5758789062499998
1.6322753906249998
1.5831298828125
1.58232421875
1.587158203125
1.5782958984375
0.5357666015625
1.474365234375
1.6081054687499998
1.6556396484375
1.7458740234374999
1.6298583984375
2.2985595703125
2.4854736328125
1.8199951171875
1.6620849609375
1.5895751953125
1.5275390624999998
1.5355957031249998
1.5009521484375
1.4912841796874998
1.4671142578124998
1.4606689453125
1.4751708984374998
1.4574462890625
1.48564453125
1.4671142578124998
2.3791259765625
1.8151611328125
1.4791992187499998
1.4381103515625
1.3301513671874998
1.5968261718749999
1.1835205078125
0.9716308593749999
1.0691162109374999
1.2270263671875
1.3768798828125
1.4332763671875
1.4606689453125
1.5533203125
1.5734619140625
1.577490234375
1.6121337890624998
1.5799072265624998
1.5968261718749999
1.5879638671874998
1.5839355468749998
0.5671875
1.2342773437499999
1.5895751953125
1.6604736328124998
1.82080078125
1.815966796875
2.118896484375
2.5644287109375
1.9545410156249998
1.716064453125
1.5815185546875
1.5476806640624998
1.5380126953125
1.5073974609374998
1.52109375
1.490478515625
1.426025390625
1.45341796875
1.464697265625
1.4735595703125
1.4711425781249998
1.7716552734375
2.1591796875
1.4791992187499998
1.4437499999999999
1.3510986328124999
1.5476806640624998
1.2221923828124999
1.04736328125
1.02158203125
1.2052734375
1.3559326171875
1.4228027343749998
1.45341796875
1.5492919921875
1.5533203125
1.5758789062499998
1.5944091796875
1.5815185546875
1.59521484375
1.5984375
1.5847412109374999
1.3011474609375
1.1666015625
1.58232421875
1.6089111328124999
1.7370117187499998
1.964208984375
1.7490966796874998
2.479833984375
2.0069091796875
1.740234375
1.6290527343749999
1.558154296875
1.5331787109375
1.513037109375
1.506591796875
1.4872558593749998
1.4622802734375
1.4252197265625
1.4526123046875
1.4735595703125
1.4655029296875
1.6129394531249999
2.2429687499999997
1.5541259765625
1.4630859374999998
1.3631835937499999
1.11181640625
1.029638671875
0.9313476562499999
1.0191650390625
1.142431640625
1.3229003906249999
1.4252197265625
1.477587890625
1.5033691406249998
1.5605712890624999
1.5670166015625
1.5887695312499999
1.577490234375
1.6008544921874999
1.6089111328124999
1.593603515625
1.4203857421875
0.74443359375
1.53076171875
1.6081054687499998
1.7313720703125
1.7499023437499999
1.85947265625
2.55234375
2.1277587890625
1.7901855468749999
1.6008544921874999
1.5597656249999998
1.5323730468749999
1.51787109375
1.5082031249999999
1.4912841796874998
1.4638916015624999
1.4550292968749998
1.4832275390624998
1.4671142578124998
1.4791992187499998
1.4638916015624999
2.4145751953125
1.5517089843749998
1.4711425781249998
1.4381103515625
1.2342773437499999
0.984521484375
0.8096923828125
1.003857421875
1.1464599609375
1.3092041015625
1.4010498046875
1.4622802734375
1.506591796875
1.5702392578125
1.5766845703124999
1.5879638671874998
1.6089111328124999
1.5831298828125
1.6040771484374998
1.590380859375
1.5758789062499998
0.66064453125
1.480810546875
1.609716796875
1.674169921875
1.7418457031249999
1.7603759765625
2.2147705078124997
2.23974609375
1.8312744140625
1.6669189453125
1.577490234375
1.5460693359375
1.558154296875
1.493701171875
1.4840332031249999
1.4896728515625
1.429248046875
1.4880615234374999
1.474365234375
1.4687255859375
1.4816162109375
2.40087890625
1.7619873046874999
1.45341796875
1.4252197265625
1.3446533203125
1.6105224609375
0.7822998046874999
1.029638671875
1.0771728515624999
1.2286376953125
1.3978271484375
1.4445556640625
1.445361328125
1.5670166015625
1.5758789062499998
1.5766845703124999
1.6024658203125
1.5815185546875
1.5911865234375
1.577490234375
1.5750732421875
0.604248046875
1.281005859375
1.6056884765625
1.674169921875
1.812744140625
1.6137451171875
2.17529296875
2.528173828125
1.9231201171874999
1.6532226562499999
1.590380859375
1.5476806640624998
1.5476806640624998
1.5025634765625
1.4912841796874998
1.490478515625
1.4501953125
1.4638916015624999
1.4703369140625
1.480810546875
1.4767822265625
1.8546386718749999
1.8232177734375
1.4864501953125
1.448583984375
1.3148437499999999
1.5847412109374999
1.198828125
0.928125
1.0868408203125
1.2350830078125
1.37607421875
1.4397216796874999
1.4469726562499998
1.53076171875
1.545263671875
1.5734619140625
1.6008544921874999
1.603271484375
1.603271484375
1.5831298828125
1.585546875
0.6066650390625
1.2383056640624999
1.5782958984375
1.6395263671875
1.8103271484374999
1.8635009765625
1.7474853515625
2.505615234375
1.9110351562499999
1.6991455078125
1.6024658203125
1.5436523437499998
1.5315673828124998
1.5194824218749998
1.5243164062499999
1.5122314453124999
1.4574462890625
1.4719482421874999
1.4679199218749999
1.4759765624999999
1.46953125
1.732177734375
2.1551513671875
1.561376953125
1.4356933593749999
1.3607666015625
1.06669921875
1.2890625
1.0167480468749999
1.0239990234375
1.16337890625
1.3502929687499998
1.4276367187499999
1.458251953125
1.5396240234374998
1.5428466796875
1.558154296875
1.606494140625
1.5670166015625
1.590380859375
1.5968261718749999
1.5758789062499998
1.287451171875
0.829833984375
1.5517089843749998
1.61455078125
1.735400390625
1.8006591796875
1.7893798828124998
2.462109375
2.13984375
1.7249267578124998
1.611328125
1.5637939453124998
1.5267333984375
1.5283447265624999
1.5073974609374998
1.49853515625
1.4767822265625
1.405078125
1.461474609375
1.490478515625
1.482421875
1.477587890625
2.2349121093749997
1.5275390624999998
1.4389160156249998
1.4284423828125
1.15048828125
1.026416015625
0.8741455078125
1.0159423828125
1.1674072265625
1.3140380859374998
1.400244140625
1.4493896484375
1.4848388671875
1.5637939453124998
1.5621826171875
1.5927978515624999
1.6540283203125
1.58232421875
1.585546875
1.59521484375
1.5758789062499998
0.765380859375
1.529150390625
1.6089111328124999
1.7410400390624998
1.7499023437499999
1.8812255859375
2.3114501953124997
2.1333984375
1.7942138671874999
1.6346923828125
1.5436523437499998
1.529150390625
1.533984375
1.5090087890625
1.5033691406249998
1.4800048828124999
1.4671142578124998
1.490478515625
1.482421875
1.46630859375
1.4671142578124998
2.39443359375
1.7257324218749999
1.4550292968749998
1.4510009765624998
1.3551269531249999
1.5662109375
0.8612548828125
1.0119140625
1.095703125
1.3261230468749998
1.4091064453125
1.4397216796874999
1.4510009765624998
1.5557373046874998
1.5726562499999999
1.58232421875
1.6266357421875
1.5791015625
1.5799072265624998
1.5791015625
1.58232421875
0.5929687499999999
1.3253173828125
1.622607421875
1.674169921875
1.803076171875
1.69833984375
2.2671386718749997
2.4194091796875
1.8062988281249999
1.651611328125
1.5863525390625
1.5484863281249999
1.5484863281249999
1.5017578125
1.490478515625
1.4864501953125
1.456640625
1.474365234375
1.4687255859375
1.4671142578124998
1.4679199218749999
1.9376220703125
1.7635986328125
1.47275390625
1.4477783203124999
1.3478759765625
1.5944091796875
1.1206787109375
1.0328613281249999
1.1077880859375
1.248779296875
1.3639892578125
1.4364990234375
1.4469726562499998
1.5525146484374999
1.5766845703124999
1.585546875
1.5992431640625
1.5782958984375
1.5807128906249999
1.5895751953125
1.5782958984375
0.6324462890625
1.2608642578125
1.590380859375
1.6540283203125
1.8224121093749999
1.735400390625
1.7362060546875
2.4943359375
1.972265625
1.7200927734375
1.5944091796875
1.5589599609375
1.53720703125
1.5106201171875
1.5170654296875
1.5009521484375
1.4477783203124999
1.4767822265625
1.4791992187499998
1.4767822265625
1.4759765624999999
1.79501953125
2.102783203125
1.4671142578124998
1.4397216796874999
1.3398193359375
1.074755859375
1.216552734375
1.0086914062499999
1.04736328125
1.2366943359375
1.3664062499999998
1.4348876953124998
1.4703369140625
1.5404296874999999
1.5525146484374999
1.5750732421875
1.6161621093749998
1.5831298828125
1.590380859375
1.574267578125
1.571044921875
1.181103515625
0.881396484375
1.6201904296874998
1.6346923828125
1.7257324218749999
1.8755859375
1.75634765625
2.5458984375
1.9110351562499999
1.7015624999999999
1.6040771484374998
1.554931640625
1.53076171875
1.5146484375
1.50498046875
1.4703369140625
1.46630859375
1.432470703125
1.461474609375
1.46953125
1.4679199218749999
1.4719482421874999
2.1825439453124997
1.5267333984375
1.46953125
1.3575439453125
1.094091796875
1.09248046875
0.8701171875
1.0417236328125
1.16337890625
1.3341796874999998
1.43408203125
1.46630859375
1.5122314453124999
1.5589599609375
1.5637939453124998
1.5726562499999999
1.66611328125
1.6169677734374999
1.5919921874999998
1.5791015625
1.3390136718749999
0.7984130859374999
1.5428466796875
1.635498046875
1.7329833984374998
1.7555419921875
1.9988525390624998
2.49755859375
2.096337890625
1.7821289062499999
1.6306640625
1.577490234375
1.5235107421874998
1.538818359375
1.5017578125
1.4880615234374999
1.4928955078125
1.4219970703125
1.4735595703125
1.4687255859375
1.4735595703125
1.4920898437499999
2.4049072265625
1.6822265625
1.4606689453125
1.413134765625
1.3688232421875
1.0159423828125
0.8580322265625
1.0223876953125
1.1150390625
1.3108154296874999
1.397021484375
1.4477783203124999
1.4840332031249999
1.571044921875
1.5758789062499998
1.5895751953125
1.6177734375
1.5678222656249998
1.5879638671874998
1.5887695312499999
1.5686279296874999
0.5994140625
1.522705078125
1.6177734375
1.66611328125
1.732177734375
1.82080078125
2.199462890625
2.4468017578125
1.8199951171875
1.662890625
1.6000488281249998
1.542041015625
1.5428466796875
1.4928955078125
1.4920898437499999
1.493701171875
1.4501953125
1.477587890625
1.46953125
1.4703369140625
1.4759765624999999
2.3783203125
1.7329833984374998
1.490478515625
1.4300537109375
1.3510986328124999
1.5750732421875
1.08603515625
1.023193359375
1.1029541015625
1.26328125
1.4010498046875
1.4526123046875
1.4493896484375
1.5484863281249999
1.571044921875
1.571044921875
1.6089111328124999
1.587158203125
1.5807128906249999
1.593603515625
1.5799072265624998
0.59619140625
1.316455078125
1.5895751953125
1.6717529296875
1.7829345703125
1.6459716796875
2.341259765625
2.4210205078125
1.8586669921874999
1.6443603515624998
1.56943359375
1.5460693359375
1.533984375
1.48564453125
1.4848388671875
1.46630859375
1.4655029296875
1.4735595703125
1.4840332031249999
1.482421875
1.47275390625
1.869140625
2.0616943359374997
1.4783935546875
1.4590576171874998
1.3301513671874998
1.587158203125
1.203662109375
0.9531005859374999
1.055419921875
1.2528076171875
1.3712402343749999
1.4252197265625
1.4606689453125
1.5396240234374998
1.5275390624999998
1.5597656249999998
1.6089111328124999
1.5791015625
1.5831298828125
1.585546875
1.5678222656249998
1.0948974609375
1.2479736328125
1.5895751953125
1.6427490234375
1.803076171875
1.8062988281249999
1.7611816406249998
2.5305908203125
1.9521240234375
1.7257324218749999
1.625830078125
1.5517089843749998
1.5283447265624999
1.5194824218749998
1.5057861328125
1.4791992187499998
1.45341796875
1.442138671875
1.4518066406249999
1.477587890625
1.4840332031249999
1.7700439453124999
2.1462890624999997
1.5202880859374999
1.4228027343749998
1.32451171875
1.0513916015625
1.1545166015625
1.03125
1.0191650390625
1.1666015625
1.3664062499999998
1.4195800781249999
1.4598632812499999
1.5017578125
1.5509033203125
1.5758789062499998
1.60166015625
1.5654052734375
1.587158203125
1.6008544921874999
1.5879638671874998
1.2906738281249999
0.80888671875
1.5404296874999999
1.6129394531249999
1.7410400390624998
1.8119384765625
1.7668212890625
2.5249511718749997
2.144677734375
1.7450683593749998
1.62744140625
1.5621826171875
1.542041015625
1.52109375
1.509814453125
1.493701171875
1.4655029296875
1.42119140625
1.458251953125
1.4397216796874999
1.461474609375
1.4679199218749999
2.4596923828125
1.5517089843749998
1.4510009765624998
1.4058837890625
1.0916748046875
1.0562255859375
0.8274169921875
1.0336669921875
1.1384033203125
1.335791015625
1.3994384765624999
1.4719482421874999
1.493701171875
1.56298828125
1.5726562499999999
1.5726562499999999
1.651611328125
1.5831298828125
1.6056884765625
1.6056884765625
1.577490234375
0.7226806640625
1.5202880859374999
1.6161621093749998
1.7619873046874999
1.7700439453124999
1.9907958984374998
2.4999755859375
2.1116455078125
1.8087158203125
1.6572509765624999
1.545263671875
1.4953124999999998
1.4832275390624998
1.4711425781249998
1.4735595703125
1.4510009765624998
1.4542236328125
1.48564453125
1.4961181640624999
1.5025634765625
1.46953125
2.4774169921875
1.740234375
1.4598632812499999
1.41796875
1.3494873046875
1.5476806640624998
0.791162109375
1.0086914062499999
1.0763671875
1.2947021484374999
1.3913818359374999
1.4493896484375
1.4759765624999999
1.590380859375
1.56943359375
1.5517089843749998
1.6129394531249999
1.5863525390625
1.58232421875
1.5807128906249999
1.5919921874999998
0.523681640625
1.3172607421875
1.6290527343749999
1.65966796875
1.8006591796875
1.7603759765625
2.189794921875
2.447607421875
1.8659179687499998
1.7168701171874998
1.6209960937499999
1.5670166015625
1.5589599609375
1.5090087890625
1.513037109375
1.5057861328125
1.4429443359374998
1.461474609375
1.46630859375
1.4469726562499998
1.41796875
2.0173828124999997
1.7732666015624998
1.4832275390624998
1.4510009765624998
1.3575439453125
1.62744140625
0.9861328125
0.9966064453125
1.069921875
1.2447509765625
1.3921875
1.4679199218749999
1.4671142578124998
1.5637939453124998
1.5782958984375
1.5605712890624999
1.5782958984375
1.5460693359375
1.5678222656249998
1.5766845703124999
1.5758789062499998
0.510791015625
1.2560302734375
1.5831298828125
1.6806152343749998
1.8377197265624998
1.6717529296875
1.74345703125
2.5982666015625
1.957763671875
1.7176757812499999
1.5911865234375
1.554931640625
1.5589599609375
1.4977294921875
1.4872558593749998
1.474365234375
1.4574462890625
1.46630859375
1.4630859374999998
1.4671142578124998
1.4896728515625
1.9327880859375
2.15595703125
1.4622802734375
1.445361328125
1.3059814453124998
1.01513671875
1.164990234375
0.878173828125
1.0239990234375
1.252001953125
1.40830078125
1.4381103515625
1.4574462890625
1.5194824218749998
1.5235107421874998
1.5428466796875
1.6081054687499998
1.5895751953125
1.635498046875
1.62744140625
1.5831298828125
1.0513916015625
0.8080810546874999
1.5702392578125
1.635498046875
1.738623046875
1.8224121093749999
1.7821289062499999
2.682861328125
1.9489013671875
1.7249267578124998
1.6298583984375
1.5766845703124999
1.542041015625
1.5154541015624998
1.493701171875
1.4445556640625
1.3881591796875
1.409912109375
1.4993408203124998
1.5001464843749999
1.5017578125
1.4840332031249999
2.2308837890624997
1.525927734375
1.413134765625
1.3398193359375
1.03125
1.12470703125
0.8282226562499999
0.9571289062499999
1.1408203125
1.332568359375
1.4445556640625
1.4888671875
1.5299560546875
1.5323730468749999
1.5597656249999998
1.5436523437499998
1.5863525390625
1.5927978515624999
1.5992431640625
1.606494140625
1.27939453125
0.7484619140625
1.5315673828124998
1.6218017578125
1.770849609375
1.8369140625
2.15595703125
2.5450927734374997
2.2357177734375
1.8224121093749999
1.5968261718749999
1.5033691406249998
1.5001464843749999
1.52109375
1.5275390624999998
1.5114257812499998
1.5605712890624999
1.4590576171874998
1.545263671875
1.5315673828124998
1.4848388671875
1.413134765625
2.4322998046874997
1.4373046875
1.3801025390625
1.3639892578125
1.3744628906249998
1.0385009765625
0.813720703125
0.9402099609375
1.0820068359375
1.3100097656249998
1.4042724609375
1.4735595703125
1.5154541015624998
1.5734619140625
1.5662109375
1.6000488281249998
1.67578125
1.603271484375
1.5992431640625
1.5839355468749998
1.5492919921875
0.41572265625
1.5251220703125
1.622607421875
1.6975341796874999
1.7821289062499999
1.9988525390624998
2.4790283203124996
2.1986572265624997
1.8111328125
1.6427490234375
1.5726562499999999
1.5154541015624998
1.5347900390625
1.5025634765625
1.4832275390624998
1.4630859374999998
1.4622802734375
1.4880615234374999
1.474365234375
1.4735595703125
1.4832275390624998
2.5628173828125
1.754736328125
1.4501953125
1.4091064453125
1.3639892578125
1.5565429687499999
0.910400390625
0.9547119140625
1.0409179687499999
1.224609375
1.3962158203125
1.4437499999999999
1.4598632812499999
1.58232421875
1.5662109375
1.5815185546875
1.6290527343749999
1.56298828125
1.59521484375
1.6000488281249998
1.5992431640625
0.4149169921875
1.2721435546875
1.5476806640624998
1.67578125
1.8296630859374998
1.5517089843749998
2.4169921875
2.5499267578125
1.9489013671875
1.6645019531249998
1.587158203125
1.5355957031249998
1.5565429687499999
1.5275390624999998
1.4953124999999998
1.4896728515625
1.4147460937499998
1.409912109375
1.4236083984374999
1.4703369140625
1.46630859375
2.0665283203125
1.832080078125
1.4671142578124998
1.4413330078125
1.3043701171875
1.6653076171874999
0.9716308593749999
0.9861328125
1.0167480468749999
1.2012451171875
1.3712402343749999
1.4518066406249999
1.4348876953124998
1.5533203125
1.5686279296874999
1.6185791015625
1.5992431640625
1.5911865234375
1.6105224609375
1.5750732421875
1.5557373046874998
0.929736328125
1.1939941406249999
1.587158203125
1.6298583984375
1.8014648437499998
1.7072021484375
1.8006591796875
2.6691650390625
2.028662109375
1.699951171875
1.5782958984375
1.5404296874999999
1.5355957031249998
1.5355957031249998
1.5057861328125
1.48564453125
1.4373046875
1.4558349609374999
1.4622802734375
1.5090087890625
1.5025634765625
1.9303710937499998
2.2034912109375
1.5436523437499998
1.3946044921874998
1.3067871093749999
1.0086914062499999
1.1416259765624999
0.9087890624999999
0.952294921875
1.147265625
1.3059814453124998
1.4026611328124998
1.4783935546875
1.52109375
1.5476806640624998
1.5750732421875
1.5919921874999998
1.6024658203125
1.60166015625
1.585546875
1.5887695312499999
1.0497802734375
0.7855224609375
1.5404296874999999
1.6322753906249998
1.7772949218749998
1.9464843749999998
1.7684326171875
2.7521484375
2.1180908203124997
1.7072021484375
1.5863525390625
1.558154296875
1.53720703125
1.5251220703125
1.4993408203124998
1.4687255859375
1.4510009765624998
1.41796875
1.4598632812499999
1.47275390625
1.4671142578124998
1.474365234375
2.6176025390624997
1.561376953125
1.4542236328125
1.384130859375
0.9861328125
1.0852294921874999
0.781494140625
0.942626953125
1.1335693359374999
1.327734375
1.4123291015625
1.4300537109375
1.493701171875
1.558154296875
1.525927734375
1.53720703125
1.6773925781249999
1.6298583984375
1.6234130859375
1.5992431640625
1.554931640625
0.6662841796875
1.5218994140625
1.6201904296874998
1.7797119140625
1.8280517578125
2.1760986328125
2.5031982421874996
2.2179931640625
1.8240234375
1.6451660156249999
1.5726562499999999
1.52109375
1.5364013671874999
1.5122314453124999
1.5017578125
1.4840332031249999
1.4195800781249999
1.4622802734375
1.47275390625
1.48564453125
1.4630859374999998
2.6047119140625
1.7313720703125
1.4590576171874998
1.4107177734374998
1.3865478515624998
1.5090087890625
0.7710205078125
0.9232910156249999
1.01513671875
1.2060791015624999
1.340625
1.442138671875
1.4848388671875
1.5919921874999998
1.5541259765625
1.5565429687499999
1.6346923828125
1.5960205078124998
1.60166015625
1.6089111328124999
1.6040771484374998
0.38994140624999996
1.2850341796875
1.6161621093749998
1.667724609375
1.8006591796875
2.0246337890625
2.344482421875
2.6192138671875
1.90458984375
1.7128417968749998
1.6169677734374999
1.5662109375
1.5082031249999999
1.4010498046875
1.4034667968749999
1.4977294921875
1.4526123046875
1.4510009765624998
1.482421875
1.46953125
1.46953125
2.2051025390625
1.8071044921875
1.4711425781249998
1.4437499999999999
1.3092041015625
1.5412353515625
0.88623046875
0.9659912109375
1.029638671875
1.2270263671875
1.3656005859375
1.46630859375
1.44052734375
1.571044921875
1.5927978515624999
1.5782958984375
1.6564453124999998
1.611328125
1.5758789062499998
1.5815185546875
1.5702392578125
0.38107910156249997
1.27939453125
1.5984375
1.6645019531249998
1.8135498046874998
1.5033691406249998
1.8699462890624998
2.56201171875
1.944873046875
1.6967285156249998
1.585546875
1.538818359375
1.546875
1.506591796875
1.4953124999999998
1.5090087890625
1.5331787109375
1.48564453125
1.426025390625
1.3994384765624999
1.3865478515624998
1.9924072265625
2.1293701171875
1.4864501953125
1.4638916015624999
1.3075927734375
1.1021484375
1.0892578124999999
0.8918701171875
0.9788818359375
1.2012451171875
1.3543212890624998
1.4268310546874998
1.4373046875
1.5678222656249998
1.5509033203125
1.5879638671874998
1.6129394531249999
1.5782958984375
1.6040771484374998
1.603271484375
1.577490234375
0.897509765625
0.8548095703124999
1.5879638671874998
1.638720703125
1.7829345703125
1.7023681640625
1.7490966796874998
2.7110595703125
2.00771484375
1.7217041015624999
1.6129394531249999
1.5702392578125
1.5251220703125
1.5202880859374999
1.5082031249999999
1.4912841796874998
1.4445556640625
1.4276367187499999
1.4912841796874998
1.4703369140625
1.4510009765624998
1.4437499999999999
2.222021484375
1.5355957031249998
1.4228027343749998
1.31162109375
0.9893554687499999
1.1657958984374999
0.87978515625
0.9385986328125
1.123095703125
1.3220947265624998
1.4066894531249998
1.4429443359374998
1.5090087890625
1.5484863281249999
1.574267578125
1.6105224609375
1.6363037109374998
1.593603515625
1.5863525390625
1.59521484375
1.0288330078124999
0.8258056640625
1.6008544921874999
1.6427490234375
1.7684326171875
1.8699462890624998
2.10439453125
2.727978515625
2.2196044921875
1.82724609375
1.5976318359375
1.5283447265624999
1.5267333984375
1.5267333984375
1.5122314453124999
1.4719482421874999
1.448583984375
1.4236083984374999
1.4800048828124999
1.464697265625
1.4687255859375
1.4542236328125
2.6055175781249997
1.6951171875
1.4864501953125
1.405078125
1.3817138671875
1.0385009765625
0.710595703125
0.9305419921875
1.0119140625
1.3156494140625
1.413134765625
1.461474609375
1.5041748046874999
1.571044921875
1.5807128906249999
1.561376953125
1.6910888671875
1.6056884765625
1.5968261718749999
1.59521484375
1.5807128906249999
0.3907470703125
1.538818359375
1.62744140625
1.6798095703125
1.8522216796875
2.1704589843749997
2.6804443359374996
2.4548583984375
1.8256347656249998
1.6137451171875
1.5146484375
1.4058837890625
1.5025634765625
1.5251220703125
1.5218994140625
1.4703369140625
1.448583984375
1.45341796875
1.4574462890625
1.4510009765624998
1.4767822265625
2.624853515625
1.75634765625
1.47275390625
1.42119140625
1.3599609375
1.4880615234374999
0.8024414062499999
0.9240966796875
1.01513671875
1.20849609375
1.3833251953124999
1.458251953125
1.456640625
1.5847412109374999
1.5662109375
1.59521484375
1.6346923828125
1.6056884765625
1.6081054687499998
1.6185791015625
1.5251220703125
0.2972900390625
1.2640869140625
1.5791015625
1.7249267578124998
1.851416015625
1.4953124999999998
2.3718749999999997
2.5732910156249997
1.964208984375
1.6798095703125
1.609716796875
1.5460693359375
1.5364013671874999
1.4816162109375
1.456640625
1.477587890625
1.4308593749999998
1.4461669921875
1.4590576171874998
1.4711425781249998
1.4687255859375
2.2051025390625
2.077001953125
1.4767822265625
1.4735595703125
1.3220947265624998
1.6008544921874999
0.807275390625
0.9249023437499999
0.9474609374999999
1.2415283203124998
1.36962890625
1.4252197265625
1.405078125
1.47275390625
1.4896728515625
1.6072998046875
1.658056640625
1.6266357421875
1.6306640625
1.5670166015625
1.5895751953125
0.749267578125
1.229443359375
1.5557373046874998
1.6669189453125
1.8554443359375
1.5919921874999998
1.7861572265624999
2.7739013671875
1.94970703125
1.7281494140625
1.6282470703124998
1.558154296875
1.5444580078124999
1.4751708984374998
1.46630859375
1.461474609375
1.456640625
1.4953124999999998
1.4638916015624999
1.4638916015624999
1.4469726562499998
2.0334960937499997
2.1382324218749997
1.5323730468749999
1.4268310546874998
1.3188720703124999
1.1190673828125
1.2616699218749998
0.849169921875
0.961962890625
1.1110107421875
1.34384765625
1.4445556640625
1.4767822265625
1.5170654296875
1.5275390624999998
1.5879638671874998
1.6153564453125
1.5960205078124998
1.5960205078124998
1.5525146484374999
1.5323730468749999
0.8918701171875
0.8483642578124999
1.5879638671874998
1.6669189453125
1.8062988281249999
2.0496093749999997
2.1793212890625
2.7545654296874997
2.0979492187499997
1.7772949218749998
1.6040771484374998
1.546875
1.5243164062499999
1.51787109375
1.5033691406249998
1.4961181640624999
1.4655029296875
1.4276367187499999
1.461474609375
1.464697265625
1.464697265625
1.4703369140625
2.615185546875
1.571044921875
1.4244140625
1.4147460937499998
1.3954101562499999
1.14404296875
0.8177490234375
0.8846191406249999
1.0787841796875
1.2979248046874998
1.4042724609375
1.4735595703125
1.5194824218749998
1.5444580078124999
1.5525146484374999
1.593603515625
1.6645019531249998
1.611328125
1.59521484375
1.5984375
1.5758789062499998
0.372216796875
1.522705078125
1.6314697265625
1.7249267578124998
1.9352050781249999
2.2453857421875
2.4556640625
2.2566650390625
1.8143554687499999
1.5895751953125
1.5138427734375
1.5243164062499999
1.538818359375
1.5194824218749998
1.4961181640624999
1.5138427734375
1.442138671875
1.461474609375
1.4655029296875
1.4800048828124999
1.456640625
2.615185546875
1.7136474609374999
1.4461669921875
1.4010498046875
1.4058837890625
1.329345703125
0.7339599609374999
0.9249023437499999
1.042529296875
1.2544189453124999
1.393798828125
1.4300537109375
1.4228027343749998
1.5831298828125
1.5984375
1.587158203125
1.6234130859375
1.585546875
1.587158203125
1.5976318359375
1.5839355468749998
0.3552978515625
1.3390136718749999
1.6314697265625
1.703173828125
1.8006591796875
1.432470703125
2.6417724609374997
2.5152832031249996
1.960986328125
1.6556396484375
1.5396240234374998
1.42119140625
1.493701171875
1.4759765624999999
1.474365234375
1.461474609375
1.4373046875
1.456640625
1.4961181640624999
1.4759765624999999
1.4679199218749999
2.328369140625
1.76279296875
1.4791992187499998
1.4469726562499998
1.2705322265624999
1.482421875
0.8290283203125
0.87978515625
1.018359375
1.2262207031249999
1.3728515625
1.4316650390624999
1.4590576171874998
1.5968261718749999
1.5702392578125
1.5839355468749998
1.6322753906249998
1.6161621093749998
1.5807128906249999
1.6000488281249998
1.5879638671874998
0.6090820312499999
1.3212890625
1.6000488281249998
1.6411376953124999
1.8087158203125
1.4598632812499999
1.9078125
2.7908203124999997
1.9569580078125
1.699951171875
1.6072998046875
1.5041748046874999
1.4961181640624999
1.4872558593749998
1.48564453125
1.4832275390624998
1.4356933593749999
1.4711425781249998
1.47275390625
1.4912841796874998
1.4832275390624998
2.1720703125
2.054443359375
1.525927734375
1.4622802734375
1.276171875
1.181103515625
1.2850341796875
0.97646484375
0.9402099609375
1.134375
1.3631835937499999
1.4268310546874998
1.4526123046875
1.529150390625
1.561376953125
1.5960205078124998
1.5927978515624999
1.585546875
1.5968261718749999
1.5960205078124998
1.5807128906249999
0.7081787109375
0.91845703125
1.5718505859374998
1.6330810546874999
1.7958251953125
2.176904296875
1.8046875
2.7835693359375
2.1277587890625
1.7152587890625
1.619384765625
1.5476806640624998
1.5218994140625
1.4945068359375
1.490478515625
1.477587890625
1.4445556640625
1.45341796875
1.4526123046875
1.4840332031249999
1.4719482421874999
1.46953125
2.57490234375
1.5243164062499999
1.4477783203124999
1.3792968749999999
1.0497802734375
1.168212890625
0.9434326171874999
0.8958984375
1.1093994140624999
1.3156494140625
1.393798828125
1.461474609375
1.4880615234374999
1.5847412109374999
1.5919921874999998
1.577490234375
1.65
1.6121337890624998
1.6040771484374998
1.5911865234375
1.558154296875
0.8056640625
1.5645996093749999
1.6209960937499999
1.79501953125
2.0246337890625
2.2099365234375
2.8093505859374996
2.023828125
1.74345703125
1.6040771484374998
1.5323730468749999
1.5146484375
1.529150390625
1.4993408203124998
1.4735595703125
1.4655029296875
1.464697265625
1.4630859374999998
1.4671142578124998
1.458251953125
1.4606689453125
2.6377441406249997
1.6846435546874998
1.4445556640625
1.3962158203125
1.377685546875
1.15048828125
0.8725341796874999
0.8910644531249999
1.0385009765625
1.303564453125
1.384130859375
1.43408203125
1.4953124999999998
1.5807128906249999
1.5726562499999999
1.5645996093749999
1.6725585937499998
1.6105224609375
1.6008544921874999
1.6137451171875
1.577490234375
0.37060546875
1.4066894531249998
1.62744140625
1.7015624999999999
1.8111328125
2.2421630859375
2.5797363281249996
2.4202148437499997
1.8199951171875
1.6491943359374999
1.5782958984375
1.5364013671874999
1.5364013671874999
1.5025634765625
1.480810546875
1.5114257812499998
1.4155517578124999
1.4671142578124998
1.4389160156249998
1.4501953125
1.4550292968749998
2.4129638671875
1.7265380859375
1.458251953125
1.4493896484375
1.3599609375
1.3817138671875
0.662255859375
0.887841796875
1.044140625
1.2431396484375
1.3599609375
1.4542236328125
1.4469726562499998
1.5654052734375
1.571044921875
1.6048828124999999
1.6089111328124999
1.5847412109374999
1.59521484375
1.590380859375
1.5863525390625
0.3391845703125
1.319677734375
1.6000488281249998
1.6894775390624999
1.80791015625
1.4558349609374999
1.9472900390624999
2.5813476562499997
1.9505126953124998
1.6991455078125
1.5621826171875
1.522705078125
1.5525146484374999
1.4993408203124998
1.4638916015624999
1.4687255859375
1.4373046875
1.458251953125
1.4719482421874999
1.4574462890625
1.4832275390624998
2.29453125
2.0536376953124997
1.4791992187499998
1.44052734375
1.268115234375
1.335791015625
0.8427246093749999
0.9152343749999999
0.9595458984374999
1.2109130859375
1.3704345703124998
1.4187744140624998
1.442138671875
1.5597656249999998
1.5927978515624999
1.5799072265624998
1.651611328125
1.6266357421875
1.611328125
1.5968261718749999
1.5992431640625
0.5615478515625
0.9869384765625
1.5895751953125
1.651611328125
1.812744140625
1.496923828125
2.0093261718749997
2.7626220703124997
1.9198974609375
1.6862548828125
1.5637939453124998
1.5404296874999999
1.5323730468749999
1.4711425781249998
1.5170654296875
1.4510009765624998
1.4703369140625
1.4961181640624999
1.4542236328125
1.461474609375
1.4671142578124998
1.47275390625
2.1333984375
1.5621826171875
1.4348876953124998
1.2608642578125
1.1255126953124999
1.284228515625
0.829833984375
0.9410156249999999
1.1271240234375
1.3285400390625
1.442138671875
1.45341796875
1.538818359375
1.561376953125
1.5637939453124998
1.6105224609375
1.6177734375
1.6048828124999999
1.59521484375
1.5863525390625
0.8129150390625
0.8507812499999999
1.5396240234374998
1.5702392578125
1.8095214843749998
2.1301757812499997
2.141455078125
2.7191162109375
2.2083251953125
1.8175781249999998
1.5984375
1.5428466796875
1.5243164062499999
1.5138427734375
1.5106201171875
1.4993408203124998
1.4872558593749998
1.4300537109375
1.461474609375
1.4606689453125
1.4759765624999999
1.4477783203124999
2.6014892578124997
1.5428466796875
1.432470703125
1.3744628906249998
1.3180664062499998
1.190771484375
0.8677001953125
0.8934814453125
1.1093994140624999
1.32451171875
1.3881591796875
1.4711425781249998
1.52109375
1.5734619140625
1.5766845703124999
1.6250244140624999
1.6363037109374998
1.5984375
1.60166015625
1.5807128906249999
1.558154296875
0.372216796875
1.5444580078124999
1.6177734375
1.7345947265625
2.0093261718749997
2.222021484375
2.6111572265625
2.1809326171875
1.8087158203125
1.62744140625
1.558154296875
1.5202880859374999
1.5162597656249999
1.4864501953125
1.4791992187499998
1.4469726562499998
1.445361328125
1.461474609375
1.4848388671875
1.4840332031249999
1.46953125
2.6490234375
1.6935058593749999
1.4791992187499998
1.3768798828125
1.3551269531249999
1.1698242187499999
0.74443359375
0.9208740234374999
1.03125
1.2415283203124998
1.3954101562499999
1.4437499999999999
1.4606689453125
1.593603515625
1.5750732421875
1.571044921875
1.6234130859375
1.6081054687499998
1.6056884765625
1.5960205078124998
1.5766845703124999
0.3472412109375
1.3599609375
1.5968261718749999
1.69833984375
1.7990478515625
1.4381103515625
2.65546875
2.450830078125
1.8989501953124999
1.6330810546874999
1.5702392578125
1.5154541015624998
1.5428466796875
1.4864501953125
1.4767822265625
1.47275390625
1.442138671875
1.448583984375
1.448583984375
1.4550292968749998
1.4703369140625
2.4129638671875
2.0044921875
1.4630859374999998
1.4598632812499999
1.297119140625
1.393798828125
0.7452392578125
0.936181640625
0.936181640625
1.224609375
1.3591552734374999
1.4244140625
1.445361328125
1.585546875
1.5839355468749998
1.590380859375
1.6169677734374999
1.593603515625
1.6040771484374998
1.5927978515624999
1.585546875
0.49467773437499996
1.3011474609375
1.5927978515624999
1.6459716796875
1.812744140625
1.4252197265625
1.95615234375
2.78759765625
1.977099609375
1.7208984374999998
1.603271484375
1.5355957031249998
1.5315673828124998
1.490478515625
1.4630859374999998
1.4735595703125
1.4413330078125
1.4872558593749998
1.4671142578124998
1.458251953125
1.4703369140625
2.2993652343749997
2.0898925781249997
1.5565429687499999
1.4461669921875
1.2721435546875
1.2987304687499999
1.2689208984375
0.91845703125
0.9490722656249999
1.1351806640625
1.3768798828125
1.4413330078125
1.4413330078125
1.525927734375
1.5791015625
1.5734619140625
1.6209960937499999
1.622607421875
1.606494140625
1.5927978515624999
1.5847412109374999
0.6243896484375
0.910400390625
1.5654052734375
1.6701416015625
1.84013671875
2.1720703125
1.8570556640625
2.7972656249999996
2.0939208984374997
1.7080078125
1.6008544921874999
1.529150390625
1.5202880859374999
1.4888671875
1.5218994140625
1.4953124999999998
1.4590576171874998
1.474365234375
1.4526123046875
1.4735595703125
1.47275390625
1.474365234375
2.5467041015625
1.5444580078124999
1.4526123046875
1.3784912109374998
1.1303466796875
1.26328125
0.78310546875
0.95390625
1.1150390625
1.332568359375
1.40830078125
1.4550292968749998
1.522705078125
1.5726562499999999
1.5799072265624998
1.5992431640625
1.6322753906249998
1.6048828124999999
1.5927978515624999
1.5799072265624998
1.558154296875
0.8266113281249999
1.542041015625
1.6105224609375
1.8183837890624999
2.1543457031249997
2.1390380859375
2.6361328124999996
2.1503173828124997
1.8014648437499998
1.6218017578125
1.5476806640624998
1.5251220703125
1.5355957031249998
1.5146484375
1.4832275390624998
1.4493896484375
1.4308593749999998
1.4703369140625
1.4711425781249998
1.4791992187499998
1.4518066406249999
2.5950439453125
1.651611328125
1.4381103515625
1.3631835937499999
1.3317626953125
0.9837158203124999
0.8846191406249999
0.9216796875
1.045751953125
1.2479736328125
1.3801025390625
1.4429443359374998
1.4703369140625
1.5670166015625
1.5815185546875
1.6177734375
1.6121337890624998
1.60166015625
1.5782958984375
1.5791015625
1.5879638671874998
0.38107910156249997
1.3736572265625
1.6129394531249999
1.7152587890625
1.791796875
2.2196044921875
2.4613037109375
2.473388671875
1.92392578125
1.6435546875
1.585546875
1.5275390624999998
1.5267333984375
1.50498046875
1.4783935546875
1.48564453125
1.432470703125
1.47275390625
1.4655029296875
1.4630859374999998
1.4574462890625
2.505615234375
1.6693359374999999
1.448583984375
1.4252197265625
1.3599609375
1.1939941406249999
0.6598388671875
0.9240966796875
1.0368896484374999
1.2495849609374998
1.3744628906249998
1.380908203125
1.4920898437499999
1.59521484375
1.6153564453125
1.577490234375
1.6322753906249998
1.590380859375
1.5984375
1.5976318359375
1.5807128906249999
0.36899414062499997
1.3656005859375
1.6121337890624998
1.6773925781249999
1.7829345703125
1.4510009765624998
2.1986572265624997
2.43955078125
1.9029785156249999
1.69833984375
1.577490234375
1.506591796875
1.522705078125
1.46953125
1.47275390625
1.4526123046875
1.4679199218749999
1.474365234375
1.4542236328125
1.4800048828124999
1.480810546875
2.3823486328125
1.9916015624999999
1.5154541015624998
1.4510009765624998
1.3019531249999998
1.496923828125
0.8040527343749999
0.8403076171874999
0.978076171875
1.152099609375
1.36962890625
1.4276367187499999
1.4445556640625
1.5831298828125
1.5895751953125
1.5815185546875
1.6379150390625
1.5895751953125
1.5927978515624999
1.5887695312499999
1.6089111328124999
0.5357666015625
1.042529296875
1.533984375
1.67578125
1.85302734375
2.115673828125
1.957763671875
2.7336181640625
2.0649169921875
1.67900390625
1.5944091796875
1.5380126953125
1.5323730468749999
1.506591796875
1.5645996093749999
1.5106201171875
1.4477783203124999
1.4864501953125
1.461474609375
1.4510009765624998
1.46953125
1.5782958984375
2.3952392578125
1.509814453125
1.41796875
1.3470703124999999
1.3124267578125
1.2938964843749998
0.9555175781249999
0.9329589843749999
1.134375
1.3140380859374998
1.400244140625
1.4518066406249999
1.545263671875
1.5782958984375
1.5968261718749999
1.5968261718749999
1.5718505859374998
1.59521484375
1.6040771484374998
1.6040771484374998
1.5162597656249999
0.9732421874999999
1.5863525390625
1.6201904296874998
1.7990478515625
2.13984375
1.993212890625
2.462109375
2.173681640625
1.78857421875
1.6250244140624999
1.5235107421874998
1.5235107421874998
1.5114257812499998
1.5243164062499999
1.5057861328125
1.4719482421874999
1.4252197265625
1.4518066406249999
1.4606689453125
1.458251953125
1.4953124999999998
2.4556640625
1.5831298828125
1.4171630859375
1.3583496093749998
1.2221923828124999
0.9063720703125
0.889453125
0.9772705078124999
1.1053710937499999
1.3019531249999998
1.397021484375
1.4558349609374999
1.464697265625
1.571044921875
1.5927978515624999
1.5847412109374999
1.6218017578125
1.6008544921874999
1.5847412109374999
1.5879638671874998
1.5517089843749998
0.5325439453124999
1.4574462890625
1.6177734375
1.716064453125
1.7579589843749999
2.07216796875
2.6449951171875
2.255859375
1.82080078125
1.606494140625
1.5396240234374998
1.529150390625
1.5082031249999999
1.4864501953125
1.4961181640624999
1.458251953125
1.4622802734375
1.4655029296875
1.4630859374999998
1.46953125
1.482421875
2.495947265625
1.6298583984375
1.47275390625
1.445361328125
1.3414306640625
1.0159423828125
0.7710205078125
0.9611572265624999
1.0691162109374999
1.2737548828124998
1.37607421875
1.4542236328125
1.4872558593749998
1.5807128906249999
1.5758789062499998
1.5686279296874999
1.6105224609375
1.56943359375
1.58232421875
1.5791015625
1.5686279296874999
0.4962890625
1.426025390625
1.6346923828125
1.6540283203125
1.7611816406249998
1.5984375
2.2236328125
2.3533447265625
1.8586669921874999
1.6773925781249999
1.5807128906249999
1.5299560546875
1.5235107421874998
1.4880615234374999
1.4800048828124999
1.4993408203124998
1.43408203125
1.480810546875
1.4622802734375
1.46630859375
1.458251953125
2.41376953125
1.8796142578125
1.4880615234374999
1.4348876953124998
1.30517578125
1.587158203125
0.7154296874999999
0.9643798828125
1.0336669921875
1.2076904296875
1.3865478515624998
1.45341796875
1.4373046875
1.5831298828125
1.5791015625
1.5968261718749999
1.587158203125
1.5799072265624998
1.59521484375
1.5992431640625
1.5847412109374999
0.517236328125
1.1706298828125
1.6000488281249998
1.6620849609375
1.8417480468749998
1.4703369140625
2.04638671875
2.6756103515625
1.9988525390624998
1.6749755859375
1.5831298828125
1.5396240234374998
1.5484863281249999
1.4888671875
1.5275390624999998
1.4872558593749998
1.4308593749999998
1.4671142578124998
1.4687255859375
1.4791992187499998
1.4622802734375
1.6806152343749998
1.9400390625
1.4961181640624999
1.432470703125
1.3019531249999998
1.4703369140625
1.2753662109375
0.8902587890625
1.02802734375
1.1947998046875
1.36962890625
1.3752685546874999
1.461474609375
1.5380126953125
1.5637939453124998
1.561376953125
1.606494140625
1.6072998046875
1.603271484375
1.5831298828125
1.5750732421875
0.5986083984375
1.0916748046875
1.6129394531249999
1.6234130859375
1.8256347656249998
2.09150390625
1.8506103515624999
2.6562744140624996
1.989990234375
1.72734375
1.5815185546875
1.545263671875
1.5162597656249999
1.5194824218749998
1.5364013671874999
1.480810546875
1.4510009765624998
1.4872558593749998
1.46630859375
1.4816162109375
1.4703369140625
1.5678222656249998
2.3581787109375
1.561376953125
1.4308593749999998
1.3656005859375
1.1625732421875
1.3229003906249999
0.9402099609375
0.9555175781249999
1.103759765625
1.3494873046875
1.3986328124999998
1.4501953125
1.55009765625
1.577490234375
1.5799072265624998
1.6089111328124999
1.585546875
1.590380859375
1.5766845703124999
1.60166015625
1.4679199218749999
0.6090820312499999
1.5702392578125
1.60166015625
1.7281494140625
2.1197021484375
1.9658203125
2.5233398437499996
2.2582763671875
1.7652099609374998
1.625830078125
1.5645996093749999
1.5283447265624999
1.5517089843749998
1.5041748046874999
1.50498046875
1.4928955078125
1.42119140625
1.458251953125
1.46630859375
1.47275390625
1.4638916015624999
2.4435791015625
1.5944091796875
1.46630859375
1.3929931640625
1.2882568359375
0.9571289062499999
0.7291259765625
0.9740478515625
1.1206787109375
1.271337890625
1.4058837890625
1.46630859375
1.4832275390624998
1.5686279296874999
1.574267578125
1.6056884765625
1.6153564453125
1.6000488281249998
1.5782958984375
1.5911865234375
1.5484863281249999
0.5349609375
1.4413330078125
1.6129394531249999
1.7233154296875
1.7732666015624998
1.6765869140624998
2.5249511718749997
2.3195068359374997
1.861083984375
1.60166015625
1.554931640625
1.525927734375
1.5364013671874999
1.4864501953125
1.4783935546875
1.4791992187499998
1.4558349609374999
1.5025634765625
1.4896728515625
1.477587890625
1.4655029296875
2.4177978515625
1.832080078125
1.4711425781249998
1.442138671875
1.3446533203125
1.04736328125
0.8177490234375
0.9490722656249999
1.0658935546875
1.276171875
1.3849365234375
1.4364990234375
1.464697265625
1.5758789062499998
1.5839355468749998
1.5645996093749999
1.619384765625
1.603271484375
1.609716796875
1.59521484375
1.574267578125
0.501123046875
1.43408203125
1.6040771484374998
1.6669189453125
1.8369140625
1.5001464843749999
2.2469970703124997
2.5732910156249997
1.8457763671874998
1.651611328125
1.5734619140625
1.529150390625
1.5476806640624998
1.5162597656249999
1.4840332031249999
1.4848388671875
1.4397216796874999
1.4671142578124998
1.46953125
1.4687255859375
1.4590576171874998
2.3597900390624997
1.8957275390625
1.4872558593749998
1.4461669921875
1.3027587890624999
1.5678222656249998
1.2447509765625
1.00224609375
1.02802734375
1.21494140625
1.3664062499999998
1.4252197265625
1.445361328125
1.542041015625
1.5911865234375
1.5645996093749999
1.6056884765625
1.58232421875
1.5887695312499999
1.5750732421875
1.5815185546875
0.5768554687499999
1.1698242187499999
1.58232421875
1.6620849609375
1.851416015625
2.0101318359375
2.0133544921874997
2.6232421875
2.02705078125
1.6717529296875
1.5944091796875
1.53720703125
1.5364013671874999
1.493701171875
1.5412353515625
1.4953124999999998
1.4348876953124998
1.4590576171874998
1.4574462890625
1.464697265625
1.4703369140625
1.662890625
2.296142578125
1.506591796875
1.4284423828125
1.3510986328124999
1.4364990234375
1.2721435546875
0.9982177734375
0.968408203125
1.1802978515625
1.340625
1.42119140625
1.4638916015624999
1.5436523437499998
1.5766845703124999
1.5782958984375
1.6121337890624998
1.5750732421875
1.5895751953125
1.593603515625
1.5863525390625
1.36962890625
1.0892578124999999
1.5702392578125
1.609716796875
1.8344970703124999
2.0898925781249997
1.8554443359375
2.6401611328124996
2.0020751953125
1.73056640625
1.60166015625
1.5444580078124999
1.5162597656249999
1.529150390625
1.5355957031249998
1.4912841796874998
1.4493896484375
1.4332763671875
1.4550292968749998
1.464697265625
1.474365234375
1.5355957031249998
2.36865234375
1.5621826171875
1.4284423828125
1.3631835937499999
1.2125244140625
0.9450439453124999
0.8693115234375
0.9966064453125
1.1061767578125
1.3543212890624998
1.4074951171874999
1.46630859375
1.4888671875
1.56943359375
1.577490234375
1.5782958984375
1.587158203125
1.60166015625
1.590380859375
1.5863525390625
1.4783935546875
0.636474609375
1.490478515625
1.6056884765625
1.735400390625
1.7289550781249998
1.9537353515625
2.599072265625
2.2026855468749997
1.7635986328125
1.64677734375
1.58232421875
1.533984375
1.5347900390625
1.5194824218749998
1.4977294921875
1.4558349609374999
1.429248046875
1.4622802734375
1.4622802734375
1.461474609375
1.4606689453125
2.489501953125
1.5895751953125
1.4469726562499998
1.4228027343749998
1.3229003906249999
0.9821044921875
0.7323486328125
0.978076171875
1.094091796875
1.281005859375
1.3833251953124999
1.458251953125
1.4711425781249998
1.571044921875
1.5750732421875
1.5919921874999998
1.5944091796875
1.585546875
1.60166015625
1.5992431640625
1.571044921875
0.54140625
1.4574462890625
1.619384765625
1.7265380859375
1.77890625
1.6137451171875
2.209130859375
2.373486328125
1.8707519531249999
1.6765869140624998
1.5766845703124999
1.53076171875
1.5404296874999999
1.506591796875
1.4993408203124998
1.4977294921875
1.445361328125
1.4791992187499998
1.4783935546875
1.480810546875
1.461474609375
2.425048828125
1.8385253906249999
1.45341796875
1.4236083984374999
1.316455078125
1.6137451171875
0.726708984375
0.9893554687499999
1.045751953125
1.2890625
1.3833251953124999
1.4501953125
1.4510009765624998
1.5807128906249999
1.5799072265624998
1.5702392578125
1.6371093749999999
1.5927978515624999
1.6024658203125
1.5911865234375
1.5686279296874999
0.5293212890625
1.1964111328125
1.60166015625
1.6371093749999999
1.8385253906249999
1.4928955078125
2.20107421875
2.5958496093749996
1.8441650390625
1.662890625
1.593603515625
1.5573486328125
1.5621826171875
1.4896728515625
1.533984375
1.4558349609374999
1.4590576171874998
1.4816162109375
1.46630859375
1.4767822265625
1.4687255859375
1.7297607421874999
1.8900878906249998
1.4864501953125
1.44052734375
1.3156494140625
1.5017578125
1.2785888671874999
0.9772705078124999
1.0352783203125
1.1939941406249999
1.3817138671875
1.4356933593749999
1.4558349609374999
1.538818359375
1.5758789062499998
1.5662109375
1.6105224609375
1.58232421875
1.6000488281249998
1.5879638671874998
1.5911865234375
0.59619140625
1.1512939453125
1.5807128906249999
1.658056640625
1.8175781249999998
2.02705078125
1.8248291015625
2.6272705078125
1.98193359375
1.7176757812499999
1.5927978515624999
1.5444580078124999
1.529150390625
1.5033691406249998
1.53720703125
1.4888671875
1.4598632812499999
1.4711425781249998
1.4638916015624999
1.464697265625
1.474365234375
1.6290527343749999
2.2969482421875
1.490478515625
1.4501953125
1.3664062499999998
1.12470703125
1.2769775390625
1.02158203125
0.9643798828125
1.174658203125
1.340625
1.40185546875
1.4606689453125
1.5484863281249999
1.5686279296874999
1.5847412109374999
1.5984375
1.5750732421875
1.6081054687499998
1.5831298828125
1.577490234375
1.4244140625
0.6751464843749999
1.603271484375
1.619384765625
1.7370117187499998
2.096337890625
1.9053955078125
2.4943359375
2.230078125
1.75634765625
1.6306640625
1.571044921875
1.5396240234374998
1.5194824218749998
1.5154541015624998
1.4961181640624999
1.4711425781249998
1.416357421875
1.4791992187499998
1.474365234375
1.474365234375
1.4671142578124998
2.38154296875
1.5734619140625
1.47275390625
1.3801025390625
1.2342773437499999
0.9434326171874999
0.7412109375
0.9966064453125
1.1214843749999999
1.2979248046874998
1.4115234374999999
1.4622802734375
1.4735595703125
1.5670166015625
1.5919921874999998
1.5839355468749998
1.6346923828125
1.58232421875
1.5815185546875
1.5887695312499999
1.5218994140625
0.6123046875
1.4888671875
1.6266357421875
1.7257324218749999
1.7418457031249999
1.703173828125
2.5950439453125
2.1954345703125
1.8119384765625
1.6105224609375
1.5621826171875
1.5299560546875
1.5476806640624998
1.509814453125
1.477587890625
1.4832275390624998
1.4598632812499999
1.477587890625
1.458251953125
1.4622802734375
1.4703369140625
2.4290771484375
1.7845458984375
1.464697265625
1.416357421875
1.3333740234375
1.0320556640625
0.7637695312499999
0.9933837890624999
1.0513916015625
1.3027587890624999
1.397021484375
1.4542236328125
1.493701171875
1.5734619140625
1.5807128906249999
1.574267578125
1.6121337890624998
1.5734619140625
1.6048828124999999
1.5944091796875
1.590380859375
0.5124023437499999
1.4671142578124998
1.6201904296874998
1.6701416015625
1.8409423828125
1.5686279296874999
2.1583740234374997
2.5491210937499997
1.8417480468749998
1.6612792968749999
1.6105224609375
1.546875
1.5412353515625
1.5009521484375
1.5412353515625
1.5106201171875
1.43408203125
1.448583984375
1.4711425781249998
1.490478515625
1.4574462890625
2.3871826171875
1.8304687499999999
1.4816162109375
1.426025390625
1.3100097656249998
1.5944091796875
1.1287353515625
0.992578125
1.0417236328125
1.203662109375
1.3575439453125
1.4397216796874999
1.45341796875
1.5428466796875
1.6048828124999999
1.5887695312499999
1.6072998046875
1.585546875
1.5919921874999998
1.5766845703124999
1.5702392578125
0.5607421874999999
1.1939941406249999
1.5734619140625
1.6508056640625
1.8465820312499999
1.9263427734374998
2.0359130859375
2.6296874999999997
1.9787109374999998
1.7265380859375
1.5839355468749998
1.5517089843749998
1.529150390625
1.4961181640624999
1.5331787109375
1.4832275390624998
1.4510009765624998
1.4783935546875
1.4711425781249998
1.4703369140625
1.4671142578124998
1.6886718749999998
2.222021484375
1.493701171875
1.4397216796874999
1.3559326171875
1.48564453125
1.2640869140625
0.9144287109375
1.0127197265624999
1.198828125
1.35673828125
1.42119140625
1.4655029296875
1.5323730468749999
1.55009765625
1.5766845703124999
1.60166015625
1.587158203125
1.5976318359375
1.6129394531249999
1.5766845703124999
1.3365966796875
1.152099609375
1.6072998046875
1.6306640625
1.7184814453125
2.051220703125
1.8232177734375
2.5934326171874997
1.9464843749999998
1.7200927734375
1.611328125
1.5315673828124998
1.53720703125
1.5299560546875
1.4880615234374999
1.4791992187499998
1.4429443359374998
1.4228027343749998
1.4679199218749999
1.46953125
1.4735595703125
1.5541259765625
2.3074218749999997
1.546875
1.4510009765624998
1.3817138671875
1.187548828125
0.97646484375
0.9563232421875
0.990966796875
1.135986328125
1.2955078125
1.3962158203125
1.4437499999999999
1.490478515625
1.5637939453124998
1.593603515625
1.5976318359375
1.5726562499999999
1.6048828124999999
1.6024658203125
1.5758789062499998
1.4888671875
0.6832031249999999
1.5299560546875
1.6089111328124999
1.7297607421874999
1.7531249999999998
1.9343994140624998
2.4000732421874997
2.2510253906249997
1.812744140625
1.6363037109374998
1.5637939453124998
1.5323730468749999
1.5396240234374998
1.5162597656249999
1.5001464843749999
1.4945068359375
1.4381103515625
1.4711425781249998
1.4622802734375
1.4655029296875
1.464697265625
2.4451904296875
1.5597656249999998
1.4332763671875
1.4203857421875
1.2906738281249999
0.9837158203124999
0.7460449218749999
0.9958007812499999
1.1255126953124999
1.3043701171875
1.3865478515624998
1.4638916015624999
1.4759765624999999
1.5670166015625
1.574267578125
1.5791015625
1.609716796875
1.59521484375
1.5992431640625
1.5960205078124998
1.5968261718749999
0.605859375
1.482421875
1.6403320312499998
1.65
1.7531249999999998
1.6282470703124998
2.2131591796875
2.2872802734374997
1.828857421875
1.654833984375
1.561376953125
1.53076171875
1.5509033203125
1.5082031249999999
1.4961181640624999
1.4751708984374998
1.46630859375
1.4735595703125
1.4606689453125
1.4703369140625
1.4655029296875
2.38154296875
1.8224121093749999
1.4783935546875
1.4413330078125
1.3261230468749998
1.6008544921874999
0.807275390625
0.97001953125
1.0658935546875
1.2157470703125
1.4058837890625
1.4493896484375
1.4518066406249999
1.5645996093749999
1.5968261718749999
1.5791015625
1.6169677734374999
1.593603515625
1.6024658203125
1.5919921874999998
1.56298828125
0.5502685546875
1.2189697265625
1.6177734375
1.6653076171874999
1.8240234375
1.4872558593749998
2.152734375
2.566845703125
1.957763671875
1.6645019531249998
1.6008544921874999
1.5509033203125
1.538818359375
1.5009521484375
1.533984375
1.4920898437499999
1.448583984375
1.480810546875
1.456640625
1.46630859375
1.4703369140625
1.7507080078125
1.8844482421875
1.4848388671875
1.43408203125
1.3269287109374999
1.5299560546875
1.2745605468749999
0.9869384765625
1.0288330078124999
1.1923828125
1.345458984375
1.43408203125
1.4381103515625
1.546875
1.5621826171875
1.5654052734375
1.5976318359375
1.5686279296874999
1.590380859375
1.5960205078124998
1.5887695312499999
0.6517822265625
1.1456542968749999
1.5831298828125
1.6105224609375
1.8296630859374998
2.0085205078125
1.80791015625
2.6224365234375
2.0504150390625
1.7362060546875
1.5911865234375
1.55009765625
1.5364013671874999
1.5517089843749998
1.571044921875
1.4840332031249999
1.464697265625
