1.46953125
2.147900390625
2.4113525390625
1.53720703125
1.4953124999999998
1.31162109375
1.6765869140624998
1.1609619140625
0.8660888671875
0.8677001953125
1.1432373046875
1.3043701171875
1.3583496093749998
1.4010498046875
1.5460693359375
1.5726562499999999
1.5509033203125
1.5597656249999998
1.5404296874999999
1.5992431640625
1.5815185546875
1.5541259765625
0.7541015624999999
0.53173828125
1.5565429687499999
1.6363037109374998
1.767626953125
1.7821289062499999
1.7370117187499998
3.02607421875
2.0898925781249997
1.7184814453125
1.58232421875
1.546875
1.5283447265624999
1.5017578125
1.48564453125
1.4928955078125
1.482421875
1.4606689453125
1.4791992187499998
1.5146484375
1.506591796875
1.4840332031249999
2.521728515625
1.6693359374999999
1.5251220703125
1.3253173828125
0.8765624999999999
1.0787841796875
0.60263671875
0.833056640625
1.0046630859374999
1.2938964843749998
1.3921875
1.4348876953124998
1.4928955078125
1.5944091796875
1.5815185546875
1.5726562499999999
1.6540283203125
1.585546875
1.5758789062499998
1.5718505859374998
0.8660888671875
0.4318359375
1.4783935546875
1.6072998046875
1.732177734375
1.9456787109375
2.3243408203125
3.0204345703124997
2.302587890625
1.8312744140625
1.6121337890624998
1.5355957031249998
1.5267333984375
1.5565429687499999
1.4751708984374998
1.474365234375
1.5009521484375
1.416357421875
1.4872558593749998
1.4832275390624998
1.50498046875
1.490478515625
3.0244628906249997
1.869140625
1.4848388671875
1.409912109375
1.36962890625
0.90556640625
0.554296875
0.81533203125
0.8822021484375
1.29228515625
1.3736572265625
1.426025390625
1.3817138671875
1.6081054687499998
1.6072998046875
1.5815185546875
1.65966796875
1.5541259765625
1.59521484375
1.5807128906249999
1.5662109375
0.0322265625
1.1899658203124999
1.6314697265625
1.6806152343749998
1.835302734375
2.1785156249999997
2.745703125
2.80048828125
2.0052978515624997
1.63388671875
1.5428466796875
1.5235107421874998
1.5815185546875
1.5114257812499998
1.4832275390624998
1.4880615234374999
1.496923828125
1.46953125
1.4671142578124998
1.480810546875
1.4711425781249998
2.537841796875
1.9311767578124999
1.5299560546875
1.5090087890625
1.3527099609375
1.5533203125
0.8483642578124999
0.749267578125
0.903955078125
1.152099609375
1.335791015625
1.4236083984374999
1.432470703125
1.5750732421875
1.5782958984375
1.5944091796875
1.58232421875
1.5895751953125
1.5766845703124999
1.5758789062499998
1.571044921875
0.36899414062499997
1.135986328125
1.574267578125
1.6250244140624999
1.8578613281249998
1.5162597656249999
1.7974365234374998
3.0244628906249997
2.0488037109375
1.7200927734375
1.5654052734375
1.509814453125
1.5807128906249999
1.490478515625
1.4872558593749998
1.5009521484375
1.4767822265625
1.545263671875
1.4767822265625
1.4800048828124999
1.4679199218749999
2.263916015625
2.3920166015624997
1.6081054687499998
1.4832275390624998
1.2898681640624998
1.1077880859375
1.287451171875
0.6727294921875
0.8564208984374999
0.9990234375
1.3543212890624998
1.40830078125
1.4187744140624998
1.5235107421874998
1.5726562499999999
1.5662109375
1.577490234375
1.577490234375
1.5976318359375
1.6008544921874999
1.5887695312499999
0.515625
0.5994140625
1.5283447265624999
1.6250244140624999
1.7700439453124999
2.21396484375
2.29775390625
3.0252685546875
2.2341064453125
1.8248291015625
1.611328125
1.5662109375
1.538818359375
1.5090087890625
1.4735595703125
1.458251953125
1.4880615234374999
1.4711425781249998
1.4888671875
1.4719482421874999
1.4896728515625
1.4993408203124998
2.9608154296875
1.6475830078125
1.5017578125
1.4203857421875
1.3583496093749998
1.1335693359374999
0.605859375
0.8113037109375
1.0014404296875
1.2785888671874999
1.38896484375
1.456640625
1.5001464843749999
1.5847412109374999
1.5992431640625
1.5637939453124998
1.6435546875
1.585546875
1.5992431640625
1.5662109375
1.542041015625
0.0322265625
1.4872558593749998
1.6161621093749998
1.6927001953124998
1.7458740234374999
2.3638183593749997
2.82626953125
2.6844726562499996
1.8393310546875
1.658056640625
1.5791015625
1.5162597656249999
1.529150390625
1.513037109375
1.4671142578124998
1.4896728515625
1.474365234375
1.4711425781249998
1.4655029296875
1.4872558593749998
1.4703369140625
3.005126953125
1.8369140625
1.5106201171875
1.482421875
1.3801025390625
1.2415283203124998
0.688037109375
0.8451416015625
0.9232910156249999
1.1819091796874999
1.33740234375
1.4332763671875
1.4236083984374999
1.5654052734375
1.585546875
1.60166015625
1.5960205078124998
1.5944091796875
1.571044921875
1.5847412109374999
1.56298828125
0.0346435546875
1.2173583984375
1.6201904296874998
1.6298583984375
1.7829345703125
1.3897705078125
1.973876953125
2.7561767578125
1.9988525390624998
1.6733642578124999
1.5847412109374999
1.533984375
1.5460693359375
1.4759765624999999
1.4679199218749999
1.4751708984374998
1.4880615234374999
1.4816162109375
1.496923828125
1.5025634765625
1.4679199218749999
2.5547607421875
2.2502197265625
1.5758789062499998
1.4800048828124999
1.27939453125
1.4228027343749998
0.8427246093749999
0.7484619140625
0.8596435546875
1.069921875
1.32451171875
1.4147460937499998
1.4244140625
1.5919921874999998
1.5718505859374998
1.5670166015625
1.56298828125
1.574267578125
1.609716796875
1.5734619140625
1.5758789062499998
0.3601318359375
0.75732421875
1.5154541015624998
1.6411376953124999
1.8183837890624999
2.2880859375
1.82724609375
3.0252685546875
2.2244384765625
1.72412109375
1.5726562499999999
1.5194824218749998
1.5396240234374998
1.4711425781249998
1.509814453125
1.5001464843749999
1.46630859375
1.5347900390625
1.4912841796874998
1.48564453125
1.474365234375
1.496923828125
2.8045166015625
1.5984375
1.474365234375
1.3792968749999999
1.2157470703125
1.327734375
0.6743408203125
0.8523925781249999
1.0489746093749999
1.297119140625
1.3825195312499998
1.4244140625
1.525927734375
1.5766845703124999
1.577490234375
1.5815185546875
1.5637939453124998
1.587158203125
1.5863525390625
1.5678222656249998
1.4928955078125
0.6791748046874999
1.5678222656249998
1.593603515625
1.7096191406249999
2.2751953124999997
2.1873779296875
2.9455078125
2.2067138671874997
1.7958251953125
1.6250244140624999
1.5718505859374998
1.538818359375
1.529150390625
1.493701171875
1.4759765624999999
1.490478515625
1.4751708984374998
1.4993408203124998
1.4816162109375
1.493701171875
1.464697265625
2.8810546875
1.7474853515625
1.4896728515625
1.3986328124999998
1.3204833984375
0.8741455078125
0.6437255859375
0.865283203125
0.9732421874999999
1.2238037109375
1.3631835937499999
1.429248046875
1.4518066406249999
1.5702392578125
1.5879638671874998
1.5678222656249998
1.58232421875
1.6024658203125
1.5895751953125
1.585546875
1.5541259765625
0.0652587890625
1.32451171875
1.6169677734374999
1.6773925781249999
1.7732666015624998
1.4671142578124998
2.8391601562499997
2.5885986328125
1.9505126953124998
1.6830322265625
1.5702392578125
1.5331787109375
1.5509033203125
1.5082031249999999
1.4735595703125
1.477587890625
1.4864501953125
1.4751708984374998
1.4751708984374998
1.493701171875
1.4719482421874999
2.784375
2.08505859375
1.5106201171875
1.482421875
1.3156494140625
1.1021484375
0.605859375
0.837890625
0.9031494140624999
1.2157470703125
1.3575439453125
1.4107177734374998
1.4187744140624998
1.593603515625
1.6081054687499998
1.5839355468749998
1.5766845703124999
1.5799072265624998
1.587158203125
1.5766845703124999
1.5637939453124998
0.0966796875
0.9555175781249999
1.6250244140624999
1.6266357421875
1.8344970703124999
1.3768798828125
2.1865722656249997
2.9914306640625
2.0842529296875
1.6862548828125
1.5791015625
1.5396240234374998
1.5670166015625
1.48564453125
1.51787109375
1.4759765624999999
1.4993408203124998
1.5492919921875
1.4888671875
1.4816162109375
1.4888671875
1.6572509765624999
2.157568359375
1.5645996093749999
1.48564453125
1.30517578125
1.5009521484375
1.3446533203125
0.75087890625
0.8902587890625
1.0852294921874999
1.3124267578125
1.405078125
1.4381103515625
1.533984375
1.59521484375
1.587158203125
1.56943359375
1.4953124999999998
1.5863525390625
1.5847412109374999
1.574267578125
1.2141357421874999
0.8685058593749999
1.545263671875
1.6201904296874998
1.828857421875
2.215576171875
1.920703125
2.9656494140625
2.141455078125
1.7724609375
1.6121337890624998
1.5436523437499998
1.529150390625
1.52109375
1.5186767578125
1.496923828125
1.5041748046874999
1.3978271484375
1.48564453125
1.4880615234374999
1.4880615234374999
1.5380126953125
2.737646484375
1.703173828125
1.5057861328125
1.3720458984375
1.0973144531249999
0.8258056640625
0.6968994140625
0.8701171875
0.974853515625
1.31162109375
1.3897705078125
1.4236083984374999
1.4493896484375
1.5895751953125
1.5895751953125
1.5791015625
1.5251220703125
1.5702392578125
1.5758789062499998
1.58232421875
1.4679199218749999
0.20463867187499998
1.3897705078125
1.6177734375
1.7128417968749998
1.7579589843749999
1.8022705078124999
2.9318115234374997
2.4419677734375
1.8820312499999998
1.622607421875
1.5573486328125
1.5315673828124998
1.53720703125
1.4896728515625
1.4630859374999998
1.490478515625
1.4598632812499999
1.50498046875
1.490478515625
1.5082031249999999
1.4655029296875
2.9116699218749997
1.732177734375
1.5235107421874998
1.480810546875
1.3253173828125
0.8370849609375
0.6727294921875
0.8499755859375
0.9901611328125
1.213330078125
1.332568359375
1.4034667968749999
1.4558349609374999
1.5839355468749998
1.6000488281249998
1.5565429687499999
1.5984375
1.56943359375
1.6008544921874999
1.5758789062499998
1.5654052734375
0.0443115234375
1.3237060546875
1.6346923828125
1.6411376953124999
1.8224121093749999
1.5331787109375
2.3783203125
2.9076416015624997
1.9247314453125
1.6773925781249999
1.5750732421875
1.546875
1.5686279296874999
1.5162597656249999
1.52109375
1.509814453125
1.4719482421874999
1.5001464843749999
1.47275390625
1.5001464843749999
1.4751708984374998
2.811767578125
2.04638671875
1.538818359375
1.4800048828124999
1.3349853515624999
1.667724609375
1.26328125
0.8056640625
0.9490722656249999
1.1303466796875
1.3253173828125
1.416357421875
1.38896484375
1.5637939453124998
1.5960205078124998
1.5831298828125
1.577490234375
1.5001464843749999
1.5984375
1.58232421875
1.56298828125
0.1313232421875
0.9490722656249999
1.5541259765625
1.603271484375
1.8393310546875
1.980322265625
1.748291015625
2.979345703125
2.0955322265625
1.716064453125
1.590380859375
1.55009765625
1.545263671875
1.5251220703125
1.5114257812499998
1.4848388671875
1.5033691406249998
1.5645996093749999
1.4880615234374999
1.4783935546875
1.4767822265625
1.7128417968749998
2.576513671875
1.6620849609375
1.4791992187499998
1.35673828125
0.8838134765625
1.340625
0.6888427734375
0.8999267578125
1.03125
1.3148437499999999
1.37607421875
1.442138671875
1.5412353515625
1.6048828124999999
1.5911865234375
1.5476806640624998
1.5033691406249998
1.5847412109374999
1.5968261718749999
1.5839355468749998
1.2479736328125
0.330322265625
1.4429443359374998
1.6048828124999999
1.74345703125
1.8046875
1.8828369140624999
2.9503417968749996
2.4041015624999997
1.7700439453124999
1.5984375
1.554931640625
1.5517089843749998
1.533984375
1.4993408203124998
1.4655029296875
1.5033691406249998
1.40185546875
1.5009521484375
1.4655029296875
1.4800048828124999
1.4848388671875
2.9817626953125
1.683837890625
1.5041748046874999
1.44052734375
1.0376953125
0.8314453125
0.662255859375
0.845947265625
0.974853515625
1.2624755859374999
1.3656005859375
1.4348876953124998
1.4719482421874999
1.6081054687499998
1.59521484375
1.5637939453124998
1.635498046875
1.5654052734375
1.5895751953125
1.561376953125
1.5589599609375
0.19255371093749998
1.3857421875
1.6298583984375
1.6781982421875
1.7507080078125
1.8739746093749998
2.4427734375
2.5080322265625
1.9392333984374999
1.6717529296875
1.5686279296874999
1.53720703125
1.5509033203125
1.4912841796874998
1.48564453125
1.496923828125
1.49853515625
1.5162597656249999
1.477587890625
1.4671142578124998
1.4622802734375
2.9688720703125
1.96904296875
1.5251220703125
1.4703369140625
1.3365966796875
1.6403320312499998
0.620361328125
0.829833984375
0.9289306640624999
1.1432373046875
1.3623779296874998
1.4139404296875
1.405078125
1.5509033203125
1.587158203125
1.5791015625
1.5863525390625
1.6024658203125
1.59521484375
1.5895751953125
1.5734619140625
0.0298095703125
1.068310546875
1.5565429687499999
1.6612792968749999
1.8296630859374998
1.65
1.7265380859375
2.892333984375
2.0520263671875
1.7233154296875
1.5847412109374999
1.533984375
1.545263671875
1.5009521484375
1.506591796875
1.4993408203124998
1.482421875
1.50498046875
1.506591796875
1.5251220703125
1.4872558593749998
2.02705078125
2.421826171875
1.5541259765625
1.490478515625
1.3229003906249999
0.9974121093749999
1.235888671875
0.7259033203124999
0.8805908203124999
1.1480712890625
1.3229003906249999
1.3913818359374999
1.40830078125
1.538818359375
1.5766845703124999
1.5702392578125
1.587158203125
1.538818359375
1.574267578125
1.5879638671874998
1.5621826171875
0.8048583984375
0.55751953125
1.5637939453124998
1.6218017578125
1.7345947265625
2.0334960937499997
1.7490966796874998
3.003515625
2.2824462890625
1.7329833984374998
1.60166015625
1.5605712890624999
1.545263671875
1.5146484375
1.5009521484375
1.4864501953125
1.4888671875
1.44052734375
1.490478515625
1.4961181640624999
1.4840332031249999
1.4977294921875
2.5168945312499997
1.66611328125
1.4945068359375
1.4356933593749999
0.9152343749999999
1.036083984375
0.6082763671875
0.8693115234375
1.007080078125
1.2858398437499998
1.3712402343749999
1.432470703125
1.477587890625
1.56943359375
1.5782958984375
1.5734619140625
1.6532226562499999
1.585546875
1.585546875
1.58232421875
1.5589599609375
0.42619628906249996
1.4791992187499998
1.6250244140624999
1.6540283203125
1.85625
2.2792236328124997
2.8544677734375
2.2792236328124997
1.8216064453124998
1.6403320312499998
1.5557373046874998
1.5436523437499998
1.5218994140625
1.5041748046874999
1.4896728515625
1.4928955078125
1.48564453125
1.4880615234374999
1.4920898437499999
1.496923828125
1.4912841796874998
2.9583984374999996
1.8659179687499998
1.5194824218749998
1.4461669921875
1.3752685546874999
1.40830078125
0.575244140625
0.871728515625
0.95068359375
1.1947998046875
1.3784912109374998
1.4300537109375
1.416357421875
1.5895751953125
1.587158203125
1.5815185546875
1.5702392578125
1.5597656249999998
1.5799072265624998
1.5766845703124999
1.5645996093749999
0.0346435546875
1.2052734375
1.6048828124999999
1.6636962890625
1.8103271484374999
1.45341796875
2.7013916015625
2.7255615234375
1.972265625
1.6427490234375
1.542041015625
1.5364013671874999
1.5807128906249999
1.5355957031249998
1.4872558593749998
1.4840332031249999
1.482421875
1.4719482421874999
1.490478515625
1.4880615234374999
1.46953125
2.3501220703125
2.280029296875
1.52109375
1.4767822265625
1.2979248046874998
1.6161621093749998
0.9732421874999999
0.833056640625
0.8701171875
1.1698242187499999
1.340625
1.4034667968749999
1.4107177734374998
1.5597656249999998
1.5557373046874998
1.5637939453124998
1.5686279296874999
1.5791015625
1.6201904296874998
1.5791015625
1.571044921875
0.5776611328125
0.684814453125
1.5944091796875
1.61455078125
1.77890625
1.58232421875
1.7660156249999999
3.0147949218749996
2.070556640625
1.7184814453125
1.593603515625
1.5484863281249999
1.5807128906249999
1.49853515625
1.4920898437499999
1.4993408203124998
1.4928955078125
1.50498046875
1.4630859374999998
1.4816162109375
1.490478515625
1.482421875
2.3912109375
1.619384765625
1.48564453125
1.3220947265624998
1.0465576171875
1.232666015625
0.6840087890625
0.894287109375
1.0433349609375
1.3100097656249998
1.4203857421875
1.43408203125
1.5033691406249998
1.5766845703124999
1.5662109375
1.5678222656249998
1.5766845703124999
1.606494140625
1.574267578125
1.5807128906249999
0.8838134765625
0.5341552734375
1.4630859374999998
1.5758789062499998
1.7692382812499998
2.1293701171875
2.270361328125
3.0010986328125
2.3178955078125
1.8361083984375
1.63388671875
1.56298828125
1.5299560546875
1.5428466796875
1.5009521484375
1.490478515625
1.5017578125
1.4606689453125
1.5114257812499998
1.48564453125
1.4703369140625
1.490478515625
2.9302001953124996
1.7861572265624999
1.4711425781249998
1.405078125
1.3873535156249999
1.094091796875
0.671923828125
0.85400390625
0.9708251953125
1.2947021484374999
1.3527099609375
1.432470703125
1.442138671875
1.574267578125
1.5791015625
1.5782958984375
1.6540283203125
1.5879638671874998
1.5992431640625
1.5895751953125
1.5517089843749998
0.033032226562499996
1.2737548828124998
1.5968261718749999
1.6653076171874999
1.7716552734375
1.41796875
2.6941406249999997
2.663525390625
1.9706542968749998
1.6508056640625
1.5726562499999999
1.5412353515625
1.542041015625
1.5243164062499999
1.4832275390624998
1.4864501953125
1.4864501953125
1.4800048828124999
1.496923828125
1.4791992187499998
1.456640625
2.6627197265625
1.8425537109374999
1.5017578125
1.48564453125
1.3801025390625
1.3172607421875
0.7557128906249999
0.7283203125
0.95068359375
1.1996337890625
1.3390136718749999
1.4155517578124999
1.4026611328124998
1.611328125
1.6040771484374998
1.5782958984375
1.5702392578125
1.58232421875
1.5799072265624998
1.587158203125
1.5799072265624998
0.0346435546875
1.1964111328125
1.5645996093749999
1.6298583984375
1.8135498046874998
1.3994384765624999
1.899755859375
2.7545654296874997
2.0214111328124997
1.7136474609374999
1.5960205078124998
1.5412353515625
1.5670166015625
1.4711425781249998
1.4711425781249998
1.480810546875
1.4848388671875
1.46630859375
1.4719482421874999
1.4912841796874998
1.4735595703125
2.505615234375
2.2566650390625
1.574267578125
1.4800048828124999
1.2987304687499999
1.3929931640625
0.8685058593749999
0.71220703125
0.87978515625
1.058642578125
1.3414306640625
1.38896484375
1.4228027343749998
1.5879638671874998
1.5766845703124999
1.590380859375
1.5662109375
1.5831298828125
1.5847412109374999
1.5887695312499999
1.5476806640624998
0.491455078125
0.7097900390624999
1.513037109375
1.6153564453125
1.7893798828124998
2.2921142578125
1.7909912109375
3.0244628906249997
2.25263671875
1.8135498046874998
1.587158203125
1.5533203125
1.558154296875
1.480810546875
1.4945068359375
1.490478515625
1.5122314453124999
1.53076171875
1.4711425781249998
1.477587890625
1.477587890625
1.4800048828124999
2.8133789062499996
1.5911865234375
1.46630859375
1.3986328124999998
1.2012451171875
1.313232421875
0.6654785156249999
0.855615234375
1.029638671875
1.3172607421875
1.3688232421875
1.4107177734374998
1.4977294921875
1.5895751953125
1.6081054687499998
1.5726562499999999
1.5525146484374999
1.585546875
1.5911865234375
1.5791015625
1.5460693359375
0.104736328125
1.5017578125
1.5919921874999998
1.716064453125
2.2453857421875
2.2349121093749997
2.7916259765625
2.5918212890624996
1.8361083984375
1.6201904296874998
1.5565429687499999
1.525927734375
1.53720703125
1.4928955078125
1.477587890625
1.4872558593749998
1.4880615234374999
1.5073974609374998
1.5057861328125
1.4759765624999999
1.461474609375
2.905224609375
1.7611816406249998
1.4977294921875
1.42119140625
1.3341796874999998
0.8765624999999999
0.6985107421875
0.8523925781249999
0.9708251953125
1.203662109375
1.3688232421875
1.4252197265625
1.4550292968749998
1.5758789062499998
1.5984375
1.554931640625
1.5927978515624999
1.5863525390625
1.590380859375
1.5686279296874999
1.561376953125
0.049145507812499996
1.287451171875
1.603271484375
1.6798095703125
1.770849609375
1.4767822265625
2.22041015625
2.6353271484375
1.9746826171874998
1.67578125
1.5831298828125
1.538818359375
1.5492919921875
1.5154541015624998
1.464697265625
1.4719482421874999
1.5041748046874999
1.4928955078125
1.4920898437499999
1.4920898437499999
1.4864501953125
2.7666503906249997
2.102783203125
1.5106201171875
1.4888671875
1.327734375
1.606494140625
0.7114013671874999
0.7387939453125
0.9047607421874999
1.203662109375
1.345458984375
1.4252197265625
1.4066894531249998
1.587158203125
1.5799072265624998
1.571044921875
1.5791015625
1.5839355468749998
1.593603515625
1.5960205078124998
1.5766845703124999
0.22880859374999998
0.8644775390624999
1.606494140625
1.6532226562499999
1.8304687499999999
1.368017578125
1.9408447265625
3.0228515624999996
2.1889892578125
1.6943115234375
1.5895751953125
1.5364013671874999
1.5686279296874999
1.4719482421874999
1.5114257812499998
1.4864501953125
1.5025634765625
1.5525146484374999
1.4671142578124998
1.4759765624999999
1.4864501953125
1.62744140625
2.196240234375
1.571044921875
1.496923828125
1.2947021484374999
1.4590576171874998
1.351904296875
0.6131103515624999
0.8967041015624999
1.0932861328124999
1.3285400390625
1.397021484375
1.40185546875
1.546875
1.6089111328124999
1.58232421875
1.5887695312499999
1.5001464843749999
1.5807128906249999
1.585546875
1.58232421875
1.3591552734374999
0.760546875
1.525927734375
1.5960205078124998
1.8071044921875
2.2598876953125
1.9634033203124999
2.924560546875
2.2421630859375
1.7982421874999999
1.6218017578125
1.5380126953125
1.5476806640624998
1.5412353515625
1.4953124999999998
1.4791992187499998
1.4848388671875
1.4010498046875
1.47275390625
1.482421875
1.4767822265625
1.5186767578125
2.771484375
1.714453125
1.4783935546875
1.4091064453125
1.134375
0.7879394531249999
0.646142578125
0.8507812499999999
0.97001953125
1.2995361328125
1.3833251953124999
1.4429443359374998
1.461474609375
1.6040771484374998
1.5831298828125
1.5678222656249998
1.5267333984375
1.5919921874999998
1.5944091796875
1.5839355468749998
1.5347900390625
0.15227050781249998
1.335791015625
1.585546875
1.7217041015624999
1.7619873046874999
1.7345947265625
2.882666015625
2.5112548828124996
1.9247314453125
1.6282470703124998
1.5597656249999998
1.5347900390625
1.5331787109375
1.4848388671875
1.5009521484375
1.4896728515625
1.4598632812499999
1.50498046875
1.4816162109375
1.4800048828124999
1.4840332031249999
2.940673828125
1.7539306640624999
1.4953124999999998
1.448583984375
1.3204833984375
0.8306396484374999
0.6429199218749999
0.7959960937499999
0.9490722656249999
1.2238037109375
1.361572265625
1.41796875
1.461474609375
1.593603515625
1.60166015625
1.574267578125
1.5831298828125
1.5726562499999999
1.585546875
1.5815185546875
1.5678222656249998
0.03544921875
1.3043701171875
1.6177734375
1.6371093749999999
1.8022705078124999
1.5154541015624998
2.26875
2.9511474609375
1.980322265625
1.69189453125
1.59521484375
1.5275390624999998
1.546875
1.4800048828124999
1.5122314453124999
1.46953125
1.46953125
1.53076171875
1.5299560546875
1.4840332031249999
1.4953124999999998
2.8335205078124996
2.0898925781249997
1.5380126953125
1.4719482421874999
1.3212890625
1.6725585937499998
1.287451171875
0.7669921875
0.9015380859375
1.0981201171875
1.3309570312499999
1.4276367187499999
1.40830078125
1.5404296874999999
1.5637939453124998
1.56298828125
1.58232421875
1.5243164062499999
1.5807128906249999
1.5718505859374998
1.56298828125
0.1377685546875
0.9160400390625
1.545263671875
1.6024658203125
1.82724609375
2.0343017578125
1.8038818359375
3.0099609375
2.1567626953125
1.76279296875
1.6040771484374998
1.554931640625
1.546875
1.5218994140625
1.5235107421874998
1.4920898437499999
1.5114257812499998
1.5396240234374998
1.4679199218749999
1.4872558593749998
1.464697265625
1.6959228515625
2.6103515625
1.67578125
1.4783935546875
1.3575439453125
0.9087890624999999
1.329345703125
0.655810546875
0.8870361328124999
0.992578125
1.3309570312499999
1.3962158203125
1.4348876953124998
1.5444580078124999
1.5944091796875
1.603271484375
1.5654052734375
1.5041748046874999
1.5702392578125
1.5541259765625
1.56298828125
1.2616699218749998
0.3158203125
1.4469726562499998
1.6089111328124999
1.7152587890625
1.8071044921875
1.8941162109374998
2.9688720703125
2.44921875
1.8062988281249999
1.6379150390625
1.5476806640624998
1.5202880859374999
1.5009521484375
1.4872558593749998
1.4574462890625
1.46630859375
1.4026611328124998
1.5082031249999999
1.509814453125
1.4872558593749998
1.4759765624999999
2.9817626953125
1.6749755859375
1.4945068359375
1.4550292968749998
1.0650878906249999
0.8451416015625
0.6735351562499999
0.8346679687499999
0.9732421874999999
1.2447509765625
1.351904296875
1.4268310546874998
1.4783935546875
1.5879638671874998
1.6089111328124999
1.5686279296874999
1.658056640625
1.5726562499999999
1.5944091796875
1.5541259765625
1.5541259765625
0.2038330078125
1.3857421875
1.6451660156249999
1.6733642578124999
1.767626953125
1.8884765625
2.5370361328124997
2.462109375
1.8949218749999999
1.6040771484374998
1.533984375
1.5315673828124998
1.5654052734375
1.5202880859374999
1.49853515625
1.5170654296875
1.5275390624999998
1.5557373046874998
1.51787109375
1.4888671875
1.4622802734375
2.9575927734375
1.9472900390624999
1.49853515625
1.3712402343749999
1.27294921875
1.6322753906249998
1.052197265625
0.85400390625
0.9659912109375
1.1577392578124999
1.3672119140624999
1.4348876953124998
1.3962158203125
1.5412353515625
1.593603515625
1.585546875
1.5944091796875
1.577490234375
1.5984375
1.5799072265624998
1.5637939453124998
0.030615234374999998
1.0352783203125
1.5492919921875
1.6177734375
1.8344970703124999
1.6572509765624999
1.7499023437499999
2.9422851562499996
2.1060058593749997
1.7474853515625
1.5726562499999999
1.5484863281249999
1.5525146484374999
1.4993408203124998
1.49853515625
1.506591796875
1.513037109375
1.5033691406249998
1.4606689453125
1.4848388671875
1.4840332031249999
2.0471923828125
2.4484130859374997
1.546875
1.50498046875
1.345458984375
0.994189453125
1.1690185546875
0.6413085937499999
0.87333984375
1.10859375
1.2930908203125
1.3817138671875
1.4413330078125
1.5799072265624998
1.603271484375
1.5686279296874999
1.577490234375
1.5396240234374998
1.6040771484374998
1.59521484375
1.546875
0.9466552734375
0.46728515625
1.5235107421874998
1.6000488281249998
1.7096191406249999
2.0173828124999997
1.7853515624999998
3.0164062499999997
2.3630126953125
1.7579589843749999
1.609716796875
1.5557373046874998
1.509814453125
1.4928955078125
1.4872558593749998
1.4848388671875
1.4928955078125
1.4397216796874999
1.482421875
1.5082031249999999
1.4880615234374999
1.4912841796874998
2.553955078125
1.667724609375
1.4953124999999998
1.4026611328124998
0.9087890624999999
1.0812011718749999
0.6662841796875
0.87978515625
1.0014404296875
1.2979248046874998
1.3978271484375
1.4389160156249998
1.477587890625
1.5267333984375
1.5251220703125
1.5122314453124999
1.5919921874999998
1.5315673828124998
1.5960205078124998
1.6072998046875
1.5976318359375
0.39396972656249996
1.4445556640625
1.6346923828125
1.6781982421875
1.8546386718749999
2.2913085937499997
2.679638671875
2.425048828125
1.9070068359374999
1.6822265625
1.5670166015625
1.5041748046874999
1.4953124999999998
1.46630859375
1.4316650390624999
1.48564453125
1.4888671875
1.4791992187499998
1.4920898437499999
1.5106201171875
1.554931640625
3.0228515624999996
1.8844482421875
1.5162597656249999
1.40830078125
1.361572265625
1.4187744140624998
0.6711181640624999
0.8789794921874999
0.9796874999999999
1.2310546875
1.3962158203125
1.4316650390624999
1.3591552734374999
1.4711425781249998
1.4550292968749998
1.5154541015624998
1.6000488281249998
1.625830078125
1.6250244140624999
1.6218017578125
1.5702392578125
0.033837890625
1.1367919921875
1.5919921874999998
1.6822265625
1.819189453125
1.426025390625
2.5483154296875
2.8109619140624997
2.064111328125
1.7313720703125
1.5807128906249999
1.53720703125
1.5726562499999999
1.5073974609374998
1.493701171875
1.49853515625
1.48564453125
1.4791992187499998
1.4800048828124999
1.4880615234374999
1.4864501953125
2.4210205078125
2.3138671875
1.5275390624999998
1.5017578125
1.300341796875
1.577490234375
0.913623046875
0.6380859375
0.9007324218749999
1.174658203125
1.3502929687499998
1.426025390625
1.3801025390625
1.5678222656249998
1.5839355468749998
1.5645996093749999
1.5509033203125
1.5702392578125
1.5235107421874998
1.53720703125
1.55009765625
0.5736328125
0.6735351562499999
1.5726562499999999
1.6298583984375
1.7901855468749999
2.260693359375
1.7732666015624998
3.0244628906249997
2.3082275390625
1.7716552734375
1.6218017578125
1.5637939453124998
1.5283447265624999
1.4469726562499998
1.4671142578124998
1.4872558593749998
1.5090087890625
1.538818359375
1.5299560546875
1.5082031249999999
1.47275390625
1.4284423828125
2.3839599609374997
1.6242187499999998
1.5154541015624998
1.4066894531249998
1.0997314453125
1.287451171875
0.6574218749999999
0.8467529296874999
1.0191650390625
1.2697265624999998
1.3494873046875
1.38896484375
1.4880615234374999
1.611328125
1.5960205078124998
1.585546875
1.6169677734374999
1.5597656249999998
1.5766845703124999
1.59521484375
1.5645996093749999
0.5526855468749999
1.4703369140625
1.6185791015625
1.71123046875
2.1197021484375
2.2792236328124997
2.8528564453125
2.6200195312499996
1.8441650390625
1.6532226562499999
1.6008544921874999
1.5517089843749998
1.5323730468749999
1.4920898437499999
1.4848388671875
1.5073974609374998
1.45341796875
1.4397216796874999
1.4671142578124998
1.4888671875
1.4896728515625
3.01318359375
1.8820312499999998
1.5799072265624998
1.4187744140624998
1.3027587890624999
0.91201171875
0.6171386718749999
0.8451416015625
0.958740234375
1.21171875
1.3559326171875
1.380908203125
1.4155517578124999
1.6072998046875
1.6008544921874999
1.5887695312499999
1.6024658203125
1.5927978515624999
1.6000488281249998
1.60166015625
1.6089111328124999
0.030615234374999998
1.216552734375
1.5517089843749998
1.654833984375
1.7740722656249999
1.4115234374999999
2.051220703125
2.7416748046875
2.0181884765625
1.7257324218749999
1.5839355468749998
1.5605712890624999
1.5799072265624998
1.5033691406249998
1.4953124999999998
1.509814453125
1.4848388671875
1.4719482421874999
1.4751708984374998
1.5146484375
1.48564453125
2.6917236328125
2.1470947265625
1.5637939453124998
1.5017578125
1.2769775390625
1.5404296874999999
0.7315429687499999
0.704150390625
0.88623046875
1.0739501953125
1.3333740234375
1.3825195312499998
1.3398193359375
1.5911865234375
1.6330810546874999
1.6105224609375
1.58232421875
1.5807128906249999
1.5863525390625
1.5718505859374998
1.5533203125
0.278759765625
0.78955078125
1.5484863281249999
1.6556396484375
1.8393310546875
2.2308837890624997
1.8731689453125
3.0228515624999996
2.1889892578125
1.796630859375
1.609716796875
1.5654052734375
1.55009765625
1.4719482421874999
1.51787109375
1.5057861328125
1.4791992187499998
1.5557373046874998
1.4711425781249998
1.5033691406249998
1.4840332031249999
1.5460693359375
2.771484375
1.6048828124999999
1.48564453125
1.3446533203125
1.3365966796875
1.332568359375
0.607470703125
0.8604492187499999
1.0433349609375
1.32451171875
1.3986328124999998
1.3905761718749998
1.4977294921875
1.5654052734375
1.5791015625
1.587158203125
1.56298828125
1.6451660156249999
1.6395263671875
1.62744140625
1.44052734375
0.10554199218749999
1.3978271484375
1.542041015625
1.670947265625
2.3340087890625
2.0971435546875
3.005126953125
2.5338134765625
1.8038818359375
1.6330810546874999
1.5331787109375
1.5090087890625
1.53076171875
1.5001464843749999
1.52109375
1.5073974609374998
1.4590576171874998
1.5033691406249998
1.4920898437499999
1.4864501953125
1.4832275390624998
2.876220703125
1.783740234375
1.5686279296874999
1.4244140625
1.2423339843749999
0.7726318359375
0.5994140625
0.7943847656249999
0.929736328125
1.2254150390625
1.3728515625
1.44052734375
1.4671142578124998
1.571044921875
1.6105224609375
1.5799072265624998
1.606494140625
1.574267578125
1.585546875
1.5839355468749998
1.558154296875
0.07814941406249999
1.32451171875
1.6081054687499998
1.6975341796874999
1.7813232421874998
1.5984375
2.3162841796875
2.66513671875
1.98515625
1.6991455078125
1.5573486328125
1.5267333984375
1.5807128906249999
1.5057861328125
1.4945068359375
1.477587890625
1.456640625
1.4630859374999998
1.4687255859375
1.4711425781249998
1.4703369140625
2.9334228515625
2.099560546875
1.5726562499999999
1.5138427734375
1.3172607421875
1.6967285156249998
0.6872314453124999
0.7057617187499999
0.84755859375
1.071533203125
1.3237060546875
1.4244140625
1.4139404296875
1.5807128906249999
1.590380859375
1.5734619140625
1.5831298828125
1.606494140625
1.5927978515624999
1.58232421875
1.5565429687499999
0.0362548828125
0.93779296875
1.5476806640624998
1.6129394531249999
1.8409423828125
1.9456787109375
2.1591796875
3.0010986328125
2.18173828125
1.8014648437499998
1.63388671875
1.5645996093749999
1.5114257812499998
1.4155517578124999
1.482421875
1.506591796875
1.5138427734375
1.5702392578125
1.477587890625
1.4550292968749998
1.456640625
1.7861572265624999
2.640966796875
1.6161621093749998
1.5082031249999999
1.377685546875
1.6298583984375
1.2995361328125
0.5905517578125
0.7758544921874999
1.0336669921875
1.3100097656249998
1.416357421875
1.4356933593749999
1.5355957031249998
1.593603515625
1.5984375
1.5702392578125
1.5082031249999999
1.5927978515624999
1.5879638671874998
1.5911865234375
1.20849609375
0.3391845703125
1.4977294921875
1.5597656249999998
1.6814208984374999
1.780517578125
1.844970703125
3.0043212890624997
2.4468017578125
1.8087158203125
1.635498046875
1.5815185546875
1.5525146484374999
1.5476806640624998
1.4993408203124998
1.46630859375
1.464697265625
1.3897705078125
1.50498046875
1.4993408203124998
1.5106201171875
1.477587890625
2.7062255859374997
1.71123046875
1.5114257812499998
1.41796875
0.95068359375
0.8757568359375
0.6034423828125
0.8209716796875
0.9490722656249999
1.2318603515625
1.345458984375
1.4236083984374999
1.464697265625
1.587158203125
1.6040771484374998
1.561376953125
1.674169921875
1.577490234375
1.5960205078124998
1.6040771484374998
1.554931640625
0.1973876953125
1.3825195312499998
1.6121337890624998
1.67900390625
1.77568359375
2.0625
2.5458984375
2.4951416015624996
1.9505126953124998
1.7104248046875
1.6169677734374999
1.5331787109375
1.5364013671874999
1.4848388671875
1.416357421875
1.432470703125
1.4703369140625
1.5082031249999999
1.5186767578125
1.509814453125
1.490478515625
3.01962890625
2.0069091796875
1.56943359375
1.4816162109375
1.380908203125
1.5968261718749999
0.6654785156249999
0.7541015624999999
0.8805908203124999
1.1142333984375
1.3414306640625
1.4356933593749999
1.4123291015625
1.574267578125
1.5758789062499998
1.5766845703124999
1.5879638671874998
1.6209960937499999
1.5839355468749998
1.4928955078125
1.5073974609374998
0.0298095703125
1.0723388671875
1.5573486328125
1.6459716796875
1.8409423828125
1.5686279296874999
1.7297607421874999
2.931005859375
2.0939208984374997
1.7571533203124998
1.622607421875
1.5782958984375
1.590380859375
1.493701171875
1.4864501953125
1.4445556640625
1.4356933593749999
1.496923828125
1.5146484375
1.5009521484375
1.4961181640624999
2.1519287109375
2.462109375
1.5484863281249999
1.5194824218749998
1.3172607421875
1.0642822265625
1.1367919921875
0.555908203125
0.839501953125
1.1150390625
1.3019531249999998
1.3865478515624998
1.4203857421875
1.5541259765625
1.56298828125
1.5863525390625
1.5766845703124999
1.5686279296874999
1.5879638671874998
1.5670166015625
1.546875
0.7726318359375
0.507568359375
1.522705078125
1.5895751953125
1.7370117187499998
2.152734375
1.8199951171875
3.0244628906249997
2.4065185546875
1.7692382812499998
1.6169677734374999
1.5025634765625
1.5364013671874999
1.5009521484375
1.506591796875
1.493701171875
1.5146484375
1.464697265625
1.490478515625
1.482421875
1.4751708984374998
1.496923828125
2.5587890625
1.6669189453125
1.4920898437499999
1.4276367187499999
0.9160400390625
1.123095703125
0.60263671875
0.8121093749999999
0.9643798828125
1.27939453125
1.3728515625
1.4308593749999998
1.5106201171875
1.593603515625
1.5645996093749999
1.5799072265624998
1.6483886718749998
1.6024658203125
1.5960205078124998
1.5718505859374998
1.554931640625
0.372216796875
1.4155517578124999
1.5944091796875
1.6435546875
1.9464843749999998
2.3235351562499997
2.7529541015624996
2.784375
1.9150634765624999
1.6733642578124999
1.577490234375
1.513037109375
1.5380126953125
1.5138427734375
1.4880615234374999
1.5299560546875
1.4888671875
1.4880615234374999
1.4703369140625
1.4840332031249999
1.46953125
3.0123779296874997
1.848193359375
1.5106201171875
1.4397216796874999
1.4203857421875
1.3124267578125
0.58974609375
0.7863281249999999
0.9224853515625
1.1899658203124999
1.3825195312499998
1.4413330078125
1.4348876953124998
1.5670166015625
1.5678222656249998
1.533984375
1.5267333984375
1.5750732421875
1.6137451171875
1.6282470703124998
1.67578125
0.033837890625
1.139208984375
1.5347900390625
1.6161621093749998
1.7660156249999999
1.38896484375
1.9311767578124999
2.9020019531249996
2.125341796875
1.7684326171875
1.6089111328124999
1.5750732421875
1.5702392578125
1.4840332031249999
1.4638916015624999
1.4364990234375
1.4759765624999999
1.47275390625
1.5033691406249998
1.5146484375
1.4864501953125
2.5313964843749996
2.31708984375
1.529150390625
1.5001464843749999
1.3188720703124999
1.3921875
0.8282226562499999
0.6268066406249999
0.8523925781249999
1.1384033203125
1.3309570312499999
1.3929931640625
1.3801025390625
1.5637939453124998
1.5782958984375
1.5815185546875
1.5911865234375
1.622607421875
1.638720703125
1.5799072265624998
1.5557373046874998
0.43425292968749996
0.60263671875
1.4679199218749999
1.5799072265624998
1.803076171875
2.325146484375
1.8151611328125
3.027685546875
2.3066162109375
1.7410400390624998
1.619384765625
1.5678222656249998
1.5404296874999999
1.4800048828124999
1.5001464843749999
1.4977294921875
1.4888671875
1.5380126953125
1.4767822265625
1.5114257812499998
1.5033691406249998
1.5243164062499999
2.88427734375
1.6072998046875
1.4348876953124998
1.3220947265624998
1.14404296875
1.3180664062499998
0.6437255859375
0.8572265625
1.0159423828125
1.2955078125
1.3639892578125
1.4284423828125
1.4920898437499999
1.5879638671874998
1.5807128906249999
1.571044921875
1.5654052734375
1.585546875
1.56298828125
1.5654052734375
1.5331787109375
0.5486572265624999
1.4832275390624998
1.5879638671874998
1.687060546875
2.2268554687499997
2.244580078125
2.8552734374999997
2.6490234375
1.843359375
1.6403320312499998
1.5887695312499999
1.55009765625
1.5347900390625
1.5033691406249998
1.4928955078125
1.5162597656249999
1.4977294921875
1.4832275390624998
1.4832275390624998
1.509814453125
1.4993408203124998
2.9672607421875
1.8006591796875
1.4791992187499998
1.3801025390625
1.3599609375
0.894287109375
0.6815917968749999
0.8346679687499999
0.93779296875
1.2374999999999998
1.4034667968749999
1.448583984375
1.4356933593749999
1.5654052734375
1.477587890625
1.5106201171875
1.5847412109374999
1.6209960937499999
1.6218017578125
1.6129394531249999
1.5645996093749999
0.03544921875
1.2173583984375
1.6121337890624998
1.6604736328124998
1.7901855468749999
1.4510009765624998
2.17529296875
2.7239501953125
2.023828125
1.7176757812499999
1.6081054687499998
1.5396240234374998
1.5686279296874999
1.4961181640624999
1.49853515625
1.5041748046874999
1.5082031249999999
1.5082031249999999
1.4630859374999998
1.4316650390624999
1.3994384765624999
2.78759765625
2.20107421875
1.6040771484374998
1.5218994140625
1.3309570312499999
1.65
0.69287109375
0.6759521484375
0.87978515625
1.0513916015625
1.3253173828125
1.3913818359374999
1.3623779296874998
1.5686279296874999
1.5944091796875
1.5791015625
1.5807128906249999
1.59521484375
1.585546875
1.5807128906249999
1.53076171875
0.136962890625
0.8193603515625
1.4888671875
1.6282470703124998
1.8441650390625
2.1301757812499997
1.9545410156249998
3.0268798828124996
2.2566650390625
1.7345947265625
1.6137451171875
1.5718505859374998
1.5573486328125
1.490478515625
1.5114257812499998
1.50498046875
1.493701171875
1.5605712890624999
1.4759765624999999
1.4928955078125
1.4872558593749998
1.6266357421875
2.70703125
1.6209960937499999
1.4993408203124998
1.3897705078125
1.4920898437499999
1.3430419921874999
0.6082763671875
0.8435302734375
1.0328613281249999
1.2616699218749998
1.3478759765625
1.413134765625
1.5815185546875
1.6322753906249998
1.5637939453124998
1.525927734375
1.46953125
1.5799072265624998
1.5782958984375
1.5702392578125
1.3929931640625
0.7234863281249999
1.5001464843749999
1.5807128906249999
1.72412109375
2.2671386718749997
1.977099609375
2.9350341796875
2.281640625
1.835302734375
1.6403320312499998
1.5847412109374999
1.546875
1.5243164062499999
1.4759765624999999
1.5138427734375
1.5025634765625
1.4550292968749998
1.4711425781249998
1.448583984375
1.4373046875
1.4622802734375
2.8367431640625
1.764404296875
1.522705078125
1.405078125
1.1480712890625
0.80888671875
0.6405029296875
0.837890625
0.8958984375
1.1931884765625
1.3204833984375
1.4308593749999998
1.464697265625
1.571044921875
1.5911865234375
1.5597656249999998
1.59521484375
1.6298583984375
1.6427490234375
1.5758789062499998
1.529150390625
0.06606445312499999
1.2721435546875
1.5992431640625
1.6685302734374998
1.780517578125
1.767626953125
2.4854736328125
2.6143798828125
1.9762939453125
1.6540283203125
1.5573486328125
1.558154296875
1.5573486328125
1.5033691406249998
1.4896728515625
1.5170654296875
1.4977294921875
1.5122314453124999
1.4735595703125
1.426025390625
1.4316650390624999
2.9906249999999996
2.067333984375
1.5807128906249999
1.4606689453125
1.3430419921874999
1.735400390625
0.6678955078125
0.7758544921874999
0.8765624999999999
1.0763671875
1.30517578125
1.361572265625
1.3551269531249999
1.6089111328124999
1.603271484375
1.603271484375
1.5791015625
1.5605712890624999
1.593603515625
1.5992431640625
1.5678222656249998
0.033032226562499996
0.9708251953125
1.5267333984375
1.6363037109374998
1.843359375
1.75634765625
1.7128417968749998
3.0083496093749997
2.1551513671875
1.7378173828124999
1.5678222656249998
1.5170654296875
1.5331787109375
1.5017578125
1.5355957031249998
1.5001464843749999
1.4896728515625
1.533984375
1.48564453125
1.5017578125
1.4735595703125
1.9110351562499999
2.553955078125
1.5726562499999999
1.5090087890625
1.3414306640625
1.7152587890625
1.3510986328124999
0.631640625
0.8290283203125
1.0256103515625
1.2076904296875
1.3333740234375
1.3825195312499998
1.5509033203125
1.622607421875
1.5968261718749999
1.5879638671874998
1.522705078125
1.609716796875
1.60166015625
1.5718505859374998
0.9031494140624999
0.40122070312499997
1.538818359375
1.6169677734374999
1.7362060546875
1.9432617187499999
1.7990478515625
3.0244628906249997
2.3783203125
1.7611816406249998
1.5984375
1.533984375
1.5315673828124998
1.53720703125
1.4977294921875
1.482421875
1.4864501953125
1.4058837890625
1.4896728515625
1.4767822265625
1.4961181640624999
1.474365234375
2.673193359375
1.7450683593749998
1.5734619140625
1.4945068359375
0.9112060546874999
0.9305419921875
0.5567138671874999
0.7710205078125
0.9160400390625
1.197216796875
1.3043701171875
1.4510009765624998
1.509814453125
1.6089111328124999
1.590380859375
1.5654052734375
1.6588623046875
1.5557373046874998
1.5887695312499999
1.585546875
1.5645996093749999
0.2811767578125
1.400244140625
1.6137451171875
1.6620849609375
1.8087158203125
2.204296875
2.6498291015624997
2.8754150390624997
1.925537109375
1.6894775390624999
1.5863525390625
1.525927734375
1.5541259765625
1.5162597656249999
1.4783935546875
1.5218994140625
1.5194824218749998
1.5041748046874999
1.4671142578124998
1.461474609375
1.4920898437499999
3.0268798828124996
1.9529296875
1.5492919921875
1.448583984375
1.3591552734374999
1.4928955078125
0.58974609375
0.7863281249999999
0.887841796875
1.1456542968749999
1.3639892578125
1.4147460937499998
1.3897705078125
1.5678222656249998
1.5766845703124999
1.571044921875
1.5621826171875
1.5758789062499998
1.5831298828125
1.5678222656249998
1.5517089843749998
0.03544921875
1.100537109375
1.56943359375
1.683837890625
1.8304687499999999
1.45341796875
1.8111328125
2.9020019531249996
2.086669921875
1.706396484375
1.5799072265624998
1.5509033203125
1.5807128906249999
1.525927734375
1.4800048828124999
1.4800048828124999
1.4888671875
1.47275390625
1.4920898437499999
1.5057861328125
1.5001464843749999
2.3477050781249997
2.376708984375
1.53076171875
1.490478515625
1.3140380859374998
1.2076904296875
1.0086914062499999
0.662255859375
0.862060546875
1.16015625
1.3849365234375
1.4147460937499998
1.3817138671875
1.4558349609374999
1.4711425781249998
1.5138427734375
1.5911865234375
1.609716796875
1.6298583984375
1.6072998046875
1.5734619140625
0.5929687499999999
0.578466796875
1.5251220703125
1.6105224609375
1.780517578125
2.2614990234375
1.7635986328125
3.0236572265625
2.29453125
1.7499023437499999
1.619384765625
1.5597656249999998
1.5283447265624999
1.5001464843749999
1.5025634765625
1.4783935546875
1.49853515625
1.52109375
1.4783935546875
1.490478515625
1.48564453125
1.4791992187499998
2.91650390625
1.6556396484375
1.50498046875
1.42119140625
1.0304443359375
1.2052734375
0.5849121093749999
0.7871337890625
1.0167480468749999
1.2938964843749998
1.3575439453125
1.3905761718749998
1.4445556640625
1.5517089843749998
1.5686279296874999
1.5686279296874999
1.6330810546874999
1.5984375
1.5670166015625
1.5839355468749998
1.593603515625
0.0322265625
1.4622802734375
1.58232421875
1.706396484375
2.08828125
2.2985595703125
2.8166015625
2.7013916015625
1.8949218749999999
1.651611328125
1.585546875
1.5428466796875
1.5428466796875
1.50498046875
1.46953125
1.4977294921875
1.4840332031249999
1.480810546875
1.4872558593749998
1.490478515625
1.4638916015624999
2.9745117187499996
1.843359375
1.5202880859374999
1.4945068359375
1.3639892578125
1.0723388671875
0.6703125
0.80888671875
0.913623046875
1.1859374999999999
1.3365966796875
1.3946044921874998
1.40185546875
1.5807128906249999
1.5847412109374999
1.577490234375
1.5758789062499998
1.5831298828125
1.606494140625
1.6185791015625
1.5799072265624998
0.030615234374999998
1.198828125
1.5726562499999999
1.6209960937499999
1.7684326171875
1.393798828125
2.08505859375
3.0381591796875
2.083447265625
1.7587646484375
1.6282470703124998
1.5146484375
1.53076171875
1.4735595703125
1.45341796875
1.4687255859375
1.5122314453124999
1.4896728515625
1.493701171875
1.4630859374999998
1.4638916015624999
2.72958984375
2.230078125
1.603271484375
1.4888671875
1.2955078125
1.5702392578125
0.7734375
0.6574218749999999
0.8846191406249999
1.07958984375
1.3075927734375
1.3551269531249999
1.3825195312499998
1.5968261718749999
1.585546875
1.5533203125
1.5517089843749998
1.577490234375
1.5766845703124999
1.5758789062499998
1.5807128906249999
0.285205078125
0.78310546875
1.5082031249999999
1.5968261718749999
1.8014648437499998
2.1696533203125
1.8788085937499999
3.02607421875
2.2582763671875
1.8393310546875
1.6218017578125
1.545263671875
1.5355957031249998
1.4977294921875
1.493701171875
1.4888671875
1.5041748046874999
1.5678222656249998
1.4912841796874998
1.5122314453124999
1.4872558593749998
1.5565429687499999
2.7529541015624996
1.6040771484374998
1.5106201171875
1.3784912109374998
1.0223876953125
1.329345703125
0.6598388671875
0.8830078124999999
1.0650878906249999
1.287451171875
1.3349853515624999
1.364794921875
1.4558349609374999
1.558154296875
1.6072998046875
1.5807128906249999
1.5202880859374999
1.6040771484374998
1.6048828124999999
1.5831298828125
1.4655029296875
0.14421386718749998
1.327734375
1.585546875
1.719287109375
1.7595703125
2.060888671875
2.8874999999999997
2.5934326171874997
1.819189453125
1.6250244140624999
1.5758789062499998
1.5597656249999998
1.546875
1.4880615234374999
1.48564453125
1.4953124999999998
1.43408203125
1.5057861328125
1.4840332031249999
1.464697265625
1.4671142578124998
3.02607421875
1.77568359375
1.554931640625
1.480810546875
1.1915771484375
0.7581298828124999
0.6163330078125
0.7291259765625
0.9232910156249999
1.2141357421874999
1.3317626953125
1.4348876953124998
1.4574462890625
1.587158203125
1.5976318359375
1.577490234375
1.5984375
1.554931640625
1.59521484375
1.5815185546875
1.5766845703124999
0.0314208984375
1.2938964843749998
1.6040771484374998
1.6483886718749998
1.7442626953125
1.6524169921874998
2.3557617187499997
2.969677734375
1.973876953125
1.6886718749999998
1.611328125
1.5251220703125
1.5541259765625
1.5138427734375
1.5114257812499998
1.4912841796874998
1.5017578125
1.513037109375
1.482421875
1.490478515625
1.5017578125
2.9318115234374997
2.0979492187499997
1.56943359375
1.4920898437499999
1.3172607421875
1.7136474609374999
1.2125244140625
0.7194580078124999
0.881396484375
1.10859375
1.297119140625
1.38896484375
1.3921875
1.53720703125
1.6218017578125
1.5863525390625
1.58232421875
1.56943359375
1.5976318359375
1.585546875
1.5734619140625
0.033837890625
0.9289306640624999
1.4912841796874998
1.5863525390625
1.828857421875
1.8473876953125
1.7635986328125
3.01318359375
2.1841552734375
1.7942138671874999
1.5919921874999998
1.5557373046874998
1.546875
1.5315673828124998
1.5251220703125
1.496923828125
1.4840332031249999
1.542041015625
1.480810546875
1.49853515625
1.47275390625
1.85302734375
2.5966552734375
1.667724609375
1.48564453125
1.36962890625
0.9047607421874999
1.3083984375
0.6098876953125
0.8467529296874999
0.910400390625
1.3067871093749999
1.3720458984375
1.4026611328124998
1.5444580078124999
1.5992431640625
1.5895751953125
1.56298828125
1.4896728515625
1.5799072265624998
1.587158203125
1.571044921875
1.106982421875
0.3311279296875
1.4381103515625
1.6153564453125
1.7289550781249998
1.89169921875
1.8014648437499998
3.0067382812499996
2.4604980468749997
1.79501953125
1.6290527343749999
1.5605712890624999
1.52109375
1.5186767578125
1.5041748046874999
1.4888671875
1.4993408203124998
1.4171630859375
1.4961181640624999
1.4945068359375
1.5186767578125
1.4928955078125
3.0228515624999996
1.7257324218749999
1.53076171875
1.4252197265625
0.928125
0.8999267578125
0.6034423828125
0.7855224609375
0.9514892578124999
1.24072265625
1.3478759765625
1.4074951171874999
1.456640625
1.5589599609375
1.58232421875
1.5670166015625
1.66611328125
1.5879638671874998
1.5750732421875
1.5734619140625
1.5621826171875
0.0362548828125
1.3744628906249998
1.6298583984375
1.6717529296875
1.7684326171875
2.1060058593749997
2.6256591796874997
2.89072265625
1.9360107421875
1.6846435546874998
1.5919921874999998
1.5323730468749999
1.56298828125
1.5235107421874998
1.477587890625
1.477587890625
1.480810546875
1.4783935546875
1.46953125
1.4816162109375
1.5033691406249998
3.0252685546875
1.9706542968749998
1.538818359375
1.4832275390624998
1.3656005859375
1.6161621093749998
0.942626953125
0.7726318359375
0.8789794921874999
1.15693359375
1.3341796874999998
1.3986328124999998
1.3873535156249999
1.554931640625
1.5597656249999998
1.5750732421875
1.590380859375
1.5637939453124998
1.603271484375
1.5815185546875
1.5670166015625
0.033837890625
1.0328613281249999
1.5283447265624999
1.6129394531249999
1.812744140625
1.5106201171875
1.7748779296875
2.972900390625
2.1535400390625
1.7531249999999998
1.585546875
1.5670166015625
1.56943359375
1.4832275390624998
1.4961181640624999
1.4880615234374999
1.4912841796874998
1.4735595703125
1.4711425781249998
1.513037109375
1.456640625
2.238134765625
2.4274658203125
1.638720703125
1.5106201171875
1.3027587890624999
1.1013427734374999
1.0812011718749999
0.6098876953125
0.8677001953125
0.984521484375
1.2947021484374999
1.368017578125
1.4236083984374999
1.5525146484374999
1.5597656249999998
1.5509033203125
1.5758789062499998
1.5436523437499998
1.56943359375
1.5589599609375
1.5799072265624998
0.758935546875
0.5285156249999999
1.4848388671875
1.6129394531249999
1.76279296875
2.1938232421875
1.7652099609374998
3.0236572265625
2.3718749999999997
1.8892822265625
1.6201904296874998
1.5605712890624999
1.5243164062499999
1.533984375
1.4920898437499999
1.4896728515625
1.4880615234374999
1.456640625
1.5186767578125
1.5009521484375
1.4638916015624999
1.4816162109375
2.9712890625
1.670947265625
1.50498046875
1.4381103515625
0.91845703125
1.1206787109375
0.6018310546875
0.807275390625
0.9949951171875
1.2374999999999998
1.332568359375
1.4139404296875
1.4993408203124998
1.5960205078124998
1.6024658203125
1.587158203125
1.6451660156249999
1.585546875
1.5927978515624999
1.5847412109374999
1.58232421875
0.037060546874999996
1.44052734375
1.5726562499999999
1.6653076171874999
1.7603759765625
2.357373046875
2.75537109375
2.747314453125
1.883642578125
1.6636962890625
1.5758789062499998
1.5404296874999999
1.5412353515625
1.5194824218749998
1.4791992187499998
1.52109375
1.4872558593749998
1.4896728515625
1.4679199218749999
1.4800048828124999
1.4800048828124999
2.7755126953125
1.8981445312499998
1.5380126953125
1.5194824218749998
1.3712402343749999
1.2028564453125
0.6703125
0.7734375
0.910400390625
1.1512939453125
1.340625
1.432470703125
1.4115234374999999
1.5791015625
1.53076171875
1.5927978515624999
1.5686279296874999
1.5992431640625
1.5758789062499998
1.5863525390625
1.6008544921874999
0.19497070312499998
1.187548828125
1.5533203125
1.6048828124999999
1.8054931640624998
1.3817138671875
1.9223144531249998
3.027685546875
2.0818359374999997
1.6943115234375
1.5984375
1.5476806640624998
1.590380859375
1.496923828125
1.4783935546875
1.4767822265625
1.496923828125
1.5492919921875
1.480810546875
1.48564453125
1.5033691406249998
2.6192138671875
2.2840576171875
1.6024658203125
1.49853515625
1.316455078125
1.4381103515625
1.332568359375
0.6380859375
0.8322509765624999
1.0167480468749999
1.319677734375
1.3865478515624998
1.4034667968749999
1.5146484375
1.5782958984375
1.5839355468749998
1.5791015625
1.6137451171875
1.5927978515624999
1.590380859375
1.5678222656249998
0.30454101562499997
0.6993164062499999
1.5041748046874999
1.53720703125
1.7797119140625
2.2937255859375
2.0262451171875
3.027685546875
2.292919921875
1.8554443359375
1.5911865234375
1.5396240234374998
1.529150390625
1.53076171875
1.509814453125
1.5001464843749999
1.4993408203124998
1.5380126953125
1.4864501953125
1.4687255859375
1.4840332031249999
1.496923828125
2.8576904296874996
1.7555419921875
1.5017578125
1.3704345703124998
1.1375976562499999
1.3470703124999999
0.5567138671874999
0.7951904296875
0.9176513671875
1.271337890625
1.3688232421875
1.4236083984374999
1.5146484375
1.58232421875
1.5807128906249999
1.5428466796875
1.5815185546875
1.59521484375
1.6048828124999999
1.5734619140625
1.52109375
0.0604248046875
1.3212890625
1.5831298828125
1.751513671875
1.7982421874999999
2.2236328125
2.91650390625
2.6780273437499997
1.9907958984374998
1.6048828124999999
1.5364013671874999
1.5355957031249998
1.5243164062499999
1.5001464843749999
1.4542236328125
1.4961181640624999
1.4477783203124999
1.474365234375
1.4638916015624999
1.48564453125
1.47275390625
3.0244628906249997
1.8111328125
1.5170654296875
1.4550292968749998
1.2995361328125
0.8306396484374999
0.605859375
0.734765625
0.9216796875
1.1939941406249999
1.345458984375
1.4276367187499999
1.4445556640625
1.5911865234375
1.5944091796875
1.571044921875
1.56943359375
1.5863525390625
1.585546875
1.554931640625
1.574267578125
0.0322265625
1.2689208984375
1.6234130859375
1.6773925781249999
1.8820312499999998
1.5138427734375
2.2614990234375
3.0244628906249997
2.0230224609375
1.7039794921875
1.5895751953125
1.56943359375
1.554931640625
1.5001464843749999
1.490478515625
1.448583984375
1.4791992187499998
1.5396240234374998
1.4751708984374998
1.4590576171874998
1.461474609375
2.9100585937499996
2.1454833984375
1.5839355468749998
1.4912841796874998
1.2834228515625
1.662890625
1.30517578125
0.6743408203125
0.839501953125
1.0642822265625
1.3092041015625
1.4332763671875
1.4139404296875
1.561376953125
1.6314697265625
1.5734619140625
1.5702392578125
1.5170654296875
1.6153564453125
1.5839355468749998
1.56298828125
0.03544921875
0.8572265625
1.5380126953125
1.6105224609375
1.8441650390625
2.0552490234375
1.8046875
3.0236572265625
2.176904296875
1.7611816406249998
1.6177734375
1.533984375
1.5122314453124999
1.4961181640624999
1.5073974609374998
1.5090087890625
1.496923828125
1.5517089843749998
1.4945068359375
1.482421875
1.48564453125
1.7152587890625
2.719921875
1.6886718749999998
1.4671142578124998
1.335791015625
0.8773681640625
1.361572265625
0.5599365234375
0.8588378906249999
0.9410156249999999
1.2914794921875
1.3712402343749999
1.4244140625
1.5355957031249998
1.5927978515624999
1.5645996093749999
1.5637939453124998
1.506591796875
1.6218017578125
1.5944091796875
1.5678222656249998
1.2665039062499999
0.20947265625
1.4074951171874999
1.5992431640625
1.7571533203124998
1.8087158203125
2.1857666015625
3.0228515624999996
2.55234375
1.9569580078125
1.61455078125
1.53720703125
1.506591796875
1.5073974609374998
1.4767822265625
1.456640625
1.480810546875
1.405078125
1.496923828125
1.464697265625
1.4816162109375
1.4791992187499998
3.0236572265625
1.7289550781249998
1.5146484375
1.45341796875
1.3309570312499999
0.749267578125
0.62197265625
0.7822998046874999
0.9595458984374999
1.2479736328125
1.3510986328124999
1.416357421875
1.4558349609374999
1.5944091796875
1.6161621093749998
1.5654052734375
1.641943359375
1.577490234375
1.5662109375
1.577490234375
1.5734619140625
0.033837890625
1.34384765625
1.6459716796875
1.6314697265625
1.8570556640625
1.8578613281249998
2.5177001953125
2.98095703125
1.9754882812499999
1.683837890625
1.5734619140625
1.52109375
1.5597656249999998
1.49853515625
1.48564453125
1.4961181640624999
1.4703369140625
1.4848388671875
1.4840332031249999
1.46953125
1.4606689453125
2.2308837890624997
2.0625
1.5251220703125
1.4671142578124998
1.3019531249999998
1.716064453125
1.0739501953125
0.694482421875
0.8604492187499999
1.123095703125
1.3422363281249998
1.426025390625
1.4026611328124998
1.5726562499999999
1.5863525390625
1.585546875
1.5992431640625
1.5484863281249999
1.59521484375
1.5791015625
1.5605712890624999
0.7242919921875
0.974853515625
1.5267333984375
1.6250244140624999
1.8796142578125
1.69833984375
1.7410400390624998
3.0228515624999996
2.183349609375
1.748291015625
1.5968261718749999
1.5267333984375
1.53076171875
1.5041748046874999
1.5170654296875
1.4928955078125
1.4800048828124999
1.4783935546875
1.4928955078125
1.4832275390624998
1.477587890625
1.9940185546875
2.5571777343749997
1.638720703125
1.4598632812499999
1.2987304687499999
0.903955078125
1.1496826171874999
0.6147216796875
0.8080810546874999
0.9756591796874999
1.3317626953125
1.4203857421875
1.4332763671875
1.4888671875
1.5879638671874998
1.5879638671874998
1.5839355468749998
1.5235107421874998
1.5662109375
1.561376953125
1.5718505859374998
0.9933837890624999
0.3424072265625
1.4373046875
1.6435546875
1.7772949218749998
2.031884765625
2.39443359375
3.0252685546875
2.4580810546875
1.8949218749999999
1.593603515625
1.533984375
1.5484863281249999
1.5347900390625
1.4832275390624998
1.458251953125
1.4800048828124999
1.4155517578124999
1.4928955078125
1.4759765624999999
1.4711425781249998
1.4767822265625
3.0236572265625
1.869140625
1.4953124999999998
1.43408203125
1.3712402343749999
0.9216796875
0.5841064453125
0.791162109375
0.9007324218749999
1.27939453125
1.3857421875
1.4155517578124999
1.4961181640624999
1.6048828124999999
1.6153564453125
1.5879638671874998
1.6491943359374999
1.5678222656249998
1.5807128906249999
1.5686279296874999
1.561376953125
0.0322265625
1.1939941406249999
1.6306640625
1.6862548828125
1.8232177734375
2.3009765625
2.744091796875
2.8810546875
2.05927734375
1.6306640625
1.546875
1.4993408203124998
1.5315673828124998
1.4977294921875
1.464697265625
1.4848388671875
1.5001464843749999
1.4832275390624998
1.4928955078125
1.4961181640624999
1.464697265625
2.6296874999999997
1.9408447265625
1.5364013671874999
1.5082031249999999
1.3502929687499998
1.5041748046874999
0.7718261718749999
0.5841064453125
0.87978515625
1.1617675781249999
1.3390136718749999
1.42119140625
1.3913818359374999
1.5847412109374999
1.5662109375
1.5960205078124998
1.58232421875
1.5992431640625
1.5758789062499998
1.5815185546875
1.5992431640625
0.3262939453125
1.1158447265625
1.5734619140625
1.6604736328124998
1.7821289062499999
1.4518066406249999
1.815966796875
3.027685546875
2.0955322265625
1.73056640625
1.5791015625
1.509814453125
1.558154296875
1.458251953125
1.480810546875
1.4679199218749999
1.482421875
1.5492919921875
1.4912841796874998
1.49853515625
1.4711425781249998
2.36220703125
2.4242431640624997
1.641943359375
1.464697265625
1.2640869140625
1.116650390625
1.2737548828124998
0.6050537109374999
0.807275390625
1.0006347656249999
1.2850341796875
1.4284423828125
1.4300537109375
1.5090087890625
1.5726562499999999
1.5919921874999998
1.5887695312499999
1.5589599609375
1.590380859375
1.5927978515624999
1.6000488281249998
0.5929687499999999
0.523681640625
1.5082031249999999
1.6072998046875
1.7901855468749999
2.318701171875
2.3130615234375
3.0220458984375
2.3952392578125
1.851416015625
1.6330810546874999
1.533984375
1.5347900390625
1.5347900390625
1.47275390625
1.4630859374999998
1.4880615234374999
1.5057861328125
1.48564453125
1.4832275390624998
1.4977294921875
1.482421875
2.98095703125
1.7958251953125
1.4671142578124998
1.4187744140624998
1.3027587890624999
1.1384033203125
0.555908203125
0.7943847656249999
0.8950927734374999
1.2656982421874998
1.3752685546874999
1.4284423828125
1.5025634765625
1.60166015625
1.603271484375
1.6105224609375
1.65966796875
1.590380859375
1.6121337890624998
1.5782958984375
1.5565429687499999
0.0322265625
1.2802001953125
1.6250244140624999
1.7184814453125
1.7909912109375
1.426025390625
2.8456054687499996
2.7916259765625
2.0439697265625
1.625830078125
1.554931640625
1.5114257812499998
1.5364013671874999
1.5122314453124999
1.4864501953125
1.5025634765625
1.482421875
1.4397216796874999
1.474365234375
1.4711425781249998
1.4832275390624998
2.9358398437499997
1.85302734375
1.493701171875
1.4510009765624998
1.27939453125
1.1537109374999999
0.631640625
0.6582275390625
0.9007324218749999
1.1770751953125
1.345458984375
1.4195800781249999
1.4252197265625
1.606494140625
1.5911865234375
1.5734619140625
1.5670166015625
1.5782958984375
1.6024658203125
1.585546875
1.5686279296874999
0.0523681640625
1.2044677734375
1.6129394531249999
1.654833984375
1.8393310546875
1.3494873046875
1.9625976562499998
3.0284912109374997
2.10439453125
1.7128417968749998
1.5525146484374999
1.5073974609374998
1.5444580078124999
1.477587890625
1.490478515625
1.496923828125
1.4848388671875
1.5517089843749998
1.46630859375
1.480810546875
1.506591796875
2.6756103515625
2.321923828125
1.5976318359375
1.4510009765624998
1.2769775390625
1.4107177734374998
1.3148437499999999
0.5768554687499999
0.84755859375
1.0175537109375
1.3067871093749999
1.40830078125
1.4236083984374999
1.5533203125
1.5791015625
1.5654052734375
1.5605712890624999
1.60166015625
1.5984375
1.5919921874999998
1.5791015625
0.2360595703125
0.6767578125
1.55009765625
1.6411376953124999
1.8369140625
2.4081298828124997
2.1261474609374997
3.0252685546875
2.2711669921874997
1.8119384765625
1.577490234375
1.5331787109375
1.5331787109375
1.4945068359375
1.5186767578125
1.496923828125
1.4977294921875
1.55009765625
1.5082031249999999
1.4953124999999998
1.46953125
1.4816162109375
2.8874999999999997
1.606494140625
1.4397216796874999
1.3623779296874998
1.1625732421875
1.2858398437499998
0.562353515625
0.7968017578125
1.0223876953125
1.3140380859374998
1.3857421875
1.4332763671875
1.5235107421874998
1.5839355468749998
1.6121337890624998
1.56298828125
1.5678222656249998
1.5807128906249999
1.5831298828125
1.5887695312499999
1.5484863281249999
0.057202148437499996
1.5025634765625
1.5895751953125
1.72734375
1.7684326171875
2.2582763671875
2.9302001953124996
2.679638671875
1.85625
1.6242187499999998
1.5670166015625
1.5090087890625
1.5412353515625
1.482421875
1.4840332031249999
1.5331787109375
1.4767822265625
1.4880615234374999
1.4655029296875
1.4791992187499998
1.4606689453125
2.969677734375
1.7853515624999998
1.5033691406249998
1.4389160156249998
1.3261230468749998
0.8507812499999999
0.55107421875
0.7863281249999999
0.894287109375
1.2189697265625
1.3470703124999999
1.4284423828125
1.4236083984374999
1.5879638671874998
1.5968261718749999
1.577490234375
1.5807128906249999
1.5758789062499998
1.5887695312499999
1.56298828125
1.5670166015625
0.046728515624999994
1.3317626953125
1.6209960937499999
1.6483886718749998
1.791796875
1.47275390625
2.463720703125
2.615185546875
1.9521240234375
1.658056640625
1.5815185546875
1.52109375
1.5791015625
1.513037109375
1.4574462890625
1.4679199218749999
1.493701171875
1.482421875
1.4928955078125
1.46630859375
1.4703369140625
2.8778320312499996
2.141455078125
1.5654052734375
1.461474609375
1.2705322265624999
1.6379150390625
0.678369140625
0.7081787109375
0.839501953125
1.0707275390625
1.3664062499999998
1.4461669921875
1.3801025390625
1.5347900390625
1.577490234375
1.5750732421875
1.5718505859374998
1.5807128906249999
1.5597656249999998
1.571044921875
1.5670166015625
0.042700195312499994
0.889453125
1.5879638671874998
1.670947265625
1.8868652343749999
2.1591796875
1.8554443359375
3.02607421875
2.19140625
1.7724609375
1.5702392578125
1.509814453125
1.5122314453124999
1.5162597656249999
1.533984375
1.5194824218749998
1.4840332031249999
1.5404296874999999
1.464697265625
1.4687255859375
1.477587890625
1.6250244140624999
2.719921875
1.7055908203124999
1.4679199218749999
1.377685546875
0.942626953125
1.3470703124999999
0.6018310546875
0.8024414062499999
0.95068359375
1.3043701171875
1.3865478515624998
1.4364990234375
1.53720703125
1.5791015625
1.5782958984375
1.5726562499999999
1.5138427734375
1.5879638671874998
1.5831298828125
1.6089111328124999
1.3921875
0.1796630859375
1.3881591796875
1.5791015625
1.7394287109375
1.7934082031249998
1.993212890625
3.0091552734375
2.5491210937499997
1.8183837890624999
1.6161621093749998
1.574267578125
1.53076171875
1.5355957031249998
1.5154541015624998
1.48564453125
1.5073974609374998
1.4501953125
1.5033691406249998
1.4800048828124999
1.477587890625
1.4880615234374999
3.0252685546875
1.7595703125
1.4767822265625
1.4316650390624999
1.1045654296875
0.7210693359375
0.61552734375
0.7420166015624999
0.9345703125
1.2221923828124999
1.3462646484374998
1.43408203125
1.4526123046875
1.5702392578125
1.5984375
1.571044921875
1.6129394531249999
1.603271484375
1.5766845703124999
1.5637939453124998
1.56943359375
0.11440429687499999
1.33740234375
1.622607421875
1.6717529296875
1.76279296875
1.7660156249999999
2.487890625
2.972900390625
1.9666259765624998
1.667724609375
1.5484863281249999
1.5194824218749998
1.5718505859374998
1.51787109375
1.4751708984374998
1.506591796875
1.525927734375
1.4953124999999998
1.4872558593749998
1.474365234375
1.474365234375
3.0220458984375
2.0455810546874997
1.5202880859374999
1.4783935546875
1.31162109375
1.706396484375
1.134375
0.7065673828125
0.8507812499999999
1.1029541015625
1.3551269531249999
1.4058837890625
1.3752685546874999
1.5283447265624999
1.5807128906249999
1.6105224609375
1.5927978515624999
1.58232421875
1.5960205078124998
1.603271484375
1.5831298828125
0.033837890625
0.9917724609374999
1.5702392578125
1.6459716796875
1.84013671875
1.7772949218749998
1.732177734375
3.01962890625
2.17529296875
1.7603759765625
1.574267578125
1.5251220703125
1.554931640625
1.5106201171875
1.525927734375
1.4928955078125
1.48564453125
1.5202880859374999
1.4888671875
1.4953124999999998
1.4711425781249998
1.9134521484375
2.5869873046875
1.6524169921874998
1.4703369140625
1.3148437499999999
0.8660888671875
1.2721435546875
0.5607421874999999
0.81533203125
0.978076171875
1.3156494140625
1.3905761718749998
1.429248046875
1.5525146484374999
1.5815185546875
1.5718505859374998
1.577490234375
1.5146484375
1.5960205078124998
1.5815185546875
1.5702392578125
0.9756591796874999
0.38591308593749996
1.458251953125
1.609716796875
1.7716552734375
1.98515625
1.8143554687499999
3.0252685546875
2.4161865234374997
1.7853515624999998
1.6129394531249999
1.5428466796875
1.5355957031249998
1.4993408203124998
1.5114257812499998
1.48564453125
1.4622802734375
1.4115234374999999
1.4791992187499998
1.49853515625
1.4735595703125
1.4961181640624999
3.0204345703124997
1.6556396484375
1.4550292968749998
1.4252197265625
0.8548095703124999
0.865283203125
0.543017578125
0.75732421875
0.97001953125
1.24072265625
1.3422363281249998
1.445361328125
1.5146484375
1.5847412109374999
1.5831298828125
1.5702392578125
1.6653076171874999
1.558154296875
1.5968261718749999
1.5662109375
1.5484863281249999
0.2457275390625
1.4413330078125
1.6475830078125
1.6693359374999999
1.8538330078124998
2.212353515625
2.6780273437499997
2.528173828125
1.9513183593749999
1.654833984375
1.5799072265624998
1.51787109375
1.5654052734375
1.5114257812499998
1.46953125
1.5073974609374998
1.4945068359375
