1.364794921875
1.2802001953125
0.7291259765625
0.7935791015625
0.7879394531249999
0.9974121093749999
1.268115234375
1.3470703124999999
1.332568359375
1.509814453125
1.5436523437499998
1.5267333984375
1.5243164062499999
1.5428466796875
1.542041015625
1.5170654296875
1.5251220703125
0.12246093749999999
0.6405029296875
1.3623779296874998
1.4671142578124998
1.6483886718749998
1.6532226562499999
2.01416015625
3.001904296875
2.3315917968749997
1.7692382812499998
1.6435546875
1.5766845703124999
1.5662109375
1.5275390624999998
1.6137451171875
1.5194824218749998
1.496923828125
1.5267333984375
1.4912841796874998
1.4791992187499998
1.490478515625
1.5887695312499999
2.8045166015625
1.7080078125
1.5944091796875
1.464697265625
1.3204833984375
1.077978515625
0.594580078125
0.7299316406249999
1.01513671875
1.24072265625
1.3285400390625
1.345458984375
1.4364990234375
1.4816162109375
1.493701171875
1.490478515625
1.45341796875
1.5283447265624999
1.5380126953125
1.5275390624999998
1.353515625
0.5687988281249999
1.3656005859375
1.4155517578124999
1.577490234375
1.6508056640625
1.8489990234375
2.98095703125
2.2913085937499997
1.8667236328124999
1.6532226562499999
1.5879638671874998
1.577490234375
1.5863525390625
1.5355957031249998
1.5251220703125
1.5025634765625
1.432470703125
1.4977294921875
1.4945068359375
1.5001464843749999
1.4759765624999999
2.8850830078125
1.8425537109374999
1.6314697265625
1.4920898437499999
1.506591796875
1.2568359375
0.507568359375
0.784716796875
0.9257080078125
1.1529052734375
1.30517578125
1.35673828125
1.3575439453125
1.482421875
1.5057861328125
1.5033691406249998
1.574267578125
1.522705078125
1.53076171875
1.5243164062499999
1.5033691406249998
0.038671874999999994
1.206884765625
1.4493896484375
1.5678222656249998
1.5718505859374998
1.7635986328125
2.802099609375
2.6844726562499996
2.0093261718749997
1.714453125
1.574267578125
1.561376953125
1.5968261718749999
1.5509033203125
1.5355957031249998
1.5218994140625
1.49853515625
1.5122314453124999
1.4928955078125
1.4977294921875
1.4687255859375
2.940673828125
2.1052001953125
1.6234130859375
1.590380859375
1.3929931640625
1.2890625
0.7210693359375
0.7339599609374999
0.8531982421875
1.1456542968749999
1.2834228515625
1.3575439453125
1.2995361328125
1.474365234375
1.5194824218749998
1.513037109375
1.5275390624999998
1.5017578125
1.5702392578125
1.5283447265624999
1.5146484375
0.012890625
0.8258056640625
1.4638916015624999
1.477587890625
1.6935058593749999
1.7539306640624999
2.1454833984375
2.9922363281249997
2.199462890625
1.7523193359375
1.6290527343749999
1.558154296875
1.606494140625
1.5565429687499999
1.5364013671874999
1.493701171875
1.482421875
1.4848388671875
1.477587890625
1.477587890625
1.46630859375
1.9956298828124999
2.1664306640624997
1.6975341796874999
1.6169677734374999
1.37607421875
1.2785888671874999
1.0449462890624999
0.6098876953125
0.8145263671874999
1.0505859375
1.2656982421874998
1.3543212890624998
1.316455078125
1.4767822265625
1.45341796875
1.5251220703125
1.529150390625
1.5114257812499998
1.5476806640624998
1.5484863281249999
1.51787109375
0.012890625
0.7597412109374999
1.3704345703124998
1.4219970703125
1.6765869140624998
1.7047851562499998
1.88525390625
3.0010986328125
2.244580078125
1.844970703125
1.6532226562499999
1.5597656249999998
1.587158203125
1.533984375
1.542041015625
1.5001464843749999
1.493701171875
1.490478515625
1.4912841796874998
1.4993408203124998
1.4703369140625
1.8095214843749998
2.6514404296875
1.7668212890625
1.6048828124999999
1.4493896484375
1.4606689453125
1.07958984375
0.62841796875
0.7871337890625
0.9490722656249999
1.2568359375
1.3422363281249998
1.3768798828125
1.41796875
1.4574462890625
1.4953124999999998
1.5146484375
1.4832275390624998
1.5170654296875
1.5275390624999998
1.525927734375
1.197216796875
0.19255371093749998
1.2858398437499998
1.4236083984374999
1.5879638671874998
1.5436523437499998
1.8788085937499999
2.8915283203124997
2.5571777343749997
1.9601806640625
1.6669189453125
1.5734619140625
1.5492919921875
1.5637939453124998
1.5186767578125
1.5001464843749999
1.4945068359375
1.4574462890625
1.5025634765625
1.4977294921875
1.5283447265624999
1.496923828125
3.0027099609374996
1.767626953125
1.609716796875
1.52109375
1.4864501953125
1.2415283203124998
0.5567138671874999
0.7782714843749999
0.928125
1.198828125
1.29228515625
1.35673828125
1.3631835937499999
1.4767822265625
1.522705078125
1.5114257812499998
1.5944091796875
1.51787109375
1.5315673828124998
1.542041015625
1.5251220703125
0.013696289062499999
1.303564453125
1.4461669921875
1.4783935546875
1.545263671875
1.748291015625
2.3960449218749997
2.8834716796874997
1.9400390625
1.703173828125
1.6056884765625
1.546875
1.587158203125
1.5533203125
1.529150390625
1.5009521484375
1.4832275390624998
1.4912841796874998
1.4880615234374999
1.49853515625
1.4759765624999999
3.0002929687499997
2.0407470703125
1.625830078125
1.5517089843749998
1.4316650390624999
1.2665039062499999
0.9821044921875
0.7855224609375
0.8749511718749999
1.0997314453125
1.2898681640624998
1.35673828125
1.3043701171875
1.46630859375
1.5146484375
1.5315673828124998
1.525927734375
1.509814453125
1.5460693359375
1.5404296874999999
1.522705078125
0.013696289062499999
0.9313476562499999
1.3801025390625
1.4735595703125
1.6935058593749999
1.7531249999999998
1.9537353515625
2.94873046875
2.1664306640624997
1.7990478515625
1.6008544921874999
1.5645996093749999
1.5831298828125
1.5412353515625
1.5267333984375
1.5114257812499998
1.5033691406249998
1.4816162109375
1.4953124999999998
1.4896728515625
1.4687255859375
2.238134765625
2.47822265625
1.6475830078125
1.6129394531249999
1.409912109375
1.3986328124999998
1.0223876953125
0.6332519531249999
0.800830078125
1.0626708984375
1.2536132812499998
1.3422363281249998
1.3414306640625
1.4630859374999998
1.4606689453125
1.529150390625
1.5218994140625
1.53720703125
1.546875
1.5347900390625
1.5404296874999999
0.559130859375
0.41330566406249997
1.3897705078125
1.4510009765624998
1.6209960937499999
1.5718505859374998
1.9537353515625
3.0002929687499997
2.389599609375
1.8103271484374999
1.6371093749999999
1.5927978515624999
1.5670166015625
1.525927734375
1.5525146484374999
1.51787109375
1.4928955078125
1.5186767578125
1.4880615234374999
1.47275390625
1.4896728515625
1.4711425781249998
2.5708740234375
1.732177734375
1.6209960937499999
1.5114257812499998
1.4034667968749999
1.203662109375
0.578466796875
0.7903564453124999
0.9555175781249999
1.216552734375
1.3027587890624999
1.364794921875
1.42119140625
1.496923828125
1.4928955078125
1.5025634765625
1.506591796875
1.5315673828124998
1.554931640625
1.5323730468749999
1.522705078125
0.3053466796875
1.3365966796875
1.426025390625
1.5090087890625
1.56298828125
1.7926025390625
2.4830566406249996
2.53623046875
1.93359375
1.674169921875
1.5605712890624999
1.5525146484374999
1.5863525390625
1.5557373046874998
1.513037109375
1.4896728515625
1.5033691406249998
1.477587890625
1.4840332031249999
1.4783935546875
1.474365234375
2.9906249999999996
1.9247314453125
1.6242187499999998
1.55009765625
1.4711425781249998
1.2721435546875
0.5615478515625
0.7839111328124999
0.8926757812499999
1.14404296875
1.3253173828125
1.3752685546874999
1.3317626953125
1.4912841796874998
1.5364013671874999
1.5106201171875
1.571044921875
1.5090087890625
1.533984375
1.546875
1.5194824218749998
0.004833984374999999
1.0803955078125
1.4195800781249999
1.4928955078125
1.6725585937499998
1.7531249999999998
2.367041015625
2.8593017578124997
2.1205078125
1.69189453125
1.606494140625
1.538818359375
1.5831298828125
1.5565429687499999
1.4961181640624999
1.5073974609374998
1.5017578125
1.5009521484375
1.496923828125
1.48564453125
1.4703369140625
2.63935546875
1.9513183593749999
1.619384765625
1.6153564453125
1.3720458984375
1.2769775390625
0.952294921875
0.7194580078124999
0.8918701171875
1.1077880859375
1.2979248046874998
1.3510986328124999
1.3365966796875
1.4832275390624998
1.4993408203124998
1.509814453125
1.51787109375
1.5331787109375
1.5315673828124998
1.545263671875
1.506591796875
0.285205078125
0.9812988281249999
1.4244140625
1.4751708984374998
1.6218017578125
1.764404296875
2.0230224609375
3.001904296875
2.1342041015624997
1.767626953125
1.6330810546874999
1.5476806640624998
1.585546875
1.5138427734375
1.6072998046875
1.5146484375
1.49853515625
1.5315673828124998
1.4928955078125
1.4832275390624998
1.49853515625
2.4741943359375
2.3726806640625
1.7088134765624998
1.625830078125
1.3744628906249998
1.3382080078124998
1.1375976562499999
0.717041015625
0.8048583984375
1.0094970703125
1.2383056640624999
1.3527099609375
1.3543212890624998
1.4348876953124998
1.4848388671875
1.5041748046874999
1.5186767578125
1.4928955078125
1.5267333984375
1.5299560546875
1.5267333984375
0.4439208984375
0.514013671875
1.3623779296874998
1.4445556640625
1.6072998046875
1.6089111328124999
1.8336914062499998
2.9978759765625
2.370263671875
1.85625
1.6306640625
1.5654052734375
1.5525146484374999
1.558154296875
1.58232421875
1.506591796875
1.480810546875
1.5637939453124998
1.5267333984375
1.5073974609374998
1.48564453125
1.482421875
2.8874999999999997
1.8344970703124999
1.6250244140624999
1.4888671875
1.4864501953125
1.1367919921875
0.53173828125
0.7879394531249999
0.9168457031249999
1.2286376953125
1.3253173828125
1.3873535156249999
1.4276367187499999
1.5218994140625
1.5243164062499999
1.55009765625
1.4912841796874998
1.533984375
1.5380126953125
1.5170654296875
1.50498046875
0.0169189453125
1.1859374999999999
1.4155517578124999
1.5589599609375
1.619384765625
1.832080078125
2.5676513671874996
2.7287841796874996
1.9029785156249999
1.6717529296875
1.5799072265624998
1.5347900390625
1.5758789062499998
1.5662109375
1.52109375
1.4912841796874998
1.4840332031249999
1.509814453125
1.4920898437499999
1.513037109375
1.47275390625
2.9495361328125
1.8659179687499998
1.6234130859375
1.5887695312499999
1.5017578125
1.2834228515625
0.825
0.7790771484375
0.889453125
1.158544921875
1.2914794921875
1.36962890625
1.3559326171875
1.4896728515625
1.506591796875
1.5194824218749998
1.5267333984375
1.5017578125
1.5251220703125
1.5299560546875
1.5082031249999999
0.013696289062499999
1.1408203125
1.4477783203124999
1.458251953125
1.6395263671875
1.7764892578125
2.0536376953124997
2.78759765625
2.0665283203125
1.7523193359375
1.5799072265624998
1.5428466796875
1.6169677734374999
1.558154296875
1.5082031249999999
1.5146484375
1.4928955078125
1.506591796875
1.4945068359375
1.4920898437499999
1.48564453125
2.7980712890625
2.1809326171875
1.683837890625
1.6250244140624999
1.3559326171875
1.2656982421874998
0.8572265625
0.7460449218749999
0.8443359374999999
1.0409179687499999
1.29228515625
1.3510986328124999
1.327734375
1.4888671875
1.53076171875
1.4977294921875
1.5235107421874998
1.51787109375
1.5243164062499999
1.5436523437499998
1.513037109375
0.107958984375
0.7452392578125
1.3607666015625
1.46630859375
1.6475830078125
1.690283203125
2.012548828125
3.0027099609374996
2.305810546875
1.7611816406249998
1.609716796875
1.5621826171875
1.5621826171875
1.5122314453124999
1.5557373046874998
1.4896728515625
1.4872558593749998
1.50498046875
1.4864501953125
1.49853515625
1.4864501953125
1.7088134765624998
2.70703125
1.699951171875
1.6121337890624998
1.4598632812499999
1.3067871093749999
1.0812011718749999
0.5454345703125
0.7887451171875
1.0578369140625
1.2818115234374998
1.3269287109374999
1.3253173828125
1.4373046875
1.4518066406249999
1.5186767578125
1.5162597656249999
1.4783935546875
1.5186767578125
1.5194824218749998
1.525927734375
1.3067871093749999
0.6453369140624999
1.36962890625
1.4316650390624999
1.5702392578125
1.6636962890625
1.867529296875
2.7827636718749997
2.3307861328125
1.8522216796875
1.6491943359374999
1.5831298828125
1.558154296875
1.546875
1.53720703125
1.5275390624999998
1.4896728515625
1.4316650390624999
1.5033691406249998
1.4920898437499999
1.490478515625
1.4848388671875
2.7908203124999997
1.7861572265624999
1.6363037109374998
1.4638916015624999
1.4896728515625
1.2318603515625
0.5228759765625
0.7879394531249999
0.9659912109375
1.2052734375
1.3301513671874998
1.377685546875
1.3656005859375
1.4961181640624999
1.5017578125
1.525927734375
1.5702392578125
1.5235107421874998
1.522705078125
1.53720703125
1.4518066406249999
0.0797607421875
1.2350830078125
1.461474609375
1.5460693359375
1.5525146484374999
1.7660156249999999
2.70703125
2.6514404296875
1.98193359375
1.6604736328124998
1.5960205078124998
1.5565429687499999
1.574267578125
1.5355957031249998
1.5202880859374999
1.5122314453124999
1.4703369140625
1.5162597656249999
1.5001464843749999
1.482421875
1.4711425781249998
2.9455078125
2.0431640625
1.6395263671875
1.5831298828125
1.40185546875
1.248779296875
0.7146240234375
0.781494140625
0.8773681640625
1.18916015625
1.3148437499999999
1.36962890625
1.3639892578125
1.4791992187499998
1.496923828125
1.513037109375
1.5509033203125
1.5122314453124999
1.5267333984375
1.5509033203125
1.50498046875
0.0169189453125
1.1819091796874999
1.4477783203124999
1.4622802734375
1.6927001953124998
1.7716552734375
2.1301757812499997
2.98740234375
2.0431640625
1.7200927734375
1.5992431640625
1.5605712890624999
1.60166015625
1.52109375
1.4928955078125
1.4888671875
1.496923828125
1.48564453125
1.496923828125
1.474365234375
1.48564453125
2.8947509765625
2.1084228515625
1.6443603515624998
1.5992431640625
1.397021484375
1.2721435546875
1.0530029296874999
0.7774658203125
0.85400390625
1.0812011718749999
1.2745605468749999
1.3510986328124999
1.3261230468749998
1.4590576171874998
1.506591796875
1.53076171875
1.5251220703125
1.513037109375
1.53076171875
1.5412353515625
1.5347900390625
0.013696289062499999
0.78955078125
1.3543212890624998
1.4300537109375
1.6781982421875
1.7281494140625
1.925537109375
2.9922363281249997
2.270361328125
1.8240234375
1.6242187499999998
1.5621826171875
1.5670166015625
1.5283447265624999
1.5396240234374998
1.4945068359375
1.4800048828124999
1.4888671875
1.4880615234374999
1.4977294921875
1.482421875
1.93359375
2.592626953125
1.735400390625
1.6000488281249998
1.4429443359374998
1.4228027343749998
1.074755859375
0.5808837890624999
0.813720703125
0.9708251953125
1.255224609375
1.3591552734374999
1.3768798828125
1.4630859374999998
1.46630859375
1.5009521484375
1.5017578125
1.49853515625
1.533984375
1.5299560546875
1.5243164062499999
1.1480712890625
0.2425048828125
1.345458984375
1.4244140625
1.5927978515624999
1.53720703125
1.9021728515624998
2.7980712890625
2.576513671875
1.844970703125
1.6435546875
1.58232421875
1.5597656249999998
1.5678222656249998
1.5533203125
1.52109375
1.490478515625
1.4711425781249998
1.4920898437499999
1.4953124999999998
1.4711425781249998
1.4622802734375
2.989013671875
1.7595703125
1.622607421875
1.5476806640624998
1.477587890625
1.2173583984375
0.6332519531249999
0.8258056640625
0.9563232421875
1.203662109375
1.31162109375
1.3720458984375
1.4010498046875
1.48564453125
1.522705078125
1.55009765625
1.5927978515624999
1.5154541015624998
1.51787109375
1.5331787109375
1.509814453125
0.15629882812499998
1.2560302734375
1.429248046875
1.4993408203124998
1.5597656249999998
1.7692382812499998
2.2421630859375
2.615185546875
1.9916015624999999
1.6951171875
1.5847412109374999
1.5460693359375
1.5807128906249999
1.545263671875
1.506591796875
1.490478515625
1.5146484375
1.4961181640624999
1.4977294921875
1.4848388671875
1.4928955078125
2.9841796874999997
1.9956298828124999
1.6177734375
1.5331787109375
1.4461669921875
1.2745605468749999
0.6872314453124999
0.7822998046874999
0.8910644531249999
1.1077880859375
1.3229003906249999
1.3905761718749998
1.3430419921874999
1.477587890625
1.5275390624999998
1.51787109375
1.509814453125
1.5154541015624998
1.5275390624999998
1.5154541015624998
1.509814453125
0.013696289062499999
0.9853271484374999
1.38896484375
1.496923828125
1.6862548828125
1.7531249999999998
2.1873779296875
2.91328125
2.1583740234374997
1.7136474609374999
1.6040771484374998
1.5565429687499999
1.5911865234375
1.5589599609375
1.4928955078125
1.5122314453124999
1.496923828125
1.4751708984374998
1.496923828125
1.480810546875
1.4606689453125
2.3452880859375
2.3887939453125
1.6185791015625
1.6040771484374998
1.4034667968749999
1.281005859375
1.0167480468749999
0.6227783203124999
0.8354736328125
1.106982421875
1.2656982421874998
1.3446533203125
1.3237060546875
1.464697265625
1.4864501953125
1.51787109375
1.53076171875
1.5323730468749999
1.5355957031249998
1.533984375
1.5154541015624998
0.6711181640624999
0.443115234375
1.361572265625
1.4671142578124998
1.6089111328124999
1.7700439453124999
1.972265625
2.9261718749999996
2.2067138671874997
1.8022705078124999
1.6363037109374998
1.56298828125
1.5678222656249998
1.5243164062499999
1.5807128906249999
1.496923828125
1.4961181640624999
1.5428466796875
1.4759765624999999
1.5009521484375
1.4864501953125
1.477587890625
2.4886962890624997
1.7200927734375
1.590380859375
1.4268310546874998
1.3817138671875
1.1722412109375
0.6098876953125
0.816943359375
0.9990234375
1.232666015625
1.3317626953125
1.3712402343749999
1.445361328125
1.49853515625
1.5090087890625
1.5347900390625
1.509814453125
1.52109375
1.525927734375
1.5509033203125
0.887841796875
0.35368652343749996
1.3269287109374999
1.4244140625
1.6290527343749999
1.5541259765625
1.78857421875
2.8544677734375
2.4935302734375
1.9424560546874998
1.6910888671875
1.5662109375
1.5605712890624999
1.5654052734375
1.5718505859374998
1.513037109375
1.4896728515625
1.5162597656249999
1.490478515625
1.5114257812499998
1.482421875
1.456640625
2.9398681640624997
1.8699462890624998
1.6218017578125
1.5251220703125
1.4864501953125
1.203662109375
0.5687988281249999
0.79921875
0.9079833984375
1.232666015625
1.329345703125
1.3607666015625
1.340625
1.4977294921875
1.533984375
1.529150390625
1.55009765625
1.525927734375
1.533984375
1.538818359375
1.529150390625
0.0120849609375
1.0812011718749999
1.4510009765624998
1.5041748046874999
1.61455078125
1.764404296875
2.29453125
2.850439453125
2.1060058593749997
1.7055908203124999
1.5847412109374999
1.5541259765625
1.5678222656249998
1.5444580078124999
1.50498046875
1.4848388671875
1.5122314453124999
1.493701171875
1.480810546875
1.4864501953125
1.5106201171875
2.6981689453124997
1.9215087890625
1.6290527343749999
1.6105224609375
1.4735595703125
1.2745605468749999
0.9482666015625
0.710595703125
0.91201171875
1.1448486328125
1.316455078125
1.348681640625
1.3494873046875
1.4953124999999998
1.5082031249999999
1.5025634765625
1.5162597656249999
1.5218994140625
1.53720703125
1.5380126953125
1.5162597656249999
0.270703125
1.044140625
1.3978271484375
1.46953125
1.65
1.77890625
2.0181884765625
2.9922363281249997
2.1454833984375
1.7732666015624998
1.6314697265625
1.5396240234374998
1.5839355468749998
1.5033691406249998
1.496923828125
1.49853515625
1.4920898437499999
1.533984375
1.496923828125
1.4864501953125
1.482421875
2.5499267578125
2.312255859375
1.6781982421875
1.609716796875
1.42119140625
1.3180664062499998
1.1093994140624999
0.6775634765624999
0.829833984375
1.02158203125
1.2858398437499998
1.3494873046875
1.351904296875
1.4518066406249999
1.522705078125
1.509814453125
1.5186767578125
1.5267333984375
1.5186767578125
1.5428466796875
1.529150390625
0.34562988281249996
0.6251953124999999
1.3672119140624999
1.4429443359374998
1.6443603515624998
1.6209960937499999
1.8369140625
3.0002929687499997
2.3501220703125
1.8570556640625
1.6330810546874999
1.5621826171875
1.5718505859374998
1.53076171875
1.6048828124999999
1.5194824218749998
1.4961181640624999
1.546875
1.480810546875
1.4896728515625
1.4864501953125
1.5444580078124999
2.8141845703125
1.6886718749999998
1.5992431640625
1.4800048828124999
1.49853515625
1.155322265625
0.5712158203125
0.807275390625
1.007080078125
1.2608642578125
1.319677734375
1.3591552734374999
1.4228027343749998
1.4896728515625
1.5194824218749998
1.513037109375
1.5138427734375
1.5218994140625
1.5235107421874998
1.5347900390625
1.4880615234374999
0.056396484375
1.3631835937499999
1.4228027343749998
1.558154296875
1.5799072265624998
1.8111328125
2.6159912109374996
2.682861328125
1.9005615234375
1.6620849609375
1.5960205078124998
1.5331787109375
1.56298828125
1.5509033203125
1.5138427734375
1.4920898437499999
1.4800048828124999
1.5194824218749998
1.4791992187499998
1.4928955078125
1.490478515625
2.86494140625
1.8240234375
1.6234130859375
1.571044921875
1.4711425781249998
1.2592529296875
0.775048828125
0.7984130859374999
0.9498779296875
1.2173583984375
1.3148437499999999
1.3881591796875
1.364794921875
1.4791992187499998
1.5106201171875
1.5106201171875
1.5243164062499999
1.5138427734375
1.5331787109375
1.5484863281249999
1.522705078125
0.0201416015625
1.1778808593749999
1.458251953125
1.4679199218749999
1.5944091796875
1.72734375
2.064111328125
2.7529541015624996
2.0262451171875
1.7120361328125
1.6008544921874999
1.5645996093749999
1.5960205078124998
1.538818359375
1.5243164062499999
1.5218994140625
1.48564453125
1.5106201171875
1.5033691406249998
1.482421875
1.4759765624999999
2.8214355468749996
2.1503173828124997
1.6717529296875
1.5960205078124998
1.368017578125
1.284228515625
0.8451416015625
0.7516845703124999
0.8725341796874999
1.087646484375
1.303564453125
1.351904296875
1.3365966796875
1.4872558593749998
1.513037109375
1.5194824218749998
1.5154541015624998
1.5090087890625
1.522705078125
1.5436523437499998
1.5138427734375
0.104736328125
0.78310546875
1.3712402343749999
1.480810546875
1.714453125
1.7329833984374998
2.0294677734374997
2.9970703125
2.2268554687499997
1.7450683593749998
1.6089111328124999
1.558154296875
1.5758789062499998
1.5331787109375
1.55009765625
1.5041748046874999
1.509814453125
1.5283447265624999
1.48564453125
1.5057861328125
1.4945068359375
1.7974365234374998
2.6280761718749996
1.6612792968749999
1.5726562499999999
1.4276367187499999
1.3083984375
1.07958984375
0.6018310546875
0.8362792968749999
1.0723388671875
1.2802001953125
1.3583496093749998
1.3470703124999999
1.445361328125
1.4356933593749999
1.4832275390624998
1.5146484375
1.4719482421874999
1.5154541015624998
1.558154296875
1.5347900390625
1.200439453125
0.2280029296875
1.3881591796875
1.4373046875
1.5726562499999999
1.6806152343749998
1.8586669921874999
2.8166015625
2.26552734375
1.8344970703124999
1.6612792968749999
1.5831298828125
1.5645996093749999
1.5517089843749998
1.561376953125
1.5355957031249998
1.4993408203124998
1.458251953125
1.5001464843749999
1.480810546875
1.4606689453125
1.4526123046875
2.7062255859374997
1.7821289062499999
1.625830078125
1.4783935546875
1.474365234375
1.2286376953125
0.5679931640625
0.8266113281249999
0.9917724609374999
1.2366943359375
1.3470703124999999
1.3575439453125
1.393798828125
1.4711425781249998
1.5243164062499999
1.5194824218749998
1.5815185546875
1.5186767578125
1.52109375
1.5235107421874998
1.3897705078125
0.13615722656249998
1.2503906249999999
1.4679199218749999
1.5734619140625
1.5686279296874999
1.7684326171875
2.7207275390624996
2.6095458984374997
1.9698486328125
1.7104248046875
1.6081054687499998
1.561376953125
1.58232421875
1.5323730468749999
1.5090087890625
1.5057861328125
1.4501953125
1.496923828125
1.490478515625
1.474365234375
1.4461669921875
2.9116699218749997
1.98515625
1.6153564453125
1.5557373046874998
1.413134765625
1.268115234375
0.75087890625
0.8096923828125
0.9031494140624999
1.17626953125
1.3067871093749999
1.3825195312499998
1.3382080078124998
1.480810546875
1.506591796875
1.509814453125
1.5541259765625
1.509814453125
1.533984375
1.5323730468749999
1.53720703125
0.011279296874999999
0.952294921875
1.47275390625
1.4832275390624998
1.6894775390624999
1.7370117187499998
2.126953125
2.914892578125
2.1374267578125
1.7208984374999998
1.609716796875
1.5637939453124998
1.6056884765625
1.5428466796875
1.5001464843749999
1.5331787109375
1.4953124999999998
1.4550292968749998
1.4590576171874998
1.480810546875
1.4953124999999998
2.2107421874999997
2.0818359374999997
1.6483886718749998
1.6072998046875
1.3857421875
1.2455566406249998
1.0433349609375
0.68642578125
0.8483642578124999
1.094091796875
1.2777832031249998
1.3664062499999998
1.340625
1.496923828125
1.4598632812499999
1.5218994140625
1.5533203125
1.506591796875
1.4880615234374999
1.4679199218749999
1.5017578125
0.74443359375
0.910400390625
1.4034667968749999
1.4501953125
1.6806152343749998
1.7362060546875
1.9021728515624998
2.9463134765624996
2.1825439453124997
1.8062988281249999
1.6395263671875
1.5791015625
1.5791015625
1.533984375
1.493701171875
1.4961181640624999
1.4832275390624998
1.5146484375
1.5396240234374998
1.52109375
1.4953124999999998
1.9916015624999999
2.5322021484375
1.7370117187499998
1.585546875
1.426025390625
1.3857421875
1.2044677734375
0.655810546875
0.8354736328125
1.003857421875
1.2979248046874998
1.3527099609375
1.361572265625
1.416357421875
1.4219970703125
1.47275390625
1.4735595703125
1.4622802734375
1.5243164062499999
1.5557373046874998
1.5541259765625
0.97646484375
0.28681640625
1.3212890625
1.4397216796874999
1.611328125
1.574267578125
1.82724609375
2.9583984374999996
2.4629150390625
1.8860595703124998
1.5992431640625
1.55009765625
1.5541259765625
1.5678222656249998
1.5831298828125
1.5637939453124998
1.5509033203125
1.4679199218749999
1.509814453125
1.4598632812499999
1.442138671875
1.4800048828124999
2.9753173828125
1.7861572265624999
1.6564453124999998
1.5662109375
1.490478515625
1.2463623046874999
0.5599365234375
0.768603515625
0.9128173828124999
1.148876953125
1.27939453125
1.3543212890624998
1.4010498046875
1.4864501953125
1.5001464843749999
1.5412353515625
1.59521484375
1.5283447265624999
1.5662109375
1.5476806640624998
1.5194824218749998
0.0120849609375
1.2745605468749999
1.4236083984374999
1.5001464843749999
1.6749755859375
1.7652099609374998
2.2993652343749997
2.8423828125
1.98515625
1.7531249999999998
1.622607421875
1.558154296875
1.5791015625
1.55009765625
1.4840332031249999
1.4767822265625
1.490478515625
1.50498046875
1.513037109375
1.5138427734375
1.46953125
2.9680664062499997
1.9311767578124999
1.61455078125
1.6201904296874998
1.4598632812499999
1.2721435546875
0.9651855468749999
0.8024414062499999
0.8886474609374999
1.09248046875
1.2955078125
1.3954101562499999
1.3309570312499999
1.50498046875
1.52109375
1.5283447265624999
1.5082031249999999
1.5404296874999999
1.603271484375
1.5807128906249999
1.5718505859374998
0.0169189453125
0.9531005859374999
1.34384765625
1.3913818359374999
1.6951171875
1.780517578125
1.9891845703125
2.908447265625
2.1213134765625
1.7821289062499999
1.6161621093749998
1.5662109375
1.5807128906249999
1.5194824218749998
1.5090087890625
1.5138427734375
1.5041748046874999
1.47275390625
1.493701171875
1.5202880859374999
1.5033691406249998
2.4121582031249997
2.3839599609374997
1.6991455078125
1.5662109375
1.3390136718749999
1.2947021484374999
1.0328613281249999
0.7073730468749999
0.84755859375
1.0256103515625
1.264892578125
1.3365966796875
1.3180664062499998
1.4791992187499998
1.4630859374999998
1.5033691406249998
1.5275390624999998
1.5509033203125
1.538818359375
1.5476806640624998
1.5275390624999998
0.5293212890625
0.502734375
1.3849365234375
1.5106201171875
1.6379150390625
1.6346923828125
1.91748046875
2.9302001953124996
2.376708984375
1.8062988281249999
1.6572509765624999
1.5589599609375
1.5662109375
1.5323730468749999
1.619384765625
1.5492919921875
1.5243164062499999
1.5404296874999999
1.4751708984374998
1.474365234375
1.47275390625
1.4880615234374999
2.8866943359375
1.7281494140625
1.6008544921874999
1.5162597656249999
1.3527099609375
1.1617675781249999
0.5583251953125
0.80888671875
1.0223876953125
1.235888671875
1.2850341796875
1.3446533203125
1.429248046875
1.4920898437499999
1.509814453125
1.542041015625
1.509814453125
1.5243164062499999
1.5267333984375
1.5436523437499998
1.5645996093749999
0.4519775390625
1.340625
1.3833251953124999
1.4719482421874999
1.4598632812499999
1.714453125
2.4081298828124997
2.5370361328124997
1.9472900390624999
1.7015624999999999
1.6137451171875
1.5557373046874998
1.5766845703124999
1.561376953125
1.5162597656249999
1.4928955078125
1.5009521484375
1.4953124999999998
1.4888671875
1.4888671875
1.474365234375
2.9390625
1.8626953124999999
1.6209960937499999
1.5114257812499998
1.493701171875
1.3269287109374999
0.5679931640625
0.7903564453124999
0.90556640625
1.1625732421875
1.332568359375
1.4034667968749999
1.361572265625
1.461474609375
1.4872558593749998
1.496923828125
1.4848388671875
1.5355957031249998
1.5670166015625
1.554931640625
1.50498046875
0.015307617187499999
1.1271240234375
1.4518066406249999
1.5170654296875
1.6169677734374999
1.703173828125
2.3138671875
2.8311035156249997
2.1148681640625
1.7926025390625
1.59521484375
1.558154296875
1.609716796875
1.5541259765625
1.5315673828124998
1.5194824218749998
1.5218994140625
1.4977294921875
1.48564453125
1.5001464843749999
1.4783935546875
2.705419921875
2.2349121093749997
1.6483886718749998
1.6000488281249998
1.3422363281249998
1.26328125
0.9047607421874999
0.75732421875
0.8604492187499999
1.148876953125
1.2818115234374998
1.3527099609375
1.3365966796875
1.5082031249999999
1.5186767578125
1.5017578125
1.5114257812499998
1.5364013671874999
1.5323730468749999
1.5758789062499998
1.529150390625
0.2384765625
0.6582275390625
1.3881591796875
1.4848388671875
1.7128417968749998
1.8248291015625
2.044775390625
2.9704833984374996
2.2469970703124997
1.6765869140624998
1.5645996093749999
1.509814453125
1.6306640625
1.546875
1.587158203125
1.5106201171875
1.506591796875
1.5484863281249999
1.506591796875
1.5017578125
1.493701171875
1.6282470703124998
2.286474609375
1.683837890625
1.6089111328124999
1.3865478515624998
1.31162109375
1.1126220703125
0.55751953125
0.8386962890624999
1.039306640625
1.2592529296875
1.3639892578125
1.3494873046875
1.448583984375
1.4751708984374998
1.5315673828124998
1.51787109375
1.46630859375
1.55009765625
1.5404296874999999
1.51787109375
1.3784912109374998
0.6090820312499999
1.3623779296874998
1.4413330078125
1.6330810546874999
1.6564453124999998
1.8626953124999999
2.7013916015625
2.3315917968749997
1.8489990234375
1.6451660156249999
1.5436523437499998
1.5525146484374999
1.5565429687499999
1.5992431640625
1.5347900390625
1.4864501953125
1.4469726562499998
1.5090087890625
1.52109375
1.5162597656249999
1.5017578125
2.747314453125
1.783740234375
1.6048828124999999
1.4783935546875
1.5057861328125
1.1432373046875
0.57041015625
0.8523925781249999
0.9402099609375
1.2221923828124999
1.3333740234375
1.3865478515624998
1.4123291015625
1.5251220703125
1.5170654296875
1.493701171875
1.42119140625
1.5073974609374998
1.5460693359375
1.5347900390625
1.4671142578124998
0.04189453125
1.2262207031249999
1.4300537109375
1.5517089843749998
1.5782958984375
1.8224121093749999
2.5547607421875
2.6756103515625
2.0262451171875
1.6588623046875
1.5976318359375
1.5799072265624998
1.5525146484374999
1.5275390624999998
1.5057861328125
1.5267333984375
1.5082031249999999
1.522705078125
1.4655029296875
1.4574462890625
1.4711425781249998
2.8738037109374996
1.8095214843749998
1.6169677734374999
1.5533203125
1.5122314453124999
1.30517578125
0.8419189453125
0.8032470703125
0.9531005859374999
1.16337890625
1.2536132812499998
1.3341796874999998
1.380908203125
1.490478515625
1.49853515625
1.5146484375
1.545263671875
1.5323730468749999
1.546875
1.5565429687499999
1.5170654296875
0.0765380859375
1.168212890625
1.4381103515625
1.4461669921875
1.5895751953125
1.7619873046874999
2.0665283203125
2.9189208984375
2.0625
1.7571533203124998
1.6121337890624998
1.5621826171875
1.6048828124999999
1.5170654296875
1.5275390624999998
1.5033691406249998
1.506591796875
1.493701171875
1.4840332031249999
1.4735595703125
1.477587890625
2.7626220703124997
2.1487060546875
1.6572509765624999
1.6121337890624998
1.3978271484375
1.2858398437499998
1.0594482421875
0.7710205078125
0.8588378906249999
1.0852294921874999
1.3083984375
1.3752685546874999
1.34384765625
1.4622802734375
1.5323730468749999
1.513037109375
1.5082031249999999
1.5364013671874999
1.5460693359375
1.5364013671874999
1.5299560546875
0.1409912109375
0.742822265625
1.3607666015625
1.4711425781249998
1.6773925781249999
1.735400390625
1.8892822265625
2.947119140625
2.2502197265625
1.832080078125
1.6153564453125
1.5533203125
1.5766845703124999
1.538818359375
1.5436523437499998
1.48564453125
1.4880615234374999
1.5235107421874998
1.5001464843749999
1.5001464843749999
1.4953124999999998
1.7692382812499998
2.6135742187499997
1.667724609375
1.5863525390625
1.461474609375
1.4630859374999998
1.09892578125
0.580078125
0.833056640625
1.0812011718749999
1.264892578125
1.34384765625
1.3921875
1.458251953125
1.4518066406249999
1.5001464843749999
1.529150390625
1.496923828125
1.545263671875
1.5444580078124999
1.5033691406249998
1.2125244140625
0.2102783203125
1.4026611328124998
1.3857421875
1.55009765625
1.574267578125
1.8908935546874999
2.698974609375
2.578125
1.84013671875
1.625830078125
1.5533203125
1.5839355468749998
1.587158203125
1.5734619140625
1.5162597656249999
1.5009521484375
1.4171630859375
1.4880615234374999
1.4928955078125
1.496923828125
1.4622802734375
2.6949462890625
1.7635986328125
1.635498046875
1.5670166015625
1.5017578125
1.281005859375
0.7557128906249999
0.8314453125
0.961962890625
1.1851318359375
1.2930908203125
1.3631835937499999
1.3929931640625
1.490478515625
1.5299560546875
1.51787109375
1.593603515625
1.542041015625
1.5235107421874998
1.53076171875
1.5146484375
0.1571044921875
1.26328125
1.464697265625
1.5654052734375
1.5734619140625
1.7466796875
2.176904296875
2.5950439453125
1.973876953125
1.69189453125
1.5726562499999999
1.5734619140625
1.6121337890624998
1.5718505859374998
1.5162597656249999
1.464697265625
1.416357421875
1.464697265625
1.5218994140625
1.52109375
1.4953124999999998
2.9100585937499996
1.9956298828124999
1.6298583984375
1.6040771484374998
1.4348876953124998
1.271337890625
0.758935546875
0.845947265625
0.8886474609374999
1.1931884765625
1.3188720703124999
1.3744628906249998
1.3390136718749999
1.5082031249999999
1.509814453125
1.5033691406249998
1.5331787109375
1.5090087890625
1.5283447265624999
1.5154541015624998
1.5090087890625
0.0088623046875
0.95390625
1.4590576171874998
1.477587890625
1.6886718749999998
1.7362060546875
2.0979492187499997
2.8979736328124996
2.1696533203125
1.6854492187499999
1.5984375
1.5517089843749998
1.58232421875
1.5662109375
1.53720703125
1.5235107421874998
1.4896728515625
1.4703369140625
1.4888671875
1.4896728515625
1.482421875
2.17529296875
2.0657226562499997
1.6379150390625
1.5895751953125
1.4284423828125
1.281005859375
1.058642578125
0.6590332031249999
0.9128173828124999
1.119873046875
1.3027587890624999
1.368017578125
1.3285400390625
1.464697265625
1.4437499999999999
1.490478515625
1.4928955078125
1.5299560546875
1.5517089843749998
1.5323730468749999
1.5186767578125
0.878173828125
0.8346679687499999
1.3551269531249999
1.45341796875
1.690283203125
1.7289550781249998
1.92392578125
2.7972656249999996
2.231689453125
1.8369140625
1.65966796875
1.5605712890624999
1.5621826171875
1.542041015625
1.5444580078124999
1.5202880859374999
1.474365234375
1.4655029296875
1.490478515625
1.4791992187499998
1.5057861328125
1.9650146484375
2.521728515625
1.7265380859375
1.6177734375
1.442138671875
1.4026611328124998
1.1867431640625
0.66064453125
0.8443359374999999
0.9949951171875
1.2665039062499999
1.3414306640625
1.3897705078125
1.4123291015625
1.4542236328125
1.506591796875
1.51787109375
1.5114257812499998
1.5355957031249998
1.533984375
1.5243164062499999
1.0884521484375
0.33757324218749996
1.32451171875
1.4381103515625
1.606494140625
1.53720703125
1.7466796875
2.7851806640624996
2.4886962890624997
1.9190917968749999
1.6475830078125
1.5654052734375
1.5444580078124999
1.5460693359375
1.5460693359375
1.533984375
1.506591796875
1.4679199218749999
1.5122314453124999
1.496923828125
1.4751708984374998
1.4711425781249998
2.908447265625
1.722509765625
1.5960205078124998
1.53720703125
1.4767822265625
1.224609375
0.6276123046875
0.8080810546874999
1.0062744140625
1.2447509765625
1.3212890625
1.3720458984375
1.4026611328124998
1.4848388671875
1.5001464843749999
1.5299560546875
1.5662109375
1.5517089843749998
1.55009765625
1.542041015625
1.5170654296875
0.014501953125
1.297119140625
1.46953125
1.5251220703125
1.6604736328124998
1.7660156249999999
2.20107421875
2.8141845703125
1.9714599609374999
1.719287109375
1.593603515625
1.5315673828124998
1.5573486328125
1.5404296874999999
1.5073974609374998
1.5033691406249998
1.5082031249999999
1.5041748046874999
1.5033691406249998
1.522705078125
1.4783935546875
2.9011962890625
1.9343994140624998
1.5863525390625
1.5887695312499999
1.43408203125
1.2858398437499998
1.0030517578125
0.8080810546874999
0.9450439453124999
1.1367919921875
1.30517578125
1.3921875
1.361572265625
1.53076171875
1.529150390625
1.4961181640624999
1.5355957031249998
1.5525146484374999
1.529150390625
1.4953124999999998
1.4501953125
0.009667968749999999
1.0368896484374999
1.4437499999999999
1.5073974609374998
1.6604736328124998
1.740234375
1.957763671875
2.8560791015625
2.1197021484375
1.7748779296875
1.6121337890624998
1.554931640625
1.6048828124999999
1.5194824218749998
1.4816162109375
1.490478515625
1.4840332031249999
1.48564453125
1.5154541015624998
1.5001464843749999
1.4840332031249999
2.3420654296875
2.333203125
1.6975341796874999
1.6218017578125
1.405078125
1.3446533203125
1.029638671875
0.6566162109375
0.849169921875
1.0812011718749999
1.2930908203125
1.34384765625
1.3639892578125
1.4945068359375
1.480810546875
1.5194824218749998
1.5162597656249999
1.538818359375
1.53076171875
1.5138427734375
1.5299560546875
0.6131103515624999
0.549462890625
1.3873535156249999
1.4590576171874998
1.6137451171875
1.5927978515624999
1.9190917968749999
2.9076416015624997
2.36220703125
1.7942138671874999
1.6290527343749999
1.5662109375
1.554931640625
1.5235107421874998
1.58232421875
1.5315673828124998
1.5122314453124999
1.5380126953125
1.4872558593749998
1.5017578125
1.4864501953125
1.4864501953125
2.834326171875
1.699951171875
1.5791015625
1.480810546875
1.3575439453125
1.1674072265625
0.5865234375
0.8370849609375
1.0376953125
1.2665039062499999
1.329345703125
1.3712402343749999
1.42119140625
1.4928955078125
1.5283447265624999
1.55009765625
1.5082031249999999
1.5355957031249998
1.52109375
1.51787109375
1.522705078125
0.4439208984375
1.3494873046875
1.429248046875
1.5267333984375
1.5984375
1.78857421875
2.4580810546875
2.4274658203125
1.89169921875
1.662890625
1.5879638671874998
1.55009765625
1.5799072265624998
1.5645996093749999
1.51787109375
1.474365234375
1.458251953125
1.4848388671875
1.509814453125
1.5009521484375
1.4896728515625
2.876220703125
1.8336914062499998
1.6379150390625
1.4953124999999998
1.4848388671875
1.2930908203125
0.9643798828125
0.8419189453125
0.9192626953124999
1.1859374999999999
1.319677734375
1.3817138671875
1.3656005859375
1.5033691406249998
1.52109375
1.5235107421874998
1.5283447265624999
1.5114257812499998
1.522705078125
1.5154541015624998
1.5090087890625
0.01611328125
1.1255126953124999
1.44052734375
1.53720703125
1.6443603515624998
1.7418457031249999
2.2969482421875
2.771484375
2.038330078125
1.7507080078125
1.5807128906249999
1.5484863281249999
1.5863525390625
1.542041015625
1.5186767578125
1.5194824218749998
1.5114257812499998
1.5275390624999998
1.4872558593749998
1.4767822265625
1.4655029296875
2.6885009765624996
2.196240234375
1.6137451171875
1.606494140625
1.3784912109374998
1.2777832031249998
0.9732421874999999
0.7742431640624999
0.878173828125
1.152099609375
1.2930908203125
1.3527099609375
1.3414306640625
1.4993408203124998
1.546875
1.55009765625
1.5218994140625
1.482421875
1.5025634765625
1.5686279296874999
1.5082031249999999
0.19255371093749998
0.7259033203124999
1.448583984375
1.4574462890625
1.6395263671875
1.7660156249999999
1.9859619140625
2.9334228515625
2.24619140625
1.7587646484375
1.6121337890624998
1.56298828125
1.5766845703124999
1.5009521484375
1.5815185546875
1.5154541015624998
1.5082031249999999
1.5323730468749999
1.4945068359375
1.5009521484375
1.477587890625
1.651611328125
2.2349121093749997
1.6435546875
1.5758789062499998
1.3792968749999999
1.329345703125
1.142431640625
0.6179443359375
0.8580322265625
1.058642578125
1.2576416015624998
1.3430419921874999
1.3817138671875
1.47275390625
1.4783935546875
1.51787109375
1.5146484375
1.4526123046875
1.5476806640624998
1.5380126953125
1.5283447265624999
1.3825195312499998
0.6630615234374999
1.3744628906249998
1.42119140625
1.622607421875
1.641943359375
1.8538330078124998
2.6868896484375
2.2623046875
1.8143554687499999
1.6306640625
1.55009765625
1.5573486328125
1.5621826171875
1.5992431640625
1.5460693359375
1.5082031249999999
1.4590576171874998
1.4880615234374999
1.49853515625
1.4864501953125
1.53076171875
2.7134765625
1.7410400390624998
1.603271484375
1.477587890625
1.496923828125
1.2753662109375
0.591357421875
0.8612548828125
0.9772705078124999
1.2777832031249998
1.3430419921874999
1.397021484375
1.377685546875
1.4791992187499998
1.5162597656249999
1.5299560546875
1.456640625
1.533984375
1.5331787109375
1.5436523437499998
1.4373046875
0.1264892578125
1.2608642578125
1.4316650390624999
1.5412353515625
1.5815185546875
1.738623046875
2.5692626953124997
2.6280761718749996
1.9601806640625
1.6491943359374999
1.58232421875
1.5791015625
1.574267578125
1.554931640625
1.5202880859374999
1.5154541015624998
1.4800048828124999
1.5057861328125
1.4928955078125
1.4791992187499998
1.50498046875
2.8464111328125
1.8054931640624998
1.6290527343749999
1.5726562499999999
1.3929931640625
1.2995361328125
0.8161376953124999
0.8032470703125
0.945849609375
1.1915771484375
1.2963134765625
1.3752685546874999
1.3656005859375
1.4912841796874998
1.5243164062499999
1.5243164062499999
1.5380126953125
1.5138427734375
1.538818359375
1.5299560546875
1.5073974609374998
0.0539794921875
1.1706298828125
1.4574462890625
1.4848388671875
1.6822265625
1.7466796875
2.0415527343749997
2.892333984375
2.0246337890625
1.7289550781249998
1.6266357421875
1.5597656249999998
1.5645996093749999
1.5251220703125
1.5194824218749998
1.506591796875
1.4912841796874998
1.493701171875
1.5154541015624998
1.4953124999999998
1.4711425781249998
2.7988769531249997
2.09150390625
1.63388671875
1.5839355468749998
1.3744628906249998
1.3043701171875
1.0852294921874999
0.8314453125
0.9305419921875
1.1367919921875
1.2665039062499999
1.300341796875
1.3253173828125
1.4993408203124998
1.542041015625
1.5315673828124998
1.496923828125
1.4510009765624998
1.4872558593749998
1.542041015625
1.5412353515625
0.17080078124999998
0.8467529296874999
1.4219970703125
1.5033691406249998
1.66611328125
1.7176757812499999
1.8763916015625
2.85205078125
2.205908203125
1.8441650390625
1.6314697265625
1.554931640625
1.554931640625
1.5347900390625
1.546875
1.5194824218749998
1.5106201171875
1.5154541015624998
1.496923828125
1.5009521484375
1.458251953125
1.8304687499999999
2.5491210937499997
1.719287109375
1.5895751953125
1.4445556640625
1.4445556640625
1.132763671875
0.631640625
0.8531982421875
1.00546875
1.3019531249999998
1.348681640625
1.3817138671875
1.448583984375
1.4300537109375
1.50498046875
1.5331787109375
1.4920898437499999
1.53720703125
1.55009765625
1.513037109375
1.2399169921875
0.265869140625
1.3712402343749999
1.4622802734375
1.5758789062499998
1.5331787109375
1.8473876953125
2.7005859374999996
2.5225341796875
1.8264404296874999
1.65
1.5944091796875
1.5734619140625
1.5444580078124999
1.53720703125
1.51787109375
1.496923828125
1.4364990234375
1.5041748046874999
1.4864501953125
1.4791992187499998
1.480810546875
2.65869140625
1.7297607421874999
1.609716796875
1.5412353515625
1.4638916015624999
1.2415283203124998
0.720263671875
0.8660888671875
1.0006347656249999
1.2157470703125
1.3269287109374999
1.3833251953124999
1.3913818359374999
1.49853515625
1.509814453125
1.529150390625
1.5927978515624999
1.496923828125
1.5299560546875
1.5235107421874998
1.509814453125
0.2183349609375
1.3083984375
1.474365234375
1.506591796875
1.5436523437499998
1.7289550781249998
2.2171875
2.534619140625
1.9303710937499998
1.6878662109375
1.5863525390625
1.5637939453124998
1.5911865234375
1.5573486328125
1.525927734375
1.5082031249999999
1.4961181640624999
1.506591796875
1.4993408203124998
1.5017578125
1.496923828125
2.8818603515624996
1.9182861328124998
1.5734619140625
1.5654052734375
1.429248046875
1.303564453125
0.7726318359375
0.871728515625
0.9353759765624999
1.15048828125
1.3220947265624998
1.3422363281249998
1.31162109375
1.48564453125
1.5436523437499998
1.5170654296875
1.5186767578125
1.4928955078125
1.533984375
1.5565429687499999
1.5355957031249998
0.013696289062499999
1.0256103515625
1.400244140625
1.4953124999999998
1.6830322265625
1.7329833984374998
2.1180908203124997
2.8302978515625
2.115673828125
1.6935058593749999
1.60166015625
1.574267578125
1.577490234375
1.5275390624999998
1.474365234375
1.4912841796874998
1.4961181640624999
1.4945068359375
1.4872558593749998
1.4880615234374999
1.4783935546875
2.2244384765625
2.3718749999999997
1.625830078125
1.6089111328124999
1.4252197265625
1.2850341796875
1.0634765625
0.7234863281249999
0.8531982421875
1.126318359375
1.2955078125
1.35673828125
1.3301513671874998
1.4719482421874999
1.47275390625
1.5235107421874998
1.5355957031249998
1.5315673828124998
1.5057861328125
1.52109375
1.5299560546875
0.7557128906249999
0.52529296875
1.4074951171874999
1.4606689453125
1.5911865234375
1.72412109375
1.9037841796875
2.8464111328125
2.1664306640624997
1.7829345703125
1.6161621093749998
1.5726562499999999
1.5766845703124999
1.529150390625
1.56943359375
1.5202880859374999
1.5090087890625
1.5251220703125
1.4953124999999998
1.5041748046874999
1.5009521484375
1.4961181640624999
2.4685546874999997
1.7023681640625
1.5895751953125
1.4437499999999999
1.3986328124999998
1.206884765625
0.6163330078125
0.8548095703124999
1.0167480468749999
1.2544189453124999
1.3575439453125
1.377685546875
1.4195800781249999
1.4864501953125
1.513037109375
1.5331787109375
1.5243164062499999
1.53720703125
1.5347900390625
1.4993408203124998
0.87333984375
0.43022460937499996
1.3631835937499999
1.432470703125
1.6218017578125
1.6000488281249998
1.7853515624999998
2.850439453125
2.40087890625
1.8820312499999998
1.662890625
1.56943359375
1.5428466796875
1.5766845703124999
1.5517089843749998
1.5218994140625
1.5082031249999999
1.5057861328125
1.4767822265625
1.48564453125
1.4848388671875
1.4840332031249999
2.8786376953125
1.8860595703124998
1.5960205078124998
1.5017578125
1.4542236328125
1.224609375
0.6348632812499999
0.8628662109374999
0.9611572265624999
1.268115234375
1.3430419921874999
1.393798828125
1.3470703124999999
1.4912841796874998
1.513037109375
1.496923828125
1.5283447265624999
1.5194824218749998
1.5662109375
1.5597656249999998
1.5194824218749998
0.015307617187499999
1.123095703125
1.4437499999999999
1.5057861328125
1.662890625
1.767626953125
2.37509765625
2.744091796875
2.0165771484375
1.6161621093749998
1.5670166015625
1.5976318359375
1.625830078125
1.558154296875
1.4888671875
1.493701171875
1.48564453125
1.5017578125
1.493701171875
1.47275390625
1.4711425781249998
2.6014892578124997
1.8892822265625
1.6000488281249998
1.6000488281249998
1.4872558593749998
1.2850341796875
0.9418212890625
0.7806884765625
0.9450439453124999
1.147265625
1.2930908203125
1.3921875
1.3720458984375
1.5082031249999999
1.5186767578125
1.5138427734375
1.509814453125
1.506591796875
1.546875
1.5380126953125
1.513037109375
0.31743164062499996
1.0562255859375
1.3921875
1.46953125
1.6806152343749998
1.77568359375
1.9698486328125
2.9479248046874997
2.044775390625
1.748291015625
1.6290527343749999
1.545263671875
1.59521484375
1.5194824218749998
1.513037109375
1.5154541015624998
1.496923828125
1.5436523437499998
1.4953124999999998
1.4791992187499998
1.4872558593749998
2.4282714843749997
2.263916015625
1.6806152343749998
1.5895751953125
1.3849365234375
1.3430419921874999
1.1577392578124999
0.7242919921875
0.87333984375
1.0626708984375
1.32451171875
1.3704345703124998
1.3599609375
1.4429443359374998
1.49853515625
1.4920898437499999
1.5090087890625
1.546875
1.5331787109375
1.5283447265624999
1.529150390625
0.49870605468749996
0.6179443359375
1.3978271484375
1.4783935546875
1.619384765625
1.6201904296874998
1.8103271484374999
2.892333984375
2.29775390625
1.8578613281249998
1.63388671875
1.5718505859374998
1.5484863281249999
1.5114257812499998
1.5750732421875
1.5041748046874999
1.4840332031249999
1.5541259765625
1.5057861328125
1.513037109375
1.5001464843749999
1.5090087890625
2.7827636718749997
1.654833984375
1.5831298828125
1.4630859374999998
1.4840332031249999
1.15693359375
0.620361328125
0.894287109375
1.058642578125
1.2536132812499998
1.340625
1.3849365234375
1.4308593749999998
1.509814453125
1.5194824218749998
1.5194824218749998
1.482421875
1.53720703125
1.5355957031249998
1.533984375
1.49853515625
0.07412109374999999
1.4026611328124998
1.442138671875
1.5637939453124998
1.5791015625
1.7893798828124998
2.4886962890624997
2.640966796875
1.8763916015625
1.6532226562499999
1.5887695312499999
1.55009765625
1.558154296875
1.5460693359375
1.5235107421874998
1.4953124999999998
1.4872558593749998
1.496923828125
1.4872558593749998
1.4920898437499999
1.52109375
2.8431884765624997
1.7829345703125
1.5968261718749999
1.5799072265624998
1.5001464843749999
1.2938964843749998
0.8225830078124999
0.8507812499999999
0.9482666015625
1.187548828125
1.3148437499999999
1.400244140625
1.3712402343749999
1.5162597656249999
1.4993408203124998
1.53076171875
1.522705078125
1.5331787109375
1.52109375
1.52109375
1.5243164062499999
0.033837890625
1.2060791015624999
1.4711425781249998
1.5162597656249999
1.63388671875
1.7635986328125
2.0044921875
2.69091796875
2.0085205078125
1.7055908203124999
1.585546875
1.561376953125
1.6000488281249998
1.5275390624999998
1.5122314453124999
1.5082031249999999
1.5041748046874999
1.5347900390625
1.490478515625
1.5009521484375
1.480810546875
2.6941406249999997
2.101171875
1.6024658203125
1.5895751953125
1.3873535156249999
1.319677734375
0.920068359375
0.8129150390625
0.9160400390625
1.1947998046875
1.316455078125
1.3599609375
1.3333740234375
1.48564453125
1.52109375
1.5251220703125
1.5170654296875
1.5073974609374998
1.55009765625
1.538818359375
1.506591796875
0.2022216796875
0.8032470703125
1.4348876953124998
1.4840332031249999
1.6556396484375
1.687060546875
1.9956298828124999
2.89072265625
2.2107421874999997
1.7023681640625
1.6048828124999999
1.5670166015625
1.5944091796875
1.5299560546875
1.56298828125
1.5090087890625
1.5017578125
1.5275390624999998
1.506591796875
1.490478515625
1.4880615234374999
1.7539306640624999
2.1865722656249997
1.6564453124999998
1.5887695312499999
1.44052734375
1.3100097656249998
1.1255126953124999
0.6340576171875
0.8910644531249999
1.0836181640625
1.2769775390625
1.3446533203125
1.3527099609375
1.4542236328125
1.4719482421874999
1.522705078125
1.5194824218749998
1.48564453125
1.529150390625
1.5396240234374998
1.5243164062499999
1.3075927734375
0.7081787109375
1.3849365234375
1.429248046875
1.6725585937499998
1.6798095703125
1.843359375
2.7094482421875
2.2373291015625
1.8199951171875
1.619384765625
1.5541259765625
1.5573486328125
1.5517089843749998
1.5355957031249998
1.5186767578125
1.5073974609374998
1.4389160156249998
1.4977294921875
1.5194824218749998
1.4896728515625
1.5807128906249999
2.6538574218749997
1.7466796875
1.6081054687499998
1.4638916015624999
1.490478515625
1.2665039062499999
0.631640625
0.87978515625
0.992578125
1.2181640624999999
1.35673828125
1.3897705078125
1.364794921875
1.4800048828124999
1.5154541015624998
1.5218994140625
1.5662109375
1.5347900390625
1.5170654296875
1.53076171875
1.4187744140624998
0.2102783203125
1.2914794921875
1.4477783203124999
1.5750732421875
1.5879638671874998
1.77890625
2.62646484375
2.5458984375
1.9360107421875
1.6475830078125
1.58232421875
1.5509033203125
1.5573486328125
1.5315673828124998
1.5009521484375
1.493701171875
1.4864501953125
1.525927734375
1.48564453125
1.48564453125
1.4735595703125
2.840771484375
1.7740722656249999
1.606494140625
1.5791015625
1.3905761718749998
1.281005859375
0.7951904296875
0.8435302734375
1.00224609375
1.219775390625
1.327734375
1.377685546875
1.3583496093749998
1.4800048828124999
1.5033691406249998
1.5106201171875
1.5404296874999999
1.509814453125
1.5154541015624998
1.5323730468749999
1.5138427734375
0.050756835937499994
1.2511962890625
1.4767822265625
1.5041748046874999
1.7007568359374998
1.7410400390624998
2.0439697265625
2.848828125
1.9682373046875
1.6886718749999998
1.5960205078124998
1.5492919921875
1.5807128906249999
1.53720703125
1.5146484375
1.5106201171875
1.4977294921875
1.474365234375
1.4872558593749998
1.4920898437499999
1.4912841796874998
2.8230468749999997
2.0560546875
1.6435546875
1.5984375
1.40185546875
1.281005859375
1.058642578125
0.829833984375
0.894287109375
1.1045654296875
1.26005859375
1.3591552734374999
1.3349853515624999
1.4574462890625
1.5243164062499999
1.5138427734375
1.5186767578125
1.522705078125
1.5436523437499998
1.5484863281249999
1.545263671875
0.1353515625
0.8773681640625
1.4091064453125
1.461474609375
1.6878662109375
1.7015624999999999
1.8763916015625
2.8786376953125
2.18173828125
1.799853515625
1.6000488281249998
1.5476806640624998
1.5597656249999998
1.5637939453124998
1.5444580078124999
1.52109375
1.493701171875
1.4840332031249999
1.4840332031249999
1.4896728515625
1.4719482421874999
1.90458984375
2.5080322265625
1.716064453125
1.5992431640625
1.45341796875
1.4364990234375
1.0997314453125
0.6767578125
0.8677001953125
1.023193359375
1.2656982421874998
1.3269287109374999
1.364794921875
1.458251953125
1.4356933593749999
1.4977294921875
1.5476806640624998
1.522705078125
1.5380126953125
1.5436523437499998
1.490478515625
1.0513916015625
0.3552978515625
1.3220947265624998
1.4445556640625
1.6177734375
1.554931640625
1.8989501953124999
2.8206298828125
2.4532470703125
1.7942138671874999
1.6266357421875
1.5678222656249998
1.5637939453124998
1.5589599609375
1.5404296874999999
1.5114257812499998
1.482421875
1.482421875
1.5146484375
1.4896728515625
1.477587890625
1.4945068359375
2.8874999999999997
1.7072021484375
1.5782958984375
1.5202880859374999
1.461474609375
1.2262207031249999
0.652587890625
0.8572265625
1.0030517578125
1.2455566406249998
1.319677734375
1.380908203125
1.4276367187499999
1.509814453125
1.5154541015624998
1.52109375
1.5726562499999999
1.5299560546875
1.5404296874999999
1.513037109375
1.5146484375
0.2570068359375
1.3237060546875
1.47275390625
1.506591796875
1.56298828125
1.7418457031249999
2.2131591796875
2.5015869140625
1.9311767578124999
1.690283203125
1.5831298828125
1.5444580078124999
1.5782958984375
1.5645996093749999
1.542041015625
1.4945068359375
1.4928955078125
1.5444580078124999
1.5194824218749998
1.4816162109375
1.4622802734375
2.8883056640625
1.9231201171874999
1.6282470703124998
1.5605712890624999
1.4445556640625
1.2890625
0.6968994140625
0.8507812499999999
0.9257080078125
1.148876953125
1.3172607421875
1.3744628906249998
1.340625
1.50498046875
1.5235107421874998
1.5090087890625
1.522705078125
1.5033691406249998
1.52109375
1.5267333984375
1.4945068359375
0.014501953125
1.0248046874999999
1.3929931640625
1.482421875
1.690283203125
1.748291015625
2.1470947265625
2.827880859375
2.1148681640625
1.7740722656249999
1.5984375
1.5484863281249999
1.5718505859374998
1.5404296874999999
1.5082031249999999
1.4888671875
1.4912841796874998
1.4888671875
1.5009521484375
1.5090087890625
1.4912841796874998
2.341259765625
2.358984375
1.6242187499999998
1.5911865234375
1.393798828125
1.2890625
1.0086914062499999
0.710595703125
0.8628662109374999
1.1190673828125
1.2914794921875
1.3631835937499999
1.3309570312499999
1.4671142578124998
1.477587890625
1.4977294921875
1.4896728515625
1.525927734375
1.53076171875
1.5194824218749998
1.533984375
0.6123046875
0.5534912109375
1.40185546875
1.4437499999999999
1.606494140625
1.719287109375
1.9231201171874999
2.8818603515624996
2.376708984375
1.7990478515625
1.6427490234375
1.5686279296874999
1.58232421875
1.538818359375
1.5766845703124999
1.5090087890625
1.5122314453124999
1.5315673828124998
1.4800048828124999
1.496923828125
1.5033691406249998
1.513037109375
2.441162109375
1.7345947265625
1.6072998046875
1.4139404296875
1.3833251953124999
1.1754638671875
0.6372802734374999
0.8362792968749999
1.0167480468749999
1.2439453125
1.348681640625
1.384130859375
1.4300537109375
1.493701171875
1.5170654296875
1.533984375
1.5041748046874999
1.5275390624999998
1.5323730468749999
1.542041015625
1.5251220703125
0.44150390624999997
1.3631835937499999
1.4373046875
1.6346923828125
1.546875
1.7619873046874999
2.4129638671875
2.3952392578125
1.89169921875
1.6749755859375
1.5621826171875
1.5662109375
1.5992431640625
1.5533203125
1.5267333984375
1.5122314453124999
1.5082031249999999
1.5235107421874998
1.5073974609374998
1.5001464843749999
1.4783935546875
2.8391601562499997
1.8216064453124998
1.5895751953125
1.509814453125
1.5186767578125
1.287451171875
0.6098876953125
0.8604492187499999
0.94423828125
1.2455566406249998
1.3180664062499998
1.3736572265625
1.3607666015625
1.4977294921875
1.5218994140625
1.5114257812499998
1.529150390625
1.5154541015624998
1.52109375
1.5396240234374998
1.529150390625
0.0217529296875
1.139208984375
1.445361328125
1.529150390625
1.6306640625
1.73056640625
2.3315917968749997
2.75537109375
2.03994140625
1.674169921875
1.58232421875
1.5565429687499999
1.5879638671874998
1.5476806640624998
1.5251220703125
1.5138427734375
1.4791992187499998
1.4848388671875
1.4920898437499999
1.5033691406249998
1.4977294921875
2.6820556640624997
1.8683349609375
1.6218017578125
1.5944091796875
1.361572265625
1.2850341796875
0.9603515625
0.7782714843749999
0.9313476562499999
1.1537109374999999
1.2963134765625
1.3599609375
1.35673828125
1.493701171875
1.5017578125
1.5331787109375
1.5283447265624999
1.5275390624999998
1.5396240234374998
1.5331787109375
1.5283447265624999
0.22478027343749998
1.0828125
1.4316650390624999
1.4655029296875
1.6451660156249999
1.7458740234374999
1.9698486328125
2.937451171875
2.1019775390624997
1.7450683593749998
1.6443603515624998
1.574267578125
1.6000488281249998
1.5146484375
1.5750732421875
1.5106201171875
1.5146484375
1.546875
1.4711425781249998
1.4703369140625
1.4606689453125
2.528173828125
2.2236328125
1.6411376953124999
1.5839355468749998
1.384130859375
1.3140380859374998
1.1279296875
0.7637695312499999
0.8644775390624999
1.05380859375
1.27294921875
1.3599609375
1.3382080078124998
1.4308593749999998
1.53076171875
1.5283447265624999
1.5412353515625
1.4703369140625
1.5364013671874999
1.53076171875
1.5428466796875
0.3665771484375
0.6807861328125
1.3712402343749999
1.4139404296875
1.6532226562499999
1.651611328125
1.869140625
2.9108642578125
2.289697265625
1.8538330078124998
1.6322753906249998
1.5637939453124998
1.5766845703124999
1.56943359375
1.606494140625
1.5186767578125
1.4888671875
1.53720703125
1.4791992187499998
1.48564453125
1.4840332031249999
1.5404296874999999
2.6820556640624997
1.7539306640624999
1.6008544921874999
1.4864501953125
1.50498046875
1.147265625
0.5873291015625
0.8548095703124999
0.9595458984374999
1.229443359375
1.3148437499999999
1.4058837890625
1.442138671875
1.46953125
1.4977294921875
1.4961181640624999
1.4703369140625
1.5073974609374998
1.5323730468749999
1.49853515625
1.4469726562499998
0.1474365234375
1.264892578125
1.41796875
1.6153564453125
1.6250244140624999
1.8651123046875
2.631298828125
2.6522460937499996
1.9150634765624999
1.69189453125
1.5565429687499999
1.5162597656249999
1.5218994140625
1.506591796875
1.48564453125
1.4872558593749998
1.4598632812499999
1.5114257812499998
1.5146484375
1.482421875
1.4767822265625
2.8995849609374997
1.7990478515625
1.6218017578125
1.5637939453124998
1.5170654296875
1.26328125
0.7476562499999999
0.8370849609375
0.9603515625
1.21494140625
1.32451171875
1.3946044921874998
1.3639892578125
1.4840332031249999
1.5017578125
1.53720703125
1.56298828125
1.5243164062499999
1.5275390624999998
1.5355957031249998
1.5283447265624999
0.0636474609375
1.1851318359375
1.4655029296875
1.5057861328125
1.6000488281249998
1.7539306640624999
2.067333984375
2.6675537109375
1.9956298828124999
1.7313720703125
1.6048828124999999
1.5758789062499998
1.5944091796875
1.5380126953125
1.4920898437499999
1.4977294921875
1.509814453125
1.522705078125
1.4800048828124999
1.4759765624999999
1.4751708984374998
2.843994140625
2.0600830078125
1.6290527343749999
1.5807128906249999
1.3946044921874998
1.2906738281249999
0.807275390625
0.8201660156249999
0.8604492187499999
1.090869140625
1.2938964843749998
1.3728515625
1.3253173828125
1.4493896484375
1.5041748046874999
1.529150390625
1.5082031249999999
1.50498046875
1.5404296874999999
1.525927734375
1.5122314453124999
0.0926513671875
0.8419189453125
1.3954101562499999
1.482421875
1.662890625
1.7370117187499998
2.012548828125
2.940673828125
2.2051025390625
1.8006591796875
1.6008544921874999
1.546875
1.56943359375
1.5243164062499999
1.5267333984375
1.5033691406249998
1.4872558593749998
1.509814453125
1.5114257812499998
1.52109375
1.493701171875
1.9303710937499998
2.5571777343749997
1.654833984375
1.5984375
1.4445556640625
1.281005859375
1.0900634765625
0.6243896484375
0.8596435546875
1.095703125
1.284228515625
1.3398193359375
1.327734375
1.461474609375
1.4542236328125
1.5146484375
1.5033691406249998
1.51787109375
1.5251220703125
1.5444580078124999
1.5275390624999998
0.9756591796874999
0.31904296875
1.4389160156249998
1.46630859375
1.6371093749999999
1.7337890624999999
1.9078125
2.8713867187499997
2.4258544921875
1.77568359375
1.6081054687499998
1.5589599609375
1.554931640625
1.5218994140625
1.513037109375
1.4872558593749998
1.4840332031249999
1.45341796875
1.4783935546875
1.4719482421874999
1.4832275390624998
1.48564453125
2.6208251953125
1.783740234375
1.6346923828125
1.4348876953124998
1.4429443359374998
1.2608642578125
0.6405029296875
0.8000244140624999
0.9643798828125
1.1964111328125
1.3204833984375
1.3994384765624999
1.405078125
1.4920898437499999
1.5355957031249998
1.5315673828124998
1.593603515625
1.5412353515625
1.53720703125
1.5283447265624999
1.5170654296875
0.23928222656249998
1.3180664062499998
1.4542236328125
1.6008544921874999
1.5597656249999998
1.7531249999999998
2.29775390625
2.53623046875
1.9601806640625
1.714453125
1.5911865234375
1.5637939453124998
1.6000488281249998
1.5492919921875
1.5009521484375
1.5017578125
1.4920898437499999
1.4872558593749998
1.4872558593749998
1.4864501953125
1.4880615234374999
2.9221435546874996
1.9303710937499998
1.6129394531249999
1.5404296874999999
1.4437499999999999
1.271337890625
0.6308349609374999
0.8483642578124999
0.8910644531249999
1.132763671875
1.3172607421875
1.3631835937499999
1.3148437499999999
1.4993408203124998
1.53076171875
1.51787109375
1.5726562499999999
1.509814453125
1.525927734375
1.533984375
1.5484863281249999
0.0120849609375
1.018359375
1.461474609375
1.5090087890625
1.6685302734374998
1.7772949218749998
2.20107421875
2.856884765625
2.0971435546875
1.7088134765624998
1.5863525390625
1.5605712890624999
1.5911865234375
1.554931640625
1.4961181640624999
1.4872558593749998
1.4896728515625
1.4864501953125
1.4993408203124998
1.5009521484375
1.4687255859375
2.4387451171875
1.98515625
1.62744140625
1.58232421875
1.3656005859375
1.2987304687499999
1.0046630859374999
0.775048828125
0.9007324218749999
1.1351806640625
1.2834228515625
1.3527099609375
1.3309570312499999
1.5025634765625
1.4993408203124998
1.5154541015624998
1.53076171875
1.533984375
1.5436523437499998
1.5331787109375
1.5146484375
0.488232421875
1.007080078125
1.3857421875
1.46630859375
1.6209960937499999
1.764404296875
1.957763671875
2.9197265624999997
2.1309814453125
1.7579589843749999
1.6201904296874998
1.5509033203125
1.56943359375
1.5235107421874998
1.6121337890624998
1.5267333984375
1.49853515625
1.5436523437499998
1.509814453125
1.48564453125
1.4791992187499998
2.2985595703125
2.3662353515625
1.674169921875
1.5766845703124999
1.3905761718749998
1.3720458984375
1.181103515625
0.7162353515625
0.8483642578124999
1.05380859375
1.2826171874999999
1.3801025390625
1.3833251953124999
1.4461669921875
1.4888671875
1.4920898437499999
1.4945068359375
1.4671142578124998
1.5315673828124998
1.542041015625
1.5573486328125
0.6670898437499999
0.5051513671875
1.3607666015625
1.4276367187499999
1.6153564453125
1.5879638671874998
1.812744140625
2.8979736328124996
2.357373046875
1.8441650390625
1.6137451171875
1.585546875
1.5637939453124998
1.5557373046874998
1.5662109375
1.525927734375
1.5106201171875
1.53720703125
1.49853515625
1.4977294921875
1.4735595703125
1.4703369140625
2.8351318359374997
1.819189453125
1.590380859375
1.5082031249999999
1.5017578125
1.1835205078125
0.610693359375
0.837890625
0.966796875
1.248779296875
1.3317626953125
1.36962890625
1.416357421875
1.493701171875
1.5033691406249998
1.529150390625
1.5186767578125
1.5404296874999999
1.5299560546875
1.5364013671874999
1.5154541015624998
0.046728515624999994
1.14404296875
1.4413330078125
1.5533203125
1.61455078125
1.8022705078124999
2.52978515625
2.6844726562499996
1.8739746093749998
1.6532226562499999
1.5927978515624999
1.5621826171875
1.5670166015625
1.5444580078124999
1.509814453125
1.493701171875
1.4880615234374999
1.5057861328125
1.4896728515625
1.4880615234374999
1.4993408203124998
2.7972656249999996
1.82724609375
1.6072998046875
1.5662109375
1.4928955078125
1.2673095703125
0.8838134765625
0.7927734375
0.952294921875
1.1964111328125
1.3180664062499998
1.3905761718749998
1.348681640625
1.4961181640624999
1.5073974609374998
1.52109375
1.5460693359375
1.5194824218749998
1.5218994140625
1.52109375
1.4945068359375
0.01611328125
1.1674072265625
1.474365234375
1.4928955078125
1.638720703125
1.75634765625
2.0044921875
2.7747070312499997
2.0471923828125
1.7394287109375
1.593603515625
1.5412353515625
1.587158203125
1.5355957031249998
1.5017578125
1.4993408203124998
1.4880615234374999
1.509814453125
1.4896728515625
1.5057861328125
1.5009521484375
2.6764160156249996
2.165625
1.6524169921874998
1.5831298828125
1.3792968749999999
1.2955078125
0.9434326171874999
0.7661865234374999
0.8725341796874999
1.0900634765625
1.3092041015625
1.3704345703124998
1.3494873046875
1.47275390625
1.5275390624999998
1.53076171875
1.5146484375
1.5146484375
1.5331787109375
1.5355957031249998
1.5025634765625
0.2513671875
0.7138183593749999
1.3728515625
1.4840332031249999
1.6733642578124999
1.714453125
2.0214111328124997
2.9285888671875
2.302587890625
1.8393310546875
1.6072998046875
1.5565429687499999
1.5428466796875
1.50498046875
1.558154296875
1.529150390625
1.5017578125
1.53720703125
1.482421875
1.4800048828124999
1.4751708984374998
1.6830322265625
2.6208251953125
1.670947265625
1.5911865234375
1.456640625
1.3100097656249998
1.11826171875
0.6195556640625
0.8515869140625
1.0771728515624999
1.2858398437499998
1.3478759765625
1.3857421875
1.4510009765624998
1.4542236328125
1.5001464843749999
1.51787109375
1.4872558593749998
1.533984375
1.5331787109375
1.5186767578125
1.3607666015625
0.22880859374999998
1.3825195312499998
1.41796875
1.5984375
1.651611328125
1.8546386718749999
2.6208251953125
2.56201171875
1.8369140625
1.6451660156249999
1.5718505859374998
1.5573486328125
1.5645996093749999
1.533984375
1.5025634765625
1.493701171875
1.456640625
1.5090087890625
1.4961181640624999
1.4759765624999999
1.47275390625
2.69736328125
1.751513671875
1.6008544921874999
1.458251953125
1.4945068359375
1.27294921875
0.75087890625
0.8668945312499999
0.9812988281249999
1.2109130859375
1.353515625
1.3792968749999999
1.3905761718749998
1.4993408203124998
1.52109375
1.5218994140625
1.5645996093749999
1.5283447265624999
1.5331787109375
1.5073974609374998
1.4977294921875
0.1297119140625
1.268115234375
1.4896728515625
1.5984375
1.587158203125
1.7499023437499999
2.1019775390624997
2.6361328124999996
1.9835449218749999
1.6967285156249998
1.5734619140625
1.561376953125
1.56298828125
1.5267333984375
1.5186767578125
1.5154541015624998
1.5033691406249998
1.5106201171875
1.46953125
1.4872558593749998
1.4703369140625
2.8593017578124997
2.0044921875
1.5984375
1.561376953125
