1.51787109375
1.53720703125
1.5428466796875
1.53720703125
1.53076171875
1.5218994140625
1.522705078125
1.5243164062499999
1.525927734375
1.5251220703125
1.7490966796874998
1.9569580078125
1.4945068359375
1.4590576171874998
1.5251220703125
1.4493896484375
1.40830078125
1.327734375
1.2914794921875
1.4115234374999999
1.48564453125
1.5073974609374998
1.522705078125
1.5138427734375
1.5565429687499999
1.5436523437499998
1.538818359375
1.5347900390625
1.5396240234374998
1.5492919921875
1.5404296874999999
1.239111328125
1.0820068359375
1.6242187499999998
1.525927734375
1.5355957031249998
1.6185791015625
1.6443603515624998
2.1382324218749997
1.7700439453124999
1.5509033203125
1.525927734375
1.5154541015624998
1.513037109375
1.5444580078124999
1.5299560546875
1.53076171875
1.5218994140625
1.53076171875
1.5267333984375
1.53076171875
1.522705078125
1.5283447265624999
2.1704589843749997
1.506591796875
1.5082031249999999
1.545263671875
1.496923828125
1.4091064453125
1.21171875
1.300341796875
1.397021484375
1.496923828125
1.5122314453124999
1.529150390625
1.5041748046874999
1.5573486328125
1.542041015625
1.5444580078124999
1.5412353515625
1.5412353515625
1.5492919921875
1.5484863281249999
1.55009765625
0.8564208984374999
1.6137451171875
1.5815185546875
1.5218994140625
1.6089111328124999
1.635498046875
1.9674316406249999
1.928759765625
1.5645996093749999
1.533984375
1.52109375
1.5146484375
1.542041015625
1.5202880859374999
1.5355957031249998
1.52109375
1.5170654296875
1.533984375
1.5275390624999998
1.5218994140625
1.5267333984375
2.183349609375
1.6242187499999998
1.4864501953125
1.5404296874999999
1.5073974609374998
1.4397216796874999
1.2955078125
1.3067871093749999
1.3527099609375
1.4606689453125
1.493701171875
1.5154541015624998
1.5057861328125
1.554931640625
1.5533203125
1.5460693359375
1.5428466796875
1.558154296875
1.5573486328125
1.5476806640624998
1.52109375
0.84111328125
1.4791992187499998
1.6282470703124998
1.5299560546875
1.5807128906249999
1.6636962890625
2.012548828125
1.91748046875
1.60166015625
1.5267333984375
1.5251220703125
1.5170654296875
1.533984375
1.5243164062499999
1.5380126953125
1.5267333984375
1.533984375
1.5396240234374998
1.5364013671874999
1.5243164062499999
1.52109375
1.9053955078125
1.8602783203125
1.47275390625
1.546875
1.5243164062499999
1.4195800781249999
1.329345703125
1.2914794921875
1.3172607421875
1.46953125
1.5017578125
1.5186767578125
1.49853515625
1.546875
1.5533203125
1.5444580078124999
1.5509033203125
1.5436523437499998
1.53720703125
1.5476806640624998
1.5380126953125
1.0812011718749999
1.174658203125
1.6306640625
1.533984375
1.5517089843749998
1.6645019531249998
1.6927001953124998
2.1180908203124997
1.638720703125
1.5323730468749999
1.5218994140625
1.51787109375
1.5347900390625
1.5315673828124998
1.5331787109375
1.5299560546875
1.5243164062499999
1.5347900390625
1.52109375
1.5202880859374999
1.5283447265624999
1.522705078125
1.9142578124999998
1.480810546875
1.5106201171875
1.5146484375
1.4397216796874999
1.3978271484375
1.287451171875
1.3083984375
1.426025390625
1.5001464843749999
1.5154541015624998
1.5243164062499999
1.5267333984375
1.5251220703125
1.5444580078124999
1.546875
1.5573486328125
1.5428466796875
1.5517089843749998
1.5347900390625
1.1641845703125
1.119873046875
1.6371093749999999
1.5605712890624999
1.558154296875
1.635498046875
1.6491943359374999
2.1180908203124997
1.7499023437499999
1.5557373046874998
1.522705078125
1.5122314453124999
1.5218994140625
1.546875
1.5283447265624999
1.5243164062499999
1.5186767578125
1.5275390624999998
1.5267333984375
1.5162597656249999
1.5138427734375
1.529150390625
2.1648193359375
1.5525146484374999
1.5162597656249999
1.546875
1.4928955078125
1.4034667968749999
1.2173583984375
1.3253173828125
1.400244140625
1.4953124999999998
1.506591796875
1.522705078125
1.509814453125
1.5557373046874998
1.5331787109375
1.5476806640624998
1.5484863281249999
1.5412353515625
1.5444580078124999
1.5428466796875
1.5364013671874999
0.8588378906249999
1.5267333984375
1.5766845703124999
1.5186767578125
1.5807128906249999
1.64677734375
1.9400390625
1.93681640625
1.590380859375
1.5170654296875
1.5283447265624999
1.5243164062499999
1.545263671875
1.5315673828124998
1.5380126953125
1.522705078125
1.533984375
1.5509033203125
1.529150390625
1.52109375
1.5194824218749998
2.0455810546874997
1.574267578125
1.4872558593749998
1.5428466796875
1.4888671875
1.4381103515625
1.2511962890625
1.3220947265624998
1.3712402343749999
1.4791992187499998
1.50498046875
1.522705078125
1.5041748046874999
1.5492919921875
1.542041015625
1.5484863281249999
1.5364013671874999
1.538818359375
1.5573486328125
1.5396240234374998
1.5436523437499998
0.9208740234374999
1.52109375
1.6201904296874998
1.522705078125
1.5726562499999999
1.6483886718749998
1.7450683593749998
2.075390625
1.603271484375
1.5243164062499999
1.5436523437499998
1.5146484375
1.542041015625
1.5275390624999998
1.538818359375
1.5331787109375
1.5315673828124998
1.5283447265624999
1.5251220703125
1.5138427734375
1.522705078125
2.0004638671875
1.7990478515625
1.47275390625
1.5541259765625
1.5090087890625
1.4268310546874998
1.3744628906249998
1.2930908203125
1.33740234375
1.4373046875
1.5033691406249998
1.5106201171875
1.5122314453124999
1.5380126953125
1.5541259765625
1.5525146484374999
1.5460693359375
1.5323730468749999
1.5331787109375
1.5444580078124999
1.5476806640624998
1.0127197265624999
1.2616699218749998
1.6604736328124998
1.5404296874999999
1.5621826171875
1.6314697265625
1.6443603515624998
2.0947265625
1.6862548828125
1.5476806640624998
1.5315673828124998
1.5267333984375
1.5275390624999998
1.5186767578125
1.5396240234374998
1.5404296874999999
1.53076171875
1.5299560546875
1.5299560546875
1.5218994140625
1.5218994140625
1.5597656249999998
2.0794189453125
1.4638916015624999
1.513037109375
1.5380126953125
1.4800048828124999
1.393798828125
1.2189697265625
1.3237060546875
1.4397216796874999
1.5025634765625
1.51787109375
1.5243164062499999
1.525927734375
1.5541259765625
1.56298828125
1.5428466796875
1.546875
1.5436523437499998
1.5573486328125
1.5380126953125
1.4840332031249999
0.928125
1.6483886718749998
1.5557373046874998
1.5380126953125
1.5863525390625
1.654833984375
2.0004638671875
1.8828369140624999
1.5509033203125
1.522705078125
1.5162597656249999
1.5202880859374999
1.53076171875
1.5235107421874998
1.5355957031249998
1.5218994140625
1.5283447265624999
1.5299560546875
1.5380126953125
1.5283447265624999
1.5275390624999998
2.1301757812499997
1.5323730468749999
1.49853515625
1.53720703125
1.4896728515625
1.4244140625
1.2431396484375
1.319677734375
1.400244140625
1.4888671875
1.5114257812499998
1.5114257812499998
1.509814453125
1.5533203125
1.538818359375
1.5444580078124999
1.5460693359375
1.538818359375
1.5404296874999999
1.5436523437499998
1.5323730468749999
0.8958984375
1.5670166015625
1.609716796875
1.5275390624999998
1.5911865234375
1.6483886718749998
1.7700439453124999
1.9223144531249998
1.5960205078124998
1.53720703125
1.5170654296875
1.5082031249999999
1.5404296874999999
1.5162597656249999
1.52109375
1.5186767578125
1.5162597656249999
1.533984375
1.529150390625
1.5283447265624999
1.5283447265624999
2.12373046875
1.7047851562499998
1.464697265625
1.5396240234374998
1.4993408203124998
1.413134765625
1.2536132812499998
1.2938964843749998
1.3390136718749999
1.4671142578124998
1.53076171875
1.554931640625
1.5146484375
1.5428466796875
1.5396240234374998
1.5412353515625
1.5404296874999999
1.5396240234374998
1.5492919921875
1.5476806640624998
1.53720703125
0.90556640625
1.3543212890624998
1.641943359375
1.5428466796875
1.574267578125
1.658056640625
1.7265380859375
2.0890869140625
1.6765869140624998
1.52109375
1.5154541015624998
1.5114257812499998
1.529150390625
1.51787109375
1.53720703125
1.522705078125
1.5243164062499999
1.5347900390625
1.5323730468749999
1.5243164062499999
1.5283447265624999
1.670947265625
1.996435546875
1.4518066406249999
1.5347900390625
1.5283447265624999
1.4219970703125
1.3792968749999999
1.2463623046874999
1.3156494140625
1.4461669921875
1.5073974609374998
1.5090087890625
1.5146484375
1.5460693359375
1.5541259765625
1.5565429687499999
1.55009765625
1.5444580078124999
1.5396240234374998
1.5428466796875
1.5404296874999999
1.3833251953124999
1.297119140625
1.6475830078125
1.5541259765625
1.545263671875
1.65
1.6564453124999998
2.0471923828125
1.71123046875
1.5396240234374998
1.5122314453124999
1.509814453125
1.5170654296875
1.5331787109375
1.5299560546875
1.5170654296875
1.525927734375
1.5194824218749998
1.513037109375
1.5251220703125
1.538818359375
1.6379150390625
2.0794189453125
1.4928955078125
1.4953124999999998
1.5235107421874998
1.456640625
1.4139404296875
1.219775390625
1.3212890625
1.4042724609375
1.4896728515625
1.5283447265624999
1.52109375
1.5017578125
1.5509033203125
1.5645996093749999
1.5460693359375
1.53720703125
1.5380126953125
1.5396240234374998
1.5428466796875
1.456640625
0.9555175781249999
1.6056884765625
1.5895751953125
1.5444580078124999
1.5960205078124998
1.63388671875
1.9859619140625
1.883642578125
1.5799072265624998
1.5194824218749998
1.5138427734375
1.5170654296875
1.538818359375
1.5299560546875
1.53720703125
1.5267333984375
1.5162597656249999
1.53076171875
1.522705078125
1.52109375
1.5146484375
2.1712646484375
1.625830078125
1.4945068359375
1.5444580078124999
1.49853515625
1.4276367187499999
1.2342773437499999
1.316455078125
1.3849365234375
1.4993408203124998
1.5194824218749998
1.53720703125
1.506591796875
1.5476806640624998
1.5428466796875
1.5509033203125
1.5476806640624998
1.5428466796875
1.5364013671874999
1.542041015625
1.5380126953125
0.855615234375
1.5887695312499999
1.590380859375
1.5436523437499998
1.5766845703124999
1.638720703125
1.7692382812499998
2.047998046875
1.5791015625
1.5154541015624998
1.522705078125
1.5154541015624998
1.53076171875
1.5355957031249998
1.5323730468749999
1.5218994140625
1.5251220703125
1.5243164062499999
1.5146484375
1.5186767578125
1.51787109375
1.8393310546875
1.65966796875
1.4598632812499999
1.529150390625
1.49853515625
1.4219970703125
1.3583496093749998
1.3188720703124999
1.3792968749999999
1.4953124999999998
1.5380126953125
1.5283447265624999
1.5033691406249998
1.5428466796875
1.5509033203125
1.5428466796875
1.5444580078124999
1.545263671875
1.5347900390625
1.5331787109375
1.538818359375
0.881396484375
1.3962158203125
1.64677734375
1.542041015625
1.577490234375
1.6532226562499999
1.6725585937499998
2.080224609375
1.658056640625
1.525927734375
1.5082031249999999
1.5057861328125
1.5218994140625
1.53720703125
1.5315673828124998
1.5186767578125
1.5202880859374999
1.533984375
1.53076171875
1.5283447265624999
1.5355957031249998
1.7450683593749998
1.9650146484375
1.46953125
1.5299560546875
1.5138427734375
1.44052734375
1.3623779296874998
1.2463623046874999
1.313232421875
1.4244140625
1.50498046875
1.5235107421874998
1.5235107421874998
1.5404296874999999
1.5637939453124998
1.5654052734375
1.5597656249999998
1.533984375
1.525927734375
1.5267333984375
1.525927734375
1.2987304687499999
1.0489746093749999
1.6306640625
1.5509033203125
1.5645996093749999
1.62744140625
1.706396484375
2.070556640625
1.84013671875
1.5460693359375
1.5186767578125
1.5146484375
1.5218994140625
1.5218994140625
1.5162597656249999
1.525927734375
1.5146484375
1.51787109375
1.5275390624999998
1.5243164062499999
1.5162597656249999
1.5106201171875
2.1664306640624997
1.4816162109375
1.496923828125
1.533984375
1.4638916015624999
1.4228027343749998
1.197216796875
1.3365966796875
1.44052734375
1.5106201171875
1.5355957031249998
1.5299560546875
1.5138427734375
1.5396240234374998
1.5283447265624999
1.5331787109375
1.5436523437499998
1.5364013671874999
1.5436523437499998
1.5412353515625
1.5355957031249998
0.992578125
1.6048828124999999
1.5879638671874998
1.5355957031249998
1.60166015625
1.6290527343749999
1.915869140625
1.7901855468749999
1.5670166015625
1.5243164062499999
1.51787109375
1.5170654296875
1.5404296874999999
1.522705078125
1.52109375
1.5251220703125
1.5162597656249999
1.5396240234374998
1.5380126953125
1.529150390625
1.5323730468749999
2.193017578125
1.622607421875
1.4800048828124999
1.5396240234374998
1.4928955078125
1.4437499999999999
1.219775390625
1.319677734375
1.36962890625
1.47275390625
1.506591796875
1.5114257812499998
1.4945068359375
1.5509033203125
1.5476806640624998
1.5517089843749998
1.5492919921875
1.5484863281249999
1.5380126953125
1.5364013671874999
1.5436523437499998
0.823388671875
1.48564453125
1.6314697265625
1.5355957031249998
1.5968261718749999
1.6564453124999998
1.9400390625
1.9754882812499999
1.5927978515624999
1.529150390625
1.522705078125
1.5251220703125
1.5315673828124998
1.52109375
1.5194824218749998
1.5283447265624999
1.529150390625
1.5404296874999999
1.5331787109375
1.5347900390625
1.52109375
1.8949218749999999
1.8763916015625
1.464697265625
1.5428466796875
1.5138427734375
1.4300537109375
1.3333740234375
1.2802001953125
1.3390136718749999
1.46630859375
1.506591796875
1.5154541015624998
1.4993408203124998
1.5509033203125
1.558154296875
1.554931640625
1.5436523437499998
1.5380126953125
1.5380126953125
1.542041015625
1.5315673828124998
1.1319580078125
1.1545166015625
1.6218017578125
1.5412353515625
1.56298828125
1.65966796875
1.690283203125
2.1035888671875
1.7603759765625
1.5283447265624999
1.5323730468749999
1.5170654296875
1.5194824218749998
1.5275390624999998
1.5404296874999999
1.5267333984375
1.53076171875
1.5283447265624999
1.53076171875
1.5323730468749999
1.52109375
1.522705078125
1.9263427734374998
1.4711425781249998
1.5025634765625
1.5170654296875
1.445361328125
1.3978271484375
1.1923828125
1.3229003906249999
1.4348876953124998
1.5114257812499998
1.5251220703125
1.5106201171875
1.522705078125
1.5476806640624998
1.5412353515625
1.5380126953125
1.5404296874999999
1.5396240234374998
1.5444580078124999
1.5355957031249998
1.2318603515625
1.095703125
1.6451660156249999
1.5734619140625
1.5621826171875
1.6371093749999999
1.674169921875
2.10439453125
1.7974365234374998
1.5492919921875
1.5170654296875
1.5122314453124999
1.51787109375
1.5428466796875
1.5194824218749998
1.522705078125
1.51787109375
1.522705078125
1.5323730468749999
1.5186767578125
1.5218994140625
1.5331787109375
2.1809326171875
1.5589599609375
1.49853515625
1.533984375
1.4888671875
1.4058837890625
1.2020507812499999
1.3108154296874999
1.38896484375
1.4945068359375
1.5057861328125
1.51787109375
1.5275390624999998
1.5509033203125
1.5436523437499998
1.5573486328125
1.5541259765625
1.561376953125
1.5460693359375
1.5364013671874999
1.5186767578125
0.8362792968749999
1.525927734375
1.5839355468749998
1.5380126953125
1.56943359375
1.6185791015625
1.8780029296874998
1.977099609375
1.6089111328124999
1.5412353515625
1.51787109375
1.52109375
1.546875
1.5299560546875
1.5251220703125
1.542041015625
1.542041015625
1.53720703125
1.53720703125
1.51787109375
1.5170654296875
2.047998046875
1.5863525390625
1.4848388671875
1.5331787109375
1.4945068359375
1.426025390625
1.252001953125
1.3043701171875
1.3752685546874999
1.4791992187499998
1.49853515625
1.5194824218749998
1.48564453125
1.5565429687499999
1.545263671875
1.5436523437499998
1.55009765625
1.5492919921875
1.554931640625
1.5557373046874998
1.5525146484374999
0.961962890625
1.4928955078125
1.6209960937499999
1.5267333984375
1.5879638671874998
1.651611328125
1.7104248046875
2.1076171875
1.5944091796875
1.509814453125
1.506591796875
1.5138427734375
1.5347900390625
1.5218994140625
1.542041015625
1.5347900390625
1.529150390625
1.5355957031249998
1.554931640625
1.55009765625
1.5557373046874998
2.002880859375
1.82724609375
1.4397216796874999
1.5202880859374999
1.493701171875
1.409912109375
1.377685546875
1.2608642578125
1.335791015625
1.4397216796874999
1.5073974609374998
1.5114257812499998
1.5202880859374999
1.5364013671874999
1.5404296874999999
1.55009765625
1.5436523437499998
1.5436523437499998
1.542041015625
1.5444580078124999
1.533984375
1.036083984375
1.2173583984375
1.6435546875
1.53720703125
1.5484863281249999
1.6306640625
1.7072021484375
2.1140624999999997
1.72412109375
1.5428466796875
1.5218994140625
1.5194824218749998
1.5170654296875
1.5267333984375
1.5323730468749999
1.5331787109375
1.525927734375
1.5323730468749999
1.529150390625
1.538818359375
1.525927734375
1.5460693359375
2.11728515625
1.4638916015624999
1.509814453125
1.5243164062499999
1.42119140625
1.3905761718749998
1.1923828125
1.3140380859374998
1.4348876953124998
1.5025634765625
1.5073974609374998
1.5218994140625
1.5380126953125
1.558154296875
1.554931640625
1.554931640625
1.5525146484374999
1.5484863281249999
1.5412353515625
1.5404296874999999
1.5170654296875
0.8854248046875
1.6379150390625
1.5758789062499998
1.5557373046874998
1.6411376953124999
1.6653076171874999
1.94970703125
1.909423828125
1.538818359375
1.5146484375
1.5082031249999999
1.51787109375
1.53720703125
1.5299560546875
1.525927734375
1.5251220703125
1.529150390625
1.5364013671874999
1.5267333984375
1.5251220703125
1.5364013671874999
2.14951171875
1.529150390625
1.4953124999999998
1.5476806640624998
1.4848388671875
1.4236083984374999
1.252001953125
1.3204833984375
1.393798828125
1.496923828125
1.5073974609374998
1.51787109375
1.5033691406249998
1.558154296875
1.546875
1.5444580078124999
1.5380126953125
1.5396240234374998
1.5444580078124999
1.5484863281249999
1.5323730468749999
0.8628662109374999
1.5565429687499999
1.61455078125
1.5347900390625
1.5766845703124999
1.641943359375
1.7450683593749998
1.9400390625
1.60166015625
1.5267333984375
1.52109375
1.51787109375
1.5484863281249999
1.5331787109375
1.5218994140625
1.5138427734375
1.5154541015624998
1.5404296874999999
1.538818359375
1.5186767578125
1.5218994140625
2.0979492187499997
1.719287109375
1.490478515625
1.542041015625
1.5017578125
1.4195800781249999
1.2769775390625
1.29228515625
1.3551269531249999
1.4832275390624998
1.4993408203124998
1.529150390625
1.5162597656249999
1.5605712890624999
1.5509033203125
1.545263671875
1.5404296874999999
1.5412353515625
1.5412353515625
1.5331787109375
1.5331787109375
0.9208740234374999
1.30517578125
1.6250244140624999
1.5396240234374998
1.5766845703124999
1.6508056640625
1.7297607421874999
2.101171875
1.6862548828125
1.5251220703125
1.5331787109375
1.5283447265624999
1.5267333984375
1.5122314453124999
1.5283447265624999
1.5235107421874998
1.5186767578125
1.529150390625
1.5235107421874998
1.529150390625
1.5243164062499999
1.6604736328124998
1.7724609375
1.4510009765624998
1.5186767578125
1.5887695312499999
1.413134765625
1.36962890625
1.2238037109375
1.3462646484374998
1.4630859374999998
1.506591796875
1.513037109375
1.52109375
1.53720703125
1.55009765625
1.55009765625
1.5412353515625
1.542041015625
1.5323730468749999
1.5412353515625
1.5331787109375
1.4066894531249998
1.2528076171875
1.638720703125
1.5476806640624998
1.5702392578125
1.651611328125
1.670947265625
2.02060546875
1.7152587890625
1.5323730468749999
1.5154541015624998
1.506591796875
1.5202880859374999
1.538818359375
1.5484863281249999
1.5396240234374998
1.53076171875
1.456640625
1.5428466796875
1.5380126953125
1.542041015625
1.6137451171875
2.07216796875
1.4872558593749998
1.5025634765625
1.525927734375
1.46953125
1.409912109375
1.19560546875
1.3180664062499998
1.3978271484375
1.5090087890625
1.5251220703125
1.525927734375
1.509814453125
1.5444580078124999
1.542041015625
1.5412353515625
1.5404296874999999
1.5476806640624998
1.545263671875
1.5331787109375
1.464697265625
0.93779296875
1.6000488281249998
1.571044921875
1.5162597656249999
1.606494140625
1.6725585937499998
2.006103515625
1.8780029296874998
1.56943359375
1.5218994140625
1.5202880859374999
1.5138427734375
1.5444580078124999
1.5170654296875
1.5275390624999998
1.5218994140625
1.525927734375
1.5315673828124998
1.5428466796875
1.5170654296875
1.525927734375
2.1777099609375
1.4961181640624999
1.5017578125
1.5444580078124999
1.5114257812499998
1.4187744140624998
1.235888671875
1.3043701171875
1.3905761718749998
1.5025634765625
1.509814453125
1.5355957031249998
1.533984375
1.5726562499999999
1.55009765625
1.5396240234374998
1.545263671875
1.5380126953125
1.533984375
1.542041015625
1.5355957031249998
0.8499755859375
1.5807128906249999
1.6040771484374998
1.53720703125
1.5927978515624999
1.6282470703124998
1.7531249999999998
2.060888671875
1.5815185546875
1.529150390625
1.5138427734375
1.522705078125
1.55009765625
1.5299560546875
1.5347900390625
1.5323730468749999
1.533984375
1.5243164062499999
1.525927734375
1.5331787109375
1.51787109375
2.152734375
1.674169921875
1.4493896484375
1.5275390624999998
1.49853515625
1.4332763671875
1.3607666015625
1.2947021484374999
1.335791015625
1.445361328125
1.5033691406249998
1.5154541015624998
1.5033691406249998
1.5541259765625
1.5525146484374999
1.55009765625
1.5565429687499999
1.5460693359375
1.5484863281249999
1.5484863281249999
1.5436523437499998
0.8660888671875
1.3954101562499999
1.6524169921874998
1.5492919921875
1.577490234375
1.654833984375
1.764404296875
2.0649169921875
1.638720703125
1.51787109375
1.506591796875
1.5138427734375
1.5275390624999998
1.51787109375
1.5186767578125
1.5235107421874998
1.5194824218749998
1.5243164062499999
1.5243164062499999
1.53720703125
1.5267333984375
1.7474853515625
1.9835449218749999
1.47275390625
1.55009765625
1.5428466796875
1.4332763671875
1.3720458984375
1.2270263671875
1.319677734375
1.4381103515625
1.496923828125
1.51787109375
1.5122314453124999
1.5412353515625
1.554931640625
1.5364013671874999
1.5355957031249998
1.5396240234374998
1.533984375
1.5436523437499998
1.529150390625
1.300341796875
1.042529296875
1.6371093749999999
1.5525146484374999
1.5509033203125
1.6604736328124998
1.6830322265625
2.0576660156249997
1.80791015625
1.5364013671874999
1.51787109375
1.5186767578125
1.5154541015624998
1.5267333984375
1.5267333984375
1.5202880859374999
1.5275390624999998
1.5283447265624999
1.5323730468749999
1.53076171875
1.5299560546875
1.53076171875
2.0391357421875
1.4977294921875
1.5082031249999999
1.522705078125
1.461474609375
1.4236083984374999
1.1899658203124999
1.3333740234375
1.4356933593749999
1.5106201171875
1.493701171875
1.4928955078125
1.464697265625
1.51787109375
1.542041015625
1.545263671875
1.5484863281249999
1.5476806640624998
1.545263671875
1.5315673828124998
1.3664062499999998
1.0094970703125
1.6129394531249999
1.5654052734375
1.546875
1.606494140625
1.638720703125
2.126953125
1.8232177734375
1.587158203125
1.546875
1.5444580078124999
1.5267333984375
1.545263671875
1.5533203125
1.5605712890624999
1.5218994140625
1.4880615234374999
1.4638916015624999
1.46953125
1.493701171875
1.533984375
2.231689453125
1.622607421875
1.48564453125
1.525927734375
1.4961181640624999
1.4107177734374998
1.22138671875
1.3430419921874999
1.3946044921874998
1.5243164062499999
1.4961181640624999
1.5218994140625
1.5202880859374999
1.5863525390625
1.5396240234374998
1.5267333984375
1.5355957031249998
1.5202880859374999
1.5170654296875
1.5275390624999998
1.5380126953125
0.845947265625
1.4816162109375
1.6121337890624998
1.542041015625
1.577490234375
1.6306640625
1.8087158203125
2.051220703125
1.6290527343749999
1.5186767578125
1.5347900390625
1.525927734375
1.5476806640624998
1.5025634765625
1.4961181640624999
1.5041748046874999
1.490478515625
1.5170654296875
1.5517089843749998
1.5283447265624999
1.5364013671874999
1.9432617187499999
1.658056640625
1.4526123046875
1.49853515625
1.480810546875
1.4195800781249999
1.3204833984375
1.2415283203124998
1.368017578125
1.4977294921875
1.5396240234374998
1.5460693359375
1.5154541015624998
1.5396240234374998
1.538818359375
1.5509033203125
1.558154296875
1.561376953125
1.55009765625
1.542041015625
1.533984375
1.1110107421875
1.43408203125
1.658056640625
1.5637939453124998
1.574267578125
1.6862548828125
1.7120361328125
2.141455078125
1.651611328125
1.4896728515625
1.4783935546875
1.5275390624999998
1.53076171875
1.5106201171875
1.5033691406249998
1.5009521484375
1.5194824218749998
1.5412353515625
1.546875
1.5380126953125
1.522705078125
1.8425537109374999
1.9198974609375
1.4590576171874998
1.5299560546875
1.509814453125
1.4244140625
1.3921875
1.2366943359375
1.3301513671874998
1.4332763671875
1.493701171875
1.5090087890625
1.5122314453124999
1.5235107421874998
1.5573486328125
1.55009765625
1.546875
1.5525146484374999
1.5444580078124999
1.546875
1.5484863281249999
1.200439453125
1.1029541015625
1.641943359375
1.55009765625
1.5146484375
1.6153564453125
1.7313720703125
2.102783203125
1.7772949218749998
1.53720703125
1.533984375
1.5235107421874998
1.5186767578125
1.533984375
1.5275390624999998
1.522705078125
1.5202880859374999
1.5412353515625
1.554931640625
1.5670166015625
1.5605712890624999
1.5436523437499998
2.2236328125
1.4800048828124999
1.4864501953125
1.5218994140625
1.44052734375
1.4203857421875
1.184326171875
1.3148437499999999
1.4638916015624999
1.5154541015624998
1.48564453125
1.4961181640624999
1.4928955078125
1.546875
1.5073974609374998
1.496923828125
1.533984375
1.5718505859374998
1.55009765625
1.52109375
1.5170654296875
0.8145263671874999
1.6564453124999998
1.5919921874999998
1.5484863281249999
1.6081054687499998
1.6435546875
1.9029785156249999
1.9658203125
1.5428466796875
1.5299560546875
1.5412353515625
1.5444580078124999
1.5444580078124999
1.5146484375
1.5138427734375
1.4928955078125
1.4945068359375
1.5057861328125
1.5001464843749999
1.52109375
1.5396240234374998
2.25263671875
1.5702392578125
1.4953124999999998
1.5509033203125
1.5218994140625
1.4445556640625
1.3100097656249998
1.3180664062499998
1.4042724609375
1.50498046875
1.525927734375
1.561376953125
1.5251220703125
1.5404296874999999
1.51787109375
1.525927734375
1.554931640625
1.49853515625
1.482421875
1.5106201171875
1.50498046875
0.760546875
1.4912841796874998
1.609716796875
1.545263671875
1.5992431640625
1.670947265625
1.7450683593749998
2.0375244140624997
1.6314697265625
1.5162597656249999
1.50498046875
1.49853515625
1.5404296874999999
1.5662109375
1.5492919921875
1.5315673828124998
1.5202880859374999
1.5436523437499998
1.5444580078124999
1.55009765625
1.5718505859374998
2.044775390625
1.8111328125
1.40185546875
1.5001464843749999
1.5025634765625
1.4244140625
1.3422363281249998
1.2769775390625
1.3688232421875
1.5090087890625
1.5082031249999999
1.5025634765625
1.4896728515625
1.545263671875
1.554931640625
1.5380126953125
1.5218994140625
1.5057861328125
1.5073974609374998
1.5170654296875
1.49853515625
0.958740234375
1.1778808593749999
1.6403320312499998
1.5565429687499999
1.5678222656249998
1.6572509765624999
1.7370117187499998
2.165625
1.7378173828124999
1.5541259765625
1.561376953125
1.577490234375
1.5919921874999998
1.5194824218749998
1.4993408203124998
1.4800048828124999
1.5315673828124998
1.5154541015624998
1.5001464843749999
1.513037109375
1.5041748046874999
1.5243164062499999
1.8796142578125
1.482421875
1.522705078125
1.5533203125
1.3825195312499998
1.3446533203125
1.1408203125
1.3027587890624999
1.41796875
1.4945068359375
1.5162597656249999
1.5637939453124998
1.5807128906249999
1.5807128906249999
1.5509033203125
1.5662109375
1.5492919921875
1.5275390624999998
1.5621826171875
1.5654052734375
1.5154541015624998
1.1408203125
1.667724609375
1.5637939453124998
1.5275390624999998
1.63388671875
1.6773925781249999
2.028662109375
1.7410400390624998
1.5243164062499999
1.5355957031249998
1.5718505859374998
1.5412353515625
1.509814453125
1.4840332031249999
1.5001464843749999
1.5082031249999999
1.5243164062499999
1.542041015625
1.5404296874999999
1.5218994140625
1.5202880859374999
2.2083251953125
1.52109375
1.4912841796874998
1.538818359375
1.4800048828124999
1.4187744140624998
1.168212890625
1.2866455078124999
1.3744628906249998
1.4751708984374998
1.5001464843749999
1.533984375
1.5138427734375
1.56298828125
1.5404296874999999
1.5533203125
1.5654052734375
1.5750732421875
1.5380126953125
1.5323730468749999
1.5605712890624999
0.75732421875
1.513037109375
1.5404296874999999
1.5251220703125
1.5887695312499999
1.641943359375
1.9521240234375
1.996435546875
1.6153564453125
1.5299560546875
1.5267333984375
1.5162597656249999
1.5243164062499999
1.5114257812499998
1.546875
1.5662109375
1.5557373046874998
1.577490234375
1.53720703125
1.5267333984375
1.533984375
2.17529296875
1.7217041015624999
1.4791992187499998
1.5194824218749998
1.4759765624999999
1.4115234374999999
1.248779296875
1.2656982421874998
1.3349853515624999
1.5106201171875
1.5323730468749999
1.5106201171875
1.44052734375
1.5082031249999999
1.53720703125
1.5517089843749998
1.5533203125
1.5782958984375
1.59521484375
1.574267578125
1.56943359375
0.865283203125
1.368017578125
1.6234130859375
1.5235107421874998
1.561376953125
1.60166015625
1.7080078125
2.157568359375
1.61455078125
1.5122314453124999
1.5243164062499999
1.5138427734375
1.538818359375
1.5251220703125
1.5364013671874999
1.5492919921875
1.56943359375
1.5678222656249998
1.55009765625
1.5122314453124999
1.4606689453125
1.5968261718749999
1.80791015625
1.493701171875
1.5686279296874999
1.5186767578125
1.3873535156249999
1.340625
1.1537109374999999
1.3083984375
1.429248046875
1.5243164062499999
1.5702392578125
1.56298828125
1.546875
1.506591796875
1.5275390624999998
1.5517089843749998
1.5670166015625
1.5436523437499998
1.5476806640624998
1.5404296874999999
0.8822021484375
1.181103515625
1.6371093749999999
1.5235107421874998
1.538818359375
1.625830078125
1.674169921875
2.023828125
1.740234375
1.5557373046874998
1.5243164062499999
1.5396240234374998
1.545263671875
1.5766845703124999
1.52109375
1.5283447265624999
1.5702392578125
1.542041015625
1.5114257812499998
1.4920898437499999
1.5090087890625
1.60166015625
2.1865722656249997
1.4880615234374999
1.5017578125
1.5114257812499998
1.456640625
1.3801025390625
1.123095703125
1.2689208984375
1.3688232421875
1.4759765624999999
1.493701171875
1.5194824218749998
1.5162597656249999
1.5678222656249998
1.5686279296874999
1.58232421875
1.5807128906249999
1.5919921874999998
1.5662109375
1.5428466796875
1.4574462890625
0.7822998046874999
1.5702392578125
1.525927734375
1.5347900390625
1.60166015625
1.6564453124999998
2.093115234375
1.96904296875
1.6137451171875
1.5517089843749998
1.5347900390625
1.5283447265624999
1.5299560546875
1.5218994140625
1.5186767578125
1.509814453125
1.496923828125
1.5267333984375
1.513037109375
1.5154541015624998
1.5299560546875
2.3533447265625
1.5404296874999999
1.509814453125
1.5283447265624999
1.4840332031249999
1.3954101562499999
1.1770751953125
1.271337890625
1.364794921875
1.4510009765624998
1.477587890625
1.506591796875
1.5041748046874999
1.5799072265624998
1.5839355468749998
1.5565429687499999
1.5162597656249999
1.5017578125
1.5251220703125
1.5323730468749999
1.50498046875
0.6509765624999999
1.513037109375
1.6201904296874998
1.6024658203125
1.638720703125
1.6927001953124998
1.843359375
2.2268554687499997
1.651611328125
1.5283447265624999
1.4953124999999998
1.5412353515625
1.6056884765625
1.5927978515624999
1.5355957031249998
1.4703369140625
1.4630859374999998
1.4759765624999999
1.46953125
1.4832275390624998
1.4832275390624998
2.3082275390625
1.7184814453125
1.4461669921875
1.5509033203125
1.5243164062499999
1.416357421875
1.3704345703124998
1.26005859375
1.3100097656249998
1.42119140625
1.4840332031249999
1.5484863281249999
1.5323730468749999
1.5573486328125
1.4928955078125
1.52109375
1.5122314453124999
1.4920898437499999
1.506591796875
1.5436523437499998
1.5492919921875
0.7218749999999999
1.3382080078124998
1.662890625
1.53720703125
1.603271484375
1.7257324218749999
1.7813232421874998
2.2679443359375
1.74345703125
1.5492919921875
1.4888671875
1.474365234375
1.4671142578124998
1.474365234375
1.5460693359375
1.5887695312499999
1.545263671875
1.509814453125
1.5380126953125
1.5565429687499999
1.522705078125
1.7635986328125
2.1132568359375
1.43408203125
1.4912841796874998
1.4977294921875
1.4195800781249999
1.3269287109374999
1.155322265625
1.2769775390625
1.3929931640625
1.4791992187499998
1.4800048828124999
1.5082031249999999
1.5791015625
1.5944091796875
1.5799072265624998
1.58232421875
1.546875
1.50498046875
1.5090087890625
1.5267333984375
1.3551269531249999
0.920068359375
1.6693359374999999
1.5509033203125
1.5645996093749999
1.6532226562499999
1.7571533203124998
2.2244384765625
1.925537109375
1.48564453125
1.4493896484375
1.4735595703125
1.5017578125
1.525927734375
1.5114257812499998
1.5267333984375
1.5243164062499999
1.5436523437499998
1.5396240234374998
1.5162597656249999
1.4953124999999998
1.5017578125
2.367041015625
1.4783935546875
1.506591796875
1.5283447265624999
1.4558349609374999
1.3946044921874998
1.1448486328125
1.2568359375
1.3704345703124998
1.5001464843749999
1.4945068359375
1.5138427734375
1.5017578125
1.5605712890624999
1.5557373046874998
1.5533203125
1.5444580078124999
1.546875
1.5412353515625
1.5283447265624999
1.5396240234374998
0.7887451171875
1.5879638671874998
1.5766845703124999
1.5517089843749998
1.6169677734374999
1.662890625
1.861083984375
1.9215087890625
1.5734619140625
1.5267333984375
1.5194824218749998
1.51787109375
1.561376953125
1.5492919921875
1.5525146484374999
1.5146484375
1.5218994140625
1.5605712890624999
1.5718505859374998
1.5782958984375
1.5194824218749998
2.3823486328125
1.625830078125
1.4501953125
1.49853515625
1.4526123046875
1.3688232421875
1.0836181640625
1.1939941406249999
1.300341796875
1.4574462890625
1.5033691406249998
1.513037109375
1.46953125
1.5436523437499998
1.5605712890624999
1.5992431640625
1.59521484375
1.5887695312499999
1.5573486328125
1.5331787109375
1.529150390625
0.5937744140625
1.397021484375
1.635498046875
1.5702392578125
1.6089111328124999
1.6612792968749999
1.832080078125
2.2131591796875
1.651611328125
1.4840332031249999
1.513037109375
1.5170654296875
1.5355957031249998
1.5436523437499998
1.545263671875
1.5243164062499999
1.5162597656249999
1.5766845703124999
1.5654052734375
1.5001464843749999
1.4993408203124998
1.94970703125
2.0093261718749997
1.4526123046875
1.5355957031249998
1.5162597656249999
1.3543212890624998
1.3043701171875
1.190771484375
1.2995361328125
1.4791992187499998
1.4896728515625
1.46953125
1.4703369140625
1.5404296874999999
1.5436523437499998
1.542041015625
1.5541259765625
1.55009765625
1.5525146484374999
1.6081054687499998
1.5621826171875
1.0812011718749999
0.9079833984375
1.6137451171875
1.5299560546875
1.5791015625
1.72412109375
1.7410400390624998
2.27841796875
1.8788085937499999
1.53076171875
1.50498046875
1.477587890625
1.5033691406249998
1.5299560546875
1.5170654296875
1.5275390624999998
1.51787109375
1.5517089843749998
1.561376953125
1.56298828125
1.5404296874999999
1.50498046875
2.0939208984374997
1.397021484375
1.4300537109375
1.4832275390624998
1.4389160156249998
1.4115234374999999
1.0828125
1.2673095703125
1.4074951171874999
1.490478515625
1.509814453125
1.5541259765625
1.6314697265625
1.6733642578124999
1.5001464843749999
1.480810546875
1.4945068359375
1.561376953125
1.574267578125
1.5686279296874999
1.574267578125
0.8644775390624999
1.6725585937499998
1.6040771484374998
1.558154296875
1.6330810546874999
1.6475830078125
1.973876953125
1.8796142578125
1.55009765625
1.49853515625
1.51787109375
1.5001464843749999
1.5218994140625
1.5202880859374999
1.51787109375
1.4912841796874998
1.4880615234374999
1.5017578125
1.5162597656249999
1.52109375
1.5412353515625
2.5128662109374997
1.6209960937499999
1.509814453125
1.53720703125
1.506591796875
1.4203857421875
1.058642578125
1.219775390625
1.3124267578125
1.4630859374999998
1.4832275390624998
1.51787109375
1.482421875
1.622607421875
1.6379150390625
1.6048828124999999
1.5267333984375
1.5243164062499999
1.5283447265624999
1.5275390624999998
1.51787109375
0.49467773437499996
1.4679199218749999
1.56943359375
1.5380126953125
1.6137451171875
1.7023681640625
1.9303710937499998
2.2187988281249997
1.6645019531249998
1.4920898437499999
1.4767822265625
1.4832275390624998
1.525927734375
1.4945068359375
1.4961181640624999
1.4888671875
1.4953124999999998
1.5041748046874999
1.5525146484374999
1.5984375
1.574267578125
2.247802734375
1.67578125
1.5267333984375
1.5895751953125
1.533984375
1.4171630859375
1.2528076171875
1.1375976562499999
1.2890625
1.43408203125
1.4953124999999998
1.5090087890625
1.4598632812499999
1.5412353515625
1.5283447265624999
1.51787109375
1.5170654296875
1.5154541015624998
1.5267333984375
1.5509033203125
1.53720703125
0.8177490234375
1.4308593749999998
1.683837890625
1.5678222656249998
1.5927978515624999
1.7345947265625
1.799853515625
2.39443359375
1.6773925781249999
1.4912841796874998
1.474365234375
1.4751708984374998
1.5082031249999999
1.5057861328125
1.5243164062499999
1.5283447265624999
1.51787109375
1.5122314453124999
1.5017578125
1.5283447265624999
1.5412353515625
2.1293701171875
2.060888671875
1.4171630859375
1.4606689453125
1.482421875
1.3583496093749998
1.3253173828125
1.0868408203125
1.206884765625
1.3752685546874999
1.46953125
1.506591796875
1.496923828125
1.53720703125
1.6121337890624998
1.622607421875
1.6008544921874999
1.6177734375
1.6435546875
1.5815185546875
1.53720703125
0.90556640625
0.8749511718749999
1.651611328125
1.5621826171875
1.5380126953125
1.6620849609375
1.7208984374999998
2.3952392578125
1.8860595703124998
1.5863525390625
1.5194824218749998
1.4896728515625
1.4928955078125
1.48564453125
1.493701171875
1.4928955078125
1.52109375
1.5082031249999999
1.4800048828124999
1.480810546875
1.5090087890625
1.5380126953125
2.5982666015625
1.611328125
1.56943359375
1.6048828124999999
1.5017578125
1.4091064453125
0.9901611328125
1.1287353515625
1.2697265624999998
1.4671142578124998
1.5001464843749999
1.4961181640624999
1.48564453125
1.5492919921875
1.5476806640624998
1.5517089843749998
1.5734619140625
1.5565429687499999
1.5557373046874998
1.5492919921875
1.5323730468749999
0.4229736328125
1.53076171875
1.5597656249999998
1.529150390625
1.5597656249999998
1.6798095703125
2.093115234375
2.2365234375
1.6540283203125
1.5476806640624998
1.5380126953125
1.5315673828124998
1.5509033203125
1.5557373046874998
1.5436523437499998
1.5154541015624998
1.5082031249999999
1.5218994140625
1.53076171875
1.4953124999999998
1.4606689453125
2.454052734375
1.619384765625
1.4888671875
1.5766845703124999
1.4356933593749999
1.3688232421875
1.126318359375
1.123095703125
1.2753662109375
1.4429443359374998
1.4961181640624999
1.5146484375
1.4864501953125
1.5678222656249998
1.5194824218749998
1.5662109375
1.60166015625
1.5589599609375
1.5750732421875
1.5911865234375
1.58232421875
0.5486572265624999
1.4840332031249999
1.6250244140624999
1.4783935546875
1.5605712890624999
1.7120361328125
1.8747802734374999
2.5096435546875
1.6685302734374998
1.525927734375
1.5412353515625
1.5347900390625
1.6056884765625
1.5670166015625
1.5186767578125
1.4767822265625
1.4800048828124999
1.5243164062499999
1.496923828125
1.4872558593749998
1.5122314453124999
2.3742919921875
1.9271484374999999
1.3768798828125
1.525927734375
1.4928955078125
1.3527099609375
1.3148437499999999
1.10859375
1.2189697265625
1.4139404296875
1.4953124999999998
1.5331787109375
1.509814453125
1.509814453125
1.5509033203125
1.55009765625
1.5517089843749998
1.529150390625
1.5267333984375
1.542041015625
1.5275390624999998
0.6227783203124999
1.0731445312499999
1.687060546875
1.5275390624999998
1.5879638671874998
1.7297607421874999
1.7781005859374999
2.5330078124999997
1.82080078125
1.55009765625
1.5170654296875
1.5033691406249998
1.5170654296875
1.49853515625
1.5009521484375
1.4961181640624999
1.4598632812499999
1.47275390625
1.4993408203124998
1.5299560546875
1.5589599609375
1.6177734375
2.5813476562499997
1.5146484375
1.5484863281249999
1.5170654296875
1.4252197265625
1.3100097656249998
1.0143310546875
1.09892578125
1.2536132812499998
1.4598632812499999
1.5138427734375
1.5436523437499998
1.5146484375
1.5766845703124999
1.5621826171875
1.5662109375
1.538818359375
1.5154541015624998
1.533984375
1.525927734375
1.4389160156249998
0.42619628906249996
1.6822265625
1.5807128906249999
1.5645996093749999
1.662890625
1.8248291015625
2.4113525390625
2.086669921875
1.5605712890624999
1.5186767578125
1.5162597656249999
1.5887695312499999
1.5766845703124999
1.48564453125
1.464697265625
1.45341796875
1.4816162109375
1.5114257812499998
1.5041748046874999
1.482421875
1.5106201171875
2.67158203125
1.5718505859374998
1.5122314453124999
1.5605712890624999
1.45341796875
1.3470703124999999
0.9337646484375
1.1279296875
1.32451171875
1.477587890625
1.5041748046874999
1.4864501953125
1.4526123046875
1.571044921875
1.5782958984375
1.5347900390625
1.5235107421874998
1.545263671875
1.5476806640624998
1.5476806640624998
1.545263671875
0.3504638671875
1.585546875
1.6435546875
1.554931640625
1.6491943359374999
1.7200927734375
1.9634033203124999
2.2171875
1.6242187499999998
1.4880615234374999
1.46953125
1.464697265625
1.4961181640624999
1.480810546875
1.5106201171875
1.5299560546875
1.5251220703125
1.522705078125
1.5637939453124998
1.5484863281249999
1.5331787109375
2.771484375
1.925537109375
1.4703369140625
1.493701171875
1.4373046875
1.3067871093749999
0.9651855468749999
1.042529296875
1.16337890625
1.3873535156249999
1.4759765624999999
1.4735595703125
1.4469726562499998
1.5645996093749999
1.5218994140625
1.5315673828124998
1.5315673828124998
1.5283447265624999
1.5436523437499998
1.5162597656249999
1.5057861328125
0.2255859375
1.1577392578124999
1.6636962890625
1.5645996093749999
1.6282470703124998
1.786962890625
1.93681640625
2.618408203125
1.8216064453124998
1.53076171875
1.4961181640624999
1.4767822265625
1.4872558593749998
1.5106201171875
1.554931640625
1.545263671875
1.53076171875
1.506591796875
1.5436523437499998
1.5565429687499999
1.442138671875
1.869140625
2.489501953125
1.4348876953124998
1.5396240234374998
1.5218994140625
1.329345703125
1.2125244140625
0.9087890624999999
1.03447265625
1.3502929687499998
1.458251953125
1.4429443359374998
1.4518066406249999
1.554931640625
1.5662109375
1.5315673828124998
1.52109375
1.529150390625
1.5436523437499998
1.577490234375
1.558154296875
1.077978515625
0.40605468749999996
1.674169921875
1.5517089843749998
1.5396240234374998
1.7603759765625
1.8095214843749998
2.7481201171875
2.183349609375
1.5670166015625
1.5001464843749999
1.482421875
1.5186767578125
1.525927734375
1.490478515625
1.4679199218749999
1.4912841796874998
1.525927734375
1.5170654296875
1.525927734375
1.5170654296875
1.5509033203125
2.7747070312499997
1.5533203125
1.5275390624999998
1.53076171875
1.36962890625
1.2439453125
0.6751464843749999
0.968408203125
1.1738525390624999
1.3962158203125
1.4574462890625
1.5146484375
1.4783935546875
1.6008544921874999
1.5831298828125
1.619384765625
1.6250244140624999
1.5662109375
1.5944091796875
1.5476806640624998
1.5299560546875
0.1490478515625
1.5799072265624998
1.5460693359375
1.5251220703125
1.65
1.7740722656249999
2.36865234375
2.3638183593749997
1.6959228515625
1.561376953125
1.513037109375
1.482421875
1.590380859375
1.5597656249999998
1.4872558593749998
1.4526123046875
1.4816162109375
1.493701171875
1.4977294921875
1.5122314453124999
1.4912841796874998
3.029296875
1.85625
1.4953124999999998
1.522705078125
1.4783935546875
1.2826171874999999
0.6211669921874999
0.8612548828125
1.0417236328125
1.40185546875
1.4373046875
1.456640625
1.3631835937499999
1.5807128906249999
1.5621826171875
1.5799072265624998
1.55009765625
1.5331787109375
1.5412353515625
1.53720703125
1.5122314453124999
0.0217529296875
1.1295410156249999
1.6330810546874999
1.5396240234374998
1.6403320312499998
1.9376220703125
2.4194091796875
3.02607421875
1.980322265625
1.5380126953125
1.4574462890625
1.4622802734375
1.593603515625
1.51787109375
1.490478515625
1.4493896484375
1.4767822265625
1.5025634765625
1.4977294921875
1.5436523437499998
1.5146484375
2.7183105468749997
2.0439697265625
1.5033691406249998
1.5847412109374999
1.4791992187499998
1.164990234375
0.9087890624999999
0.6090820312499999
0.8507812499999999
1.2221923828124999
1.3962158203125
1.4751708984374998
1.4598632812499999
1.590380859375
1.6089111328124999
1.5984375
1.5879638671874998
1.546875
1.603271484375
1.5678222656249998
1.529150390625
0.111181640625
0.9869384765625
1.6806152343749998
1.5001464843749999
1.5509033203125
1.9392333984374999
2.0858642578124997
3.029296875
2.101171875
1.6685302734374998
1.5702392578125
1.5122314453124999
1.4896728515625
1.4550292968749998
1.4767822265625
1.4711425781249998
1.4945068359375
1.4864501953125
1.51787109375
1.4783935546875
1.480810546875
2.5813476562499997
2.9140869140624996
1.5678222656249998
1.53720703125
1.5404296874999999
1.239111328125
1.03447265625
0.3794677734375
0.6010253906249999
0.98291015625
1.3478759765625
1.4590576171874998
1.4638916015624999
1.522705078125
1.6411376953124999
1.6322753906249998
1.5984375
1.5927978515624999
1.60166015625
1.5887695312499999
1.5645996093749999
0.24169921875
0.037060546874999996
1.6765869140624998
1.5557373046874998
1.5533203125
1.7893798828124998
2.0044921875
3.029296875
2.5652343749999997
1.8441650390625
1.52109375
1.4429443359374998
1.4671142578124998
1.5831298828125
1.51787109375
1.4848388671875
1.4888671875
1.5033691406249998
1.574267578125
1.509814453125
1.5114257812499998
1.4751708984374998
3.0325195312499997
1.8054931640624998
1.509814453125
1.5758789062499998
1.3905761718749998
1.03447265625
0.075732421875
0.44956054687499997
0.7710205078125
1.29228515625
1.405078125
1.4840332031249999
1.5218994140625
1.6830322265625
1.6234130859375
1.6403320312499998
1.6040771484374998
1.593603515625
1.603271484375
1.619384765625
1.5782958984375
0.024169921875
1.3317626953125
1.5718505859374998
1.5492919921875
1.6636962890625
1.920703125
3.0325195312499997
3.02607421875
1.819189453125
1.5347900390625
1.458251953125
1.4767822265625
1.6177734375
1.5041748046874999
1.4993408203124998
1.4687255859375
1.4840332031249999
1.5194824218749998
1.522705078125
1.4920898437499999
1.4437499999999999
3.0325195312499997
1.8796142578125
1.4953124999999998
1.635498046875
1.474365234375
1.2431396484375
0.5599365234375
0.39799804687499996
0.7549072265625
1.2052734375
1.368017578125
1.5202880859374999
1.37607421875
1.65
1.6218017578125
1.6314697265625
1.6185791015625
1.5960205078124998
1.6250244140624999
1.6048828124999999
1.6298583984375
0.023364257812499997
1.2665039062499999
1.7853515624999998
1.5605712890624999
1.7104248046875
2.060888671875
2.333203125
3.027685546875
1.9972412109375
1.5879638671874998
1.458251953125
1.4920898437499999
1.554931640625
1.405078125
1.4719482421874999
1.5041748046874999
1.49853515625
1.4767822265625
1.509814453125
1.533984375
1.5267333984375
3.0301025390625
2.6079345703124996
1.4397216796874999
1.577490234375
1.4187744140624998
1.0836181640625
0.9651855468749999
0.4471435546875
0.6268066406249999
1.0626708984375
1.3148437499999999
1.4429443359374998
1.5082031249999999
1.5299560546875
1.6395263671875
1.6395263671875
1.6322753906249998
1.5960205078124998
1.5992431640625
1.6024658203125
1.60166015625
0.019335937499999997
0.3424072265625
1.7410400390624998
1.5484863281249999
1.6266357421875
1.9190917968749999
2.0326904296875
3.02607421875
2.3307861328125
1.674169921875
1.493701171875
1.4896728515625
1.5436523437499998
1.6306640625
1.5589599609375
1.4928955078125
1.4888671875
1.5243164062499999
1.493701171875
1.4800048828124999
1.5146484375
1.5315673828124998
3.0268798828124996
1.635498046875
1.4993408203124998
1.5476806640624998
1.3301513671874998
1.01513671875
0.2618408203125
0.639697265625
0.9385986328125
1.4147460937499998
1.4864501953125
1.4864501953125
1.5396240234374998
1.64677734375
1.6427490234375
1.6048828124999999
1.6089111328124999
1.56943359375
1.538818359375
1.5283447265624999
1.5396240234374998
0.017724609375
1.4945068359375
1.5597656249999998
1.5799072265624998
1.6935058593749999
1.9376220703125
3.0301025390625
2.8238525390625
1.687060546875
1.5090087890625
1.432470703125
1.474365234375
1.5428466796875
1.525927734375
1.5404296874999999
1.5033691406249998
1.509814453125
1.5597656249999998
1.5275390624999998
1.5267333984375
1.53076171875
3.0284912109374997
1.7055908203124999
1.529150390625
1.5847412109374999
1.426025390625
1.2270263671875
0.5857177734375
0.6872314453124999
0.9708251953125
1.3212890625
1.432470703125
1.522705078125
1.4115234374999999
1.6242187499999998
1.6000488281249998
1.5750732421875
1.6121337890624998
1.6000488281249998
1.5412353515625
1.53076171875
1.5299560546875
0.0217529296875
1.4268310546874998
1.6540283203125
1.4880615234374999
1.6806152343749998
1.8651123046875
2.1906005859374997
2.848828125
1.8618896484374998
1.558154296875
1.49853515625
1.461474609375
1.59521484375
1.506591796875
1.5476806640624998
1.4848388671875
1.458251953125
1.49853515625
1.5251220703125
1.5082031249999999
1.53076171875
3.0301025390625
2.270361328125
1.5678222656249998
1.61455078125
1.490478515625
1.2423339843749999
1.0239990234375
0.74443359375
0.90234375
1.2173583984375
1.4381103515625
1.5073974609374998
1.4872558593749998
1.5831298828125
1.5968261718749999
1.6048828124999999
1.561376953125
1.5645996093749999
1.6234130859375
1.5944091796875
1.5323730468749999
0.0217529296875
0.8274169921875
1.6733642578124999
1.4759765624999999
1.6209960937499999
1.8248291015625
2.00771484375
3.02607421875
2.0254394531249997
1.5879638671874998
1.4735595703125
1.5283447265624999
1.5484863281249999
1.4687255859375
1.5033691406249998
1.4880615234374999
1.5283447265624999
1.5235107421874998
1.5404296874999999
1.5968261718749999
1.456640625
1.78857421875
2.7996826171875
1.461474609375
1.4945068359375
1.490478515625
1.340625
1.1255126953124999
0.7146240234375
0.97646484375
1.3180664062499998
1.46953125
1.4816162109375
1.525927734375
1.593603515625
1.5484863281249999
1.5807128906249999
1.546875
1.5621826171875
1.5678222656249998
1.5251220703125
1.5146484375
1.2785888671874999
0.18369140625
1.658056640625
1.5533203125
1.5984375
1.770849609375
1.8498046874999998
2.7175048828125
2.3783203125
1.6081054687499998
1.493701171875
1.5186767578125
1.4832275390624998
1.493701171875
1.5758789062499998
1.5347900390625
1.496923828125
1.5299560546875
1.5251220703125
1.5114257812499998
1.5146484375
1.538818359375
2.8270751953124997
1.5863525390625
1.5001464843749999
1.529150390625
1.4244140625
1.3188720703124999
0.8113037109375
1.03125
1.198828125
1.4091064453125
1.5057861328125
1.4840332031249999
1.4276367187499999
1.5863525390625
1.6048828124999999
1.5919921874999998
1.571044921875
1.5275390624999998
1.525927734375
1.5331787109375
1.5146484375
0.23525390624999998
1.5331787109375
1.6161621093749998
1.5492919921875
1.6129394531249999
1.754736328125
2.2236328125
2.2018798828125
1.6773925781249999
1.4977294921875
1.4912841796874998
1.5484863281249999
1.5154541015624998
1.51787109375
1.5331787109375
1.5073974609374998
1.50498046875
1.5299560546875
1.5686279296874999
1.5799072265624998
1.6024658203125
2.8866943359375
1.8715576171875
1.4993408203124998
1.61455078125
1.5009521484375
1.3317626953125
0.9369873046874999
1.036083984375
1.1625732421875
1.3212890625
1.429248046875
1.4961181640624999
1.4558349609374999
1.5766845703124999
1.5283447265624999
1.56298828125
1.5218994140625
1.5670166015625
1.5428466796875
1.5686279296874999
1.5621826171875
0.165966796875
1.1778808593749999
1.6491943359374999
1.5347900390625
1.554931640625
1.8071044921875
1.94970703125
2.599072265625
1.85947265625
1.5299560546875
1.4590576171874998
1.4928955078125
1.5637939453124998
1.5186767578125
1.53076171875
1.5380126953125
1.5235107421874998
1.5299560546875
1.4687255859375
1.4993408203124998
1.5243164062499999
2.022216796875
1.944873046875
1.445361328125
1.5750732421875
1.4542236328125
1.3188720703124999
1.190771484375
0.9877441406249999
1.1400146484375
1.335791015625
1.490478515625
1.4888671875
1.4638916015624999
1.546875
1.5879638671874998
1.546875
1.5960205078124998
1.590380859375
1.5887695312499999
1.5355957031249998
1.5251220703125
1.01513671875
1.0731445312499999
1.638720703125
1.533984375
1.5782958984375
1.7450683593749998
1.7934082031249998
2.5394531249999996
1.9029785156249999
1.5460693359375
1.522705078125
1.5243164062499999
1.5364013671874999
1.525927734375
1.4840332031249999
1.4477783203124999
1.5565429687499999
1.4864501953125
1.5218994140625
1.5146484375
1.5090087890625
1.7635986328125
2.4298828125
1.5758789062499998
1.4920898437499999
1.554931640625
1.384130859375
1.340625
0.9998291015624999
1.1206787109375
1.3148437499999999
1.47275390625
1.493701171875
1.4655029296875
1.4711425781249998
1.545263671875
1.5831298828125
1.5525146484374999
1.5557373046874998
1.5364013671874999
1.53076171875
1.587158203125
1.2310546875
0.5228759765625
1.6105224609375
1.5122314453124999
1.5218994140625
1.6693359374999999
1.7329833984374998
2.4363281249999997
2.1060058593749997
1.6089111328124999
1.5154541015624998
1.5057861328125
1.496923828125
1.5235107421874998
1.5114257812499998
1.5275390624999998
1.5194824218749998
1.5146484375
1.51787109375
1.545263671875
1.5541259765625
1.5364013671874999
2.695751953125
1.4759765624999999
1.5122314453124999
1.5484863281249999
1.4751708984374998
1.3140380859374998
0.929736328125
1.126318359375
1.2906738281249999
1.4622802734375
1.496923828125
1.5533203125
1.5114257812499998
1.5766845703124999
1.5565429687499999
1.5758789062499998
1.5734619140625
1.56943359375
1.5162597656249999
1.5082031249999999
1.49853515625
0.294873046875
1.5162597656249999
1.5484863281249999
1.5251220703125
1.6443603515624998
1.7249267578124998
2.0109375
2.1624023437499997
1.6556396484375
1.5380126953125
1.5114257812499998
1.5162597656249999
1.5517089843749998
1.51787109375
1.5146484375
1.525927734375
1.493701171875
1.52109375
1.522705078125
1.5275390624999998
1.509814453125
2.657080078125
1.79501953125
1.4816162109375
1.56298828125
1.5033691406249998
1.380908203125
1.2101074218749999
1.10859375
1.2342773437499999
1.4091064453125
1.4751708984374998
1.4888671875
1.4703369140625
1.53720703125
1.5678222656249998
1.5637939453124998
1.5645996093749999
1.538818359375
1.5492919921875
1.561376953125
1.55009765625
0.3391845703125
1.2495849609374998
1.5976318359375
1.513037109375
1.606494140625
1.7507080078125
1.9513183593749999
2.4524414062499997
1.7740722656249999
1.5517089843749998
1.5154541015624998
1.506591796875
1.533984375
1.5162597656249999
1.5186767578125
1.506591796875
1.5428466796875
1.545263671875
1.5517089843749998
1.5073974609374998
1.4896728515625
2.0520263671875
2.2647216796875
1.4655029296875
1.5114257812499998
1.53076171875
1.3921875
1.2109130859375
1.026416015625
1.1537109374999999
1.340625
1.4735595703125
1.529150390625
1.542041015625
1.5347900390625
1.545263671875
1.533984375
1.56298828125
1.5347900390625
1.5323730468749999
1.5186767578125
1.5218994140625
1.0320556640625
0.7935791015625
1.6693359374999999
1.5702392578125
1.5799072265624998
1.7297607421874999
1.7861572265624999
2.4290771484375
1.96904296875
1.5476806640624998
1.522705078125
1.5194824218749998
1.5243164062499999
1.5235107421874998
1.513037109375
1.5170654296875
1.5347900390625
1.5194824218749998
1.5154541015624998
1.5146484375
1.5114257812499998
1.5146484375
2.27197265625
1.4993408203124998
1.5114257812499998
1.5355957031249998
1.4139404296875
1.3309570312499999
0.9643798828125
1.206884765625
1.3543212890624998
1.474365234375
1.4880615234374999
1.4711425781249998
1.474365234375
1.5791015625
1.5678222656249998
1.55009765625
1.5243164062499999
1.577490234375
1.590380859375
1.5589599609375
1.5106201171875
0.6493652343749999
1.60166015625
1.5589599609375
1.546875
1.6564453124999998
1.722509765625
2.102783203125
2.03671875
1.6532226562499999
1.5589599609375
1.5331787109375
1.50498046875
1.533984375
1.4993408203124998
1.5082031249999999
1.5017578125
1.5146484375
1.525927734375
1.522705078125
1.5154541015624998
1.5162597656249999
2.63291015625
1.6846435546874998
1.50498046875
1.5355957031249998
1.4800048828124999
1.3631835937499999
0.974853515625
1.1577392578124999
1.2745605468749999
1.456640625
1.493701171875
1.5162597656249999
1.4590576171874998
1.55009765625
1.606494140625
1.6056884765625
1.574267578125
1.5509033203125
1.542041015625
1.5331787109375
1.50498046875
0.3424072265625
1.3704345703124998
1.5428466796875
1.5218994140625
1.6056884765625
1.69189453125
2.0625
2.3227294921875
1.7217041015624999
1.5347900390625
1.5251220703125
1.5364013671874999
1.56298828125
1.5202880859374999
1.546875
1.5509033203125
1.50498046875
1.4840332031249999
1.5057861328125
1.50498046875
1.5235107421874998
2.2727783203125
1.7450683593749998
1.5146484375
1.5758789062499998
1.5106201171875
1.393798828125
1.1770751953125
1.1190673828125
1.2423339843749999
1.4187744140624998
1.474365234375
1.5122314453124999
1.464697265625
1.5541259765625
1.5492919921875
1.542041015625
1.5750732421875
1.5565429687499999
1.5355957031249998
1.542041015625
1.5525146484374999
0.7025390625
1.335791015625
1.6185791015625
1.5033691406249998
1.5944091796875
1.7184814453125
1.832080078125
2.4951416015624996
1.7176757812499999
1.55009765625
1.5194824218749998
1.509814453125
1.5364013671874999
1.5114257812499998
1.5267333984375
1.5186767578125
1.5251220703125
1.5267333984375
1.5355957031249998
1.5186767578125
1.522705078125
2.1229248046875
2.11728515625
1.480810546875
1.5476806640624998
1.5170654296875
1.3672119140624999
1.3019531249999998
1.135986328125
1.1722412109375
1.3414306640625
1.4606689453125
1.506591796875
1.5315673828124998
1.55009765625
1.5911865234375
1.5484863281249999
1.4977294921875
1.5235107421874998
1.53720703125
1.542041015625
1.5243164062499999
0.7742431640624999
0.90234375
1.6572509765624999
1.5428466796875
1.554931640625
1.7176757812499999
1.7732666015624998
2.56201171875
1.8336914062499998
1.5702392578125
1.522705078125
1.496923828125
1.5106201171875
1.4912841796874998
1.509814453125
1.5218994140625
1.509814453125
1.5162597656249999
1.5436523437499998
1.5331787109375
1.5114257812499998
1.4920898437499999
2.5628173828125
1.496923828125
1.506591796875
1.53720703125
1.4671142578124998
1.31162109375
0.9949951171875
1.1625732421875
1.3510986328124999
1.4526123046875
1.4703369140625
1.49853515625
1.5057861328125
1.5791015625
1.561376953125
1.571044921875
1.554931640625
1.5428466796875
1.5565429687499999
1.5589599609375
1.5082031249999999
0.42861328125
1.6129394531249999
1.5444580078124999
1.5122314453124999
1.5726562499999999
1.7184814453125
2.2969482421875
2.199462890625
1.619384765625
1.5114257812499998
1.482421875
1.5186767578125
1.546875
1.5194824218749998
1.5154541015624998
1.5202880859374999
1.522705078125
1.5170654296875
1.5073974609374998
1.5404296874999999
1.5122314453124999
2.5797363281249996
1.638720703125
1.513037109375
1.55009765625
1.490478515625
1.3986328124999998
1.0981201171875
1.1456542968749999
1.2568359375
1.3994384765624999
1.46630859375
1.5275390624999998
1.490478515625
1.554931640625
1.5597656249999998
1.55009765625
1.5364013671874999
1.542041015625
1.56943359375
1.58232421875
1.5484863281249999
0.3923583984375
1.4429443359374998
1.6612792968749999
1.5517089843749998
1.5573486328125
1.6798095703125
1.8240234375
2.2518310546875
1.7015624999999999
1.5396240234374998
1.5114257812499998
1.5057861328125
1.554931640625
1.5154541015624998
1.5315673828124998
1.538818359375
1.5444580078124999
1.5412353515625
1.5194824218749998
1.49853515625
1.5073974609374998
2.354150390625
1.9585693359374998
1.4679199218749999
1.525927734375
1.496923828125
1.3575439453125
1.155322265625
1.16015625
1.2157470703125
1.3575439453125
1.4550292968749998
1.5082031249999999
1.4945068359375
1.56943359375
1.5476806640624998
1.5509033203125
1.55009765625
1.55009765625
1.5533203125
1.5589599609375
1.5380126953125
0.6308349609374999
1.036083984375
1.638720703125
1.5025634765625
1.5807128906249999
1.7249267578124998
1.8344970703124999
2.4564697265624997
1.8232177734375
1.5436523437499998
1.522705078125
1.5251220703125
1.533984375
1.5082031249999999
1.5146484375
1.5154541015624998
1.509814453125
1.513037109375
1.5251220703125
1.5380126953125
1.525927734375
1.6056884765625
2.4500244140625
1.4783935546875
1.52109375
1.513037109375
1.3599609375
1.2947021484374999
1.0376953125
1.1480712890625
1.345458984375
1.458251953125
1.4977294921875
1.53076171875
1.5565429687499999
1.5645996093749999
1.546875
1.571044921875
1.554931640625
1.5517089843749998
1.5315673828124998
1.5565429687499999
1.4542236328125
0.9651855468749999
1.6371093749999999
1.5404296874999999
1.5557373046874998
1.6878662109375
1.7345947265625
2.34287109375
1.8498046874999998
1.58232421875
1.4993408203124998
1.5017578125
1.5154541015624998
1.5396240234374998
1.5186767578125
1.513037109375
1.5186767578125
1.5235107421874998
1.5275390624999998
1.525927734375
1.522705078125
1.5154541015624998
2.505615234375
1.58232421875
1.5243164062499999
1.5347900390625
1.4703369140625
1.3559326171875
1.01513671875
1.1577392578124999
1.3108154296874999
1.46630859375
1.4928955078125
1.4977294921875
1.4671142578124998
1.5533203125
1.546875
1.5541259765625
1.5654052734375
1.56298828125
1.5299560546875
1.546875
1.5243164062499999
0.5051513671875
1.5460693359375
1.5807128906249999
1.5331787109375
1.5968261718749999
1.6846435546874998
2.2671386718749997
2.126953125
1.64677734375
1.5106201171875
1.5251220703125
1.52109375
1.533984375
1.4928955078125
1.529150390625
1.5364013671874999
1.5138427734375
1.5404296874999999
1.5541259765625
1.5436523437499998
1.5114257812499998
2.489501953125
1.8618896484374998
1.5404296874999999
1.5533203125
1.4832275390624998
1.3881591796875
1.07958984375
1.1287353515625
1.2060791015624999
1.426025390625
1.46953125
1.5243164062499999
1.4783935546875
1.58232421875
1.5662109375
1.5565429687499999
1.546875
1.5412353515625
1.5404296874999999
1.5364013671874999
1.53076171875
0.49064941406249996
1.1512939453125
1.6089111328124999
1.5323730468749999
1.6346923828125
1.7104248046875
1.84013671875
2.3904052734375
1.6765869140624998
1.5380126953125
1.529150390625
1.5243164062499999
1.5436523437499998
1.5122314453124999
1.5235107421874998
1.5170654296875
1.5057861328125
1.525927734375
1.5243164062499999
1.52109375
1.522705078125
1.8095214843749998
1.9166748046875
1.4751708984374998
1.5299560546875
1.490478515625
1.3502929687499998
1.27294921875
1.042529296875
1.2350830078125
1.384130859375
1.458251953125
1.5073974609374998
1.5009521484375
1.5750732421875
1.5847412109374999
1.5557373046874998
1.5597656249999998
1.5396240234374998
1.5202880859374999
1.5476806640624998
1.5396240234374998
0.631640625
1.0973144531249999
1.6218017578125
1.5412353515625
1.5879638671874998
1.7088134765624998
1.7362060546875
2.418603515625
1.8264404296874999
1.5702392578125
1.5194824218749998
1.525927734375
1.5396240234374998
1.5364013671874999
1.5186767578125
1.5041748046874999
1.5146484375
1.51787109375
1.5114257812499998
1.4961181640624999
1.5154541015624998
1.6878662109375
2.3936279296875
1.5347900390625
1.5154541015624998
1.5218994140625
1.4759765624999999
1.36962890625
1.0763671875
1.173046875
1.3398193359375
1.445361328125
1.4679199218749999
1.4759765624999999
1.5243164062499999
1.55009765625
1.5235107421874998
1.5428466796875
1.5355957031249998
1.5243164062499999
1.5517089843749998
1.5605712890624999
1.3865478515624998
0.5824951171875
1.5621826171875
1.56298828125
1.56943359375
1.6532226562499999
1.754736328125
2.2937255859375
2.0713623046875
1.5686279296874999
1.5275390624999998
1.5146484375
1.5186767578125
1.5428466796875
1.5170654296875
1.5154541015624998
1.5218994140625
1.5243164062499999
1.5355957031249998
1.5146484375
1.4977294921875
1.4945068359375
2.5716796874999996
1.5509033203125
1.51787109375
1.5444580078124999
1.4655029296875
1.3631835937499999
1.044140625
1.16015625
1.319677734375
1.4679199218749999
1.4912841796874998
1.5082031249999999
1.509814453125
1.5984375
1.554931640625
1.5283447265624999
1.5275390624999998
1.5275390624999998
1.5637939453124998
1.5364013671874999
1.5323730468749999
0.5204589843749999
1.5194824218749998
1.58232421875
1.5347900390625
1.5984375
1.6693359374999999
1.8989501953124999
2.167236328125
1.6878662109375
1.5565429687499999
1.48564453125
1.5275390624999998
1.5807128906249999
1.5194824218749998
1.5001464843749999
1.5082031249999999
1.5283447265624999
1.5380126953125
1.522705078125
1.529150390625
1.5082031249999999
2.521728515625
1.835302734375
1.4679199218749999
1.533984375
1.48564453125
1.3857421875
1.07958984375
1.147265625
1.2560302734375
1.3954101562499999
1.4735595703125
1.5082031249999999
1.461474609375
1.5589599609375
1.5621826171875
1.5509033203125
1.5460693359375
1.5589599609375
1.5597656249999998
1.56943359375
1.5355957031249998
0.4874267578125
1.2254150390625
1.606494140625
1.5355957031249998
1.5670166015625
1.7152587890625
1.89169921875
2.4065185546875
1.7990478515625
1.5355957031249998
1.5162597656249999
1.5082031249999999
1.5275390624999998
1.5114257812499998
1.5170654296875
1.5162597656249999
1.5057861328125
1.5275390624999998
1.5251220703125
1.5315673828124998
1.5162597656249999
1.869140625
2.2453857421875
1.4461669921875
1.5428466796875
1.5243164062499999
1.3865478515624998
1.2753662109375
1.06669921875
1.1964111328125
1.3978271484375
1.47275390625
1.4872558593749998
1.4679199218749999
1.533984375
1.5565429687499999
1.5476806640624998
1.5589599609375
1.56943359375
1.545263671875
1.55009765625
1.5364013671874999
1.152099609375
0.7621582031249999
1.6620849609375
1.5380126953125
1.538818359375
1.6967285156249998
1.7507080078125
2.3887939453125
1.8151611328125
1.5887695312499999
1.5331787109375
1.5073974609374998
1.5090087890625
1.5283447265624999
1.525927734375
1.5146484375
1.5170654296875
1.5218994140625
1.5202880859374999
1.5194824218749998
1.5283447265624999
1.5251220703125
2.325146484375
1.513037109375
1.49853515625
1.5476806640624998
1.416357421875
1.3575439453125
1.0481689453125
1.1899658203124999
1.332568359375
1.461474609375
1.4848388671875
1.5017578125
1.4977294921875
1.5726562499999999
1.5428466796875
1.5444580078124999
1.5484863281249999
1.5541259765625
1.5654052734375
1.53076171875
1.329345703125
0.6550048828124999
1.6081054687499998
1.5863525390625
1.53720703125
1.63388671875
1.69189453125
2.2953369140624997
2.0334960937499997
1.625830078125
1.529150390625
1.5082031249999999
1.5202880859374999
1.5597656249999998
1.506591796875
1.5267333984375
1.5162597656249999
1.5001464843749999
1.522705078125
1.546875
1.5541259765625
1.5517089843749998
2.6039062499999996
1.6846435546874998
1.5073974609374998
1.5243164062499999
1.4703369140625
1.3712402343749999
0.9974121093749999
1.1617675781249999
1.26005859375
1.464697265625
1.4816162109375
1.4832275390624998
1.5106201171875
1.5919921874999998
1.5509033203125
1.4928955078125
1.5122314453124999
1.593603515625
1.6129394531249999
1.5597656249999998
1.5146484375
0.4318359375
1.3849365234375
1.593603515625
1.5114257812499998
1.5807128906249999
1.6886718749999998
2.00771484375
2.270361328125
1.6153564453125
1.533984375
1.53076171875
1.5597656249999998
1.59521484375
1.5251220703125
1.4928955078125
1.50498046875
1.50498046875
1.5218994140625
1.513037109375
1.5202880859374999
1.5114257812499998
2.10439453125
1.7450683593749998
1.4671142578124998
1.5637939453124998
1.5009521484375
1.3784912109374998
1.2238037109375
1.1335693359374999
1.2431396484375
1.4091064453125
1.4872558593749998
1.4920898437499999
1.4896728515625
1.5726562499999999
1.571044921875
1.5686279296874999
1.5565429687499999
1.5525146484374999
1.5364013671874999
1.5404296874999999
1.5565429687499999
0.451171875
1.2955078125
1.6451660156249999
1.5283447265624999
1.5807128906249999
1.714453125
1.77890625
2.383154296875
1.7595703125
1.542041015625
1.49853515625
1.5025634765625
1.55009765625
1.5355957031249998
1.5106201171875
1.506591796875
1.5275390624999998
1.5460693359375
1.5476806640624998
1.5154541015624998
1.5122314453124999
1.94970703125
2.1857666015625
1.480810546875
1.5428466796875
1.5162597656249999
1.4026611328124998
1.2737548828124998
1.08603515625
1.1778808593749999
1.3502929687499998
1.4687255859375
1.4880615234374999
1.49853515625
1.5726562499999999
1.5734619140625
1.558154296875
1.5517089843749998
1.5541259765625
1.5573486328125
1.5476806640624998
1.53076171875
1.0997314453125
0.8104980468749999
1.635498046875
1.577490234375
1.5782958984375
1.6483886718749998
1.74345703125
2.34931640625
1.948095703125
1.5460693359375
1.5186767578125
