1.5073974609374998
1.4912841796874998
1.393798828125
1.340625
1.14404296875
1.2511962890625
1.4107177734374998
1.4896728515625
1.5154541015624998
1.5090087890625
1.5122314453124999
1.5654052734375
1.5645996093749999
1.5484863281249999
1.5509033203125
1.5484863281249999
1.5517089843749998
1.533984375
0.91201171875
1.0489746093749999
1.6371093749999999
1.5565429687499999
1.5573486328125
1.658056640625
1.6854492187499999
2.325146484375
1.764404296875
1.571044921875
1.5517089843749998
1.5114257812499998
1.5243164062499999
1.545263671875
1.5202880859374999
1.5218994140625
1.51787109375
1.529150390625
1.522705078125
1.533984375
1.522705078125
1.5509033203125
2.3436767578124997
1.5686279296874999
1.5073974609374998
1.5670166015625
1.474365234375
1.3422363281249998
1.110205078125
1.224609375
1.353515625
1.5033691406249998
1.4888671875
1.5041748046874999
1.5162597656249999
1.5637939453124998
1.5565429687499999
1.5565429687499999
1.5533203125
1.546875
1.545263671875
1.5331787109375
1.4953124999999998
0.6638671875
1.5637939453124998
1.5509033203125
1.5146484375
1.5984375
1.6967285156249998
2.3388427734375
1.899755859375
1.6072998046875
1.529150390625
1.525927734375
1.525927734375
1.5412353515625
1.5275390624999998
1.5194824218749998
1.5082031249999999
1.5243164062499999
1.5194824218749998
1.5218994140625
1.5251220703125
1.52109375
2.36220703125
1.56943359375
1.5090087890625
1.5573486328125
1.4671142578124998
1.3986328124999998
1.0892578124999999
1.2447509765625
1.3494873046875
1.4493896484375
1.4896728515625
1.5138427734375
1.4816162109375
1.5597656249999998
1.5347900390625
1.561376953125
1.538818359375
1.5565429687499999
1.5404296874999999
1.5533203125
1.5678222656249998
0.59619140625
1.5492919921875
1.625830078125
1.5235107421874998
1.590380859375
1.6822265625
2.093115234375
2.1277587890625
1.5863525390625
1.5243164062499999
1.5235107421874998
1.52109375
1.545263671875
1.5194824218749998
1.5355957031249998
1.533984375
1.5243164062499999
1.5331787109375
1.5218994140625
1.5315673828124998
1.5186767578125
2.30419921875
1.8167724609375
1.461474609375
1.5355957031249998
1.50498046875
1.3873535156249999
1.31162109375
1.2503906249999999
1.2890625
1.4252197265625
1.490478515625
1.5009521484375
1.474365234375
1.5267333984375
1.5637939453124998
1.55009765625
1.5460693359375
1.5509033203125
1.55009765625
1.5484863281249999
1.538818359375
0.704150390625
1.2286376953125
1.64677734375
1.5347900390625
1.5799072265624998
1.69833984375
1.7023681640625
2.2679443359375
1.7088134765624998
1.5299560546875
1.5090087890625
1.5146484375
1.5162597656249999
1.513037109375
1.525927734375
1.5162597656249999
1.5017578125
1.5476806640624998
1.5484863281249999
1.5267333984375
1.509814453125
1.6822265625
2.20751953125
1.4719482421874999
1.546875
1.590380859375
1.4300537109375
1.3237060546875
1.1617675781249999
1.2318603515625
1.41796875
1.477587890625
1.4928955078125
1.5082031249999999
1.5364013671874999
1.5589599609375
1.5533203125
1.5460693359375
1.538818359375
1.5436523437499998
1.542041015625
1.53720703125
1.3341796874999998
0.7984130859374999
1.6395263671875
1.5436523437499998
1.5202880859374999
1.6266357421875
1.706396484375
2.273583984375
1.9166748046875
1.5509033203125
1.5170654296875
1.5162597656249999
1.5090087890625
1.5315673828124998
1.509814453125
1.5235107421874998
1.5331787109375
1.5299560546875
1.5492919921875
1.5541259765625
1.5331787109375
1.5138427734375
2.2614990234375
1.5154541015624998
1.5017578125
1.5380126953125
1.4461669921875
1.3736572265625
1.0973144531249999
1.2254150390625
1.3510986328124999
1.4679199218749999
1.5017578125
1.5146484375
1.50498046875
1.571044921875
1.5621826171875
1.5573486328125
1.558154296875
1.5460693359375
1.542041015625
1.5404296874999999
1.52109375
0.7669921875
1.587158203125
1.58232421875
1.5380126953125
1.625830078125
1.66611328125
2.04638671875
1.89169921875
1.5887695312499999
1.5251220703125
1.5138427734375
1.5218994140625
1.5621826171875
1.5162597656249999
1.525927734375
1.5202880859374999
1.522705078125
1.5243164062499999
1.52109375
1.5243164062499999
1.5170654296875
2.39765625
1.703173828125
1.482421875
1.5533203125
1.5033691406249998
1.3946044921874998
1.087646484375
1.232666015625
1.313232421875
1.4477783203124999
1.4977294921875
1.506591796875
1.482421875
1.577490234375
1.5484863281249999
1.5347900390625
1.554931640625
1.545263671875
1.542041015625
1.533984375
1.5396240234374998
0.5953857421875
1.3857421875
1.6395263671875
1.5186767578125
1.5976318359375
1.7184814453125
1.9658203125
2.176904296875
1.66611328125
1.522705078125
1.5235107421874998
1.5194824218749998
1.5267333984375
1.5243164062499999
1.52109375
1.525927734375
1.5218994140625
1.5194824218749998
1.525927734375
1.525927734375
1.5186767578125
1.92392578125
2.064111328125
1.4606689453125
1.53076171875
1.53076171875
1.3913818359374999
1.27939453125
1.2141357421874999
1.2439453125
1.4397216796874999
1.5162597656249999
1.5073974609374998
1.493701171875
1.5517089843749998
1.5605712890624999
1.5525146484374999
1.5476806640624998
1.5355957031249998
1.5476806640624998
1.5476806640624998
1.5396240234374998
1.055419921875
0.9611572265624999
1.6363037109374998
1.5428466796875
1.5517089843749998
1.6927001953124998
1.722509765625
2.2937255859375
1.7007568359374998
1.542041015625
1.5186767578125
1.5194824218749998
1.5323730468749999
1.5299560546875
1.5347900390625
1.5170654296875
1.5275390624999998
1.51787109375
1.525927734375
1.5170654296875
1.5170654296875
1.5251220703125
2.1261474609374997
1.4977294921875
1.5017578125
1.5315673828124998
1.4171630859375
1.351904296875
1.084423828125
1.2576416015624998
1.4034667968749999
1.5009521484375
1.4993408203124998
1.50498046875
1.5082031249999999
1.5726562499999999
1.5436523437499998
1.5541259765625
1.542041015625
1.5412353515625
1.545263671875
1.5323730468749999
1.147265625
0.8830078124999999
1.6298583984375
1.5686279296874999
1.5517089843749998
1.65966796875
1.69189453125
2.3098388671875
1.8812255859375
1.5887695312499999
1.5404296874999999
1.5009521484375
1.5033691406249998
1.5347900390625
1.5146484375
1.5299560546875
1.5090087890625
1.533984375
1.529150390625
1.5235107421874998
1.5267333984375
1.5162597656249999
2.4113525390625
1.6161621093749998
1.4977294921875
1.5637939453124998
1.480810546875
1.3728515625
1.0932861328124999
1.22783203125
1.32451171875
1.47275390625
1.49853515625
1.5017578125
1.5073974609374998
1.5686279296874999
1.5533203125
1.546875
1.5605712890624999
1.5476806640624998
1.5589599609375
1.5621826171875
1.5484863281249999
0.59619140625
1.477587890625
1.5791015625
1.5315673828124998
1.587158203125
1.674169921875
2.0375244140624997
2.11083984375
1.662890625
1.5194824218749998
1.5170654296875
1.52109375
1.55009765625
1.5106201171875
1.5202880859374999
1.5235107421874998
1.5251220703125
1.533984375
1.53076171875
1.5251220703125
1.5146484375
2.1865722656249997
1.6330810546874999
1.48564453125
1.561376953125
1.4993408203124998
1.4091064453125
1.219775390625
1.2173583984375
1.316455078125
1.4461669921875
1.4920898437499999
1.5218994140625
1.4832275390624998
1.5597656249999998
1.5509033203125
1.554931640625
1.55009765625
1.5565429687499999
1.5484863281249999
1.5460693359375
1.5251220703125
0.8096923828125
1.4445556640625
1.6314697265625
1.529150390625
1.574267578125
1.6975341796874999
1.7668212890625
2.2856689453125
1.662890625
1.53076171875
1.5218994140625
1.53076171875
1.542041015625
1.509814453125
1.5073974609374998
1.52109375
1.5154541015624998
1.5243164062499999
1.5275390624999998
1.51787109375
1.51787109375
2.086669921875
1.980322265625
1.4880615234374999
1.5573486328125
1.5162597656249999
1.3897705078125
1.3333740234375
1.2076904296875
1.2616699218749998
1.3994384765624999
1.4977294921875
1.5138427734375
1.5041748046874999
1.5404296874999999
1.5670166015625
1.5557373046874998
1.5396240234374998
1.5428466796875
1.5364013671874999
1.5492919921875
1.5428466796875
0.920068359375
1.06025390625
1.6459716796875
1.5315673828124998
1.5323730468749999
1.6645019531249998
1.703173828125
2.2993652343749997
1.8014648437499998
1.5565429687499999
1.5186767578125
1.5186767578125
1.5323730468749999
1.5460693359375
1.5396240234374998
1.5251220703125
1.5218994140625
1.513037109375
1.522705078125
1.5202880859374999
1.51787109375
1.5412353515625
2.3340087890625
1.47275390625
1.5025634765625
1.5517089843749998
1.4703369140625
1.3559326171875
1.0900634765625
1.229443359375
1.4139404296875
1.4953124999999998
1.496923828125
1.509814453125
1.5106201171875
1.5621826171875
1.5573486328125
1.5533203125
1.5541259765625
1.5492919921875
1.5412353515625
1.538818359375
1.513037109375
0.6751464843749999
1.6290527343749999
1.5565429687499999
1.5283447265624999
1.5807128906249999
1.6886718749999998
2.1551513671875
2.018994140625
1.5573486328125
1.5194824218749998
1.51787109375
1.5194824218749998
1.538818359375
1.5186767578125
1.522705078125
1.5194824218749998
1.5170654296875
1.529150390625
1.5251220703125
1.5186767578125
1.5122314453124999
2.3718749999999997
1.5791015625
1.5009521484375
1.5396240234374998
1.477587890625
1.4115234374999999
1.1384033203125
1.2334716796875
1.3365966796875
1.4655029296875
1.5033691406249998
1.5033691406249998
1.4896728515625
1.577490234375
1.5541259765625
1.5444580078124999
1.5444580078124999
1.542041015625
1.546875
1.55009765625
1.538818359375
0.6324462890625
1.5106201171875
1.611328125
1.538818359375
1.6129394531249999
1.6927001953124998
1.796630859375
2.05927734375
1.606494140625
1.5202880859374999
1.5186767578125
1.5202880859374999
1.5396240234374998
1.5154541015624998
1.5323730468749999
1.5444580078124999
1.542041015625
1.5347900390625
1.5283447265624999
1.5073974609374998
1.5154541015624998
2.2695556640625
1.8256347656249998
1.456640625
1.5484863281249999
1.49853515625
1.3857421875
1.1706298828125
1.2125244140625
1.2826171874999999
1.42119140625
1.480810546875
1.5186767578125
1.5114257812499998
1.571044921875
1.5766845703124999
1.5839355468749998
1.5654052734375
1.546875
1.53720703125
1.5243164062499999
1.525927734375
0.71865234375
1.21494140625
1.635498046875
1.5251220703125
1.5645996093749999
1.703173828125
1.8046875
2.296142578125
1.7442626953125
1.522705078125
1.5138427734375
1.52109375
1.5243164062499999
1.5162597656249999
1.5202880859374999
1.51787109375
1.5090087890625
1.53076171875
1.5170654296875
1.5251220703125
1.525927734375
1.6927001953124998
2.205908203125
1.4630859374999998
1.513037109375
1.5484863281249999
1.3946044921874998
1.327734375
1.1271240234375
1.2576416015624998
1.4244140625
1.4848388671875
1.4977294921875
1.493701171875
1.5517089843749998
1.5782958984375
1.5589599609375
1.554931640625
1.5557373046874998
1.5492919921875
1.542041015625
1.533984375
1.361572265625
1.1408203125
1.6427490234375
1.55009765625
1.5283447265624999
1.6636962890625
1.7128417968749998
2.2357177734375
1.7732666015624998
1.5557373046874998
1.5275390624999998
1.5283447265624999
1.5251220703125
1.5315673828124998
1.52109375
1.5202880859374999
1.5154541015624998
1.5275390624999998
1.5170654296875
1.5162597656249999
1.5275390624999998
1.5202880859374999
2.260693359375
1.5299560546875
1.4928955078125
1.5355957031249998
1.4493896484375
1.40830078125
1.2238037109375
1.21171875
1.3527099609375
1.464697265625
1.4912841796874998
1.5017578125
1.5057861328125
1.5807128906249999
1.5557373046874998
1.5509033203125
1.561376953125
1.5565429687499999
1.5573486328125
1.5436523437499998
1.4026611328124998
0.7371826171875
1.5734619140625
1.590380859375
1.53720703125
1.6250244140624999
1.6765869140624998
2.27841796875
1.8900878906249998
1.5766845703124999
1.5170654296875
1.5194824218749998
1.5170654296875
1.5460693359375
1.5186767578125
1.52109375
1.525927734375
1.5186767578125
1.525927734375
1.5186767578125
1.5267333984375
1.5218994140625
2.3952392578125
1.7072021484375
1.5090087890625
1.5380126953125
1.509814453125
1.3994384765624999
1.094091796875
1.239111328125
1.2858398437499998
1.4679199218749999
1.493701171875
1.5138427734375
1.4872558593749998
1.5839355468749998
1.5621826171875
1.5492919921875
1.55009765625
1.5509033203125
1.55009765625
1.5404296874999999
1.533984375
0.6187499999999999
1.3664062499999998
1.6024658203125
1.5476806640624998
1.5879638671874998
1.6636962890625
1.899755859375
2.1946289062499997
1.6773925781249999
1.5235107421874998
1.5162597656249999
1.509814453125
1.5436523437499998
1.5235107421874998
1.51787109375
1.5090087890625
1.5114257812499998
1.51787109375
1.5267333984375
1.538818359375
1.5355957031249998
1.9271484374999999
1.7418457031249999
1.4542236328125
1.55009765625
1.5573486328125
1.4276367187499999
1.2947021484374999
1.1641845703125
1.2777832031249998
1.4397216796874999
1.4832275390624998
1.5057861328125
1.4872558593749998
1.5541259765625
1.577490234375
1.5557373046874998
1.5509033203125
1.5323730468749999
1.5396240234374998
1.5436523437499998
1.5444580078124999
1.0916748046875
1.2930908203125
1.6306640625
1.5275390624999998
1.5726562499999999
1.6975341796874999
1.740234375
2.2751953124999997
1.7152587890625
1.5412353515625
1.5154541015624998
1.5202880859374999
1.5218994140625
1.5380126953125
1.5243164062499999
1.522705078125
1.5186767578125
1.5235107421874998
1.5154541015624998
1.5251220703125
1.529150390625
1.8248291015625
2.1245361328125
1.4791992187499998
1.5275390624999998
1.522705078125
1.426025390625
1.3728515625
1.1996337890625
1.2366943359375
1.4034667968749999
1.4864501953125
1.506591796875
1.51787109375
1.5218994140625
1.5517089843749998
1.5484863281249999
1.5436523437499998
1.5412353515625
1.5396240234374998
1.5412353515625
1.5436523437499998
1.1867431640625
0.889453125
1.6169677734374999
1.5525146484374999
1.538818359375
1.6403320312499998
1.6846435546874998
2.27197265625
1.877197265625
1.5766845703124999
1.5202880859374999
1.5186767578125
1.529150390625
1.5283447265624999
1.5267333984375
1.5235107421874998
1.5073974609374998
1.5138427734375
1.5364013671874999
1.5331787109375
1.5275390624999998
1.5202880859374999
2.40087890625
1.5090087890625
1.5057861328125
1.5428466796875
1.4735595703125
1.3510986328124999
1.074755859375
1.21171875
1.3591552734374999
1.4896728515625
1.48564453125
1.52109375
1.493701171875
1.5637939453124998
1.577490234375
1.6089111328124999
1.635498046875
1.5976318359375
1.6024658203125
1.4993408203124998
1.5283447265624999
0.620361328125
1.6056884765625
1.5637939453124998
1.52109375
1.5589599609375
1.6314697265625
2.0004638671875
2.1076171875
1.6040771484374998
1.5347900390625
1.5162597656249999
1.5017578125
1.5331787109375
1.5090087890625
1.5492919921875
1.571044921875
1.5605712890624999
1.5734619140625
1.5283447265624999
1.506591796875
1.5073974609374998
2.4121582031249997
1.6209960937499999
1.4437499999999999
1.5243164062499999
1.490478515625
1.413134765625
1.2157470703125
1.2221923828124999
1.3092041015625
1.4389160156249998
1.4953124999999998
1.5218994140625
1.4800048828124999
1.5621826171875
1.5476806640624998
1.545263671875
1.5396240234374998
1.5533203125
1.5597656249999998
1.554931640625
1.5662109375
0.6090820312499999
1.4091064453125
1.6089111328124999
1.5138427734375
1.5879638671874998
1.7176757812499999
1.7772949218749998
2.1696533203125
1.674169921875
1.6242187499999998
1.5662109375
1.4953124999999998
1.47275390625
1.4461669921875
1.493701171875
1.5154541015624998
1.5194824218749998
1.5323730468749999
1.5275390624999998
1.5347900390625
1.5347900390625
2.0939208984374997
1.9706542968749998
1.477587890625
1.53720703125
1.5082031249999999
1.3954101562499999
1.2366943359375
1.20849609375
1.2705322265624999
1.4236083984374999
1.50498046875
1.5138427734375
1.4993408203124998
1.5533203125
1.546875
1.5589599609375
1.5726562499999999
1.55009765625
1.51787109375
1.513037109375
1.5323730468749999
0.8741455078125
1.0465576171875
1.635498046875
1.53720703125
1.545263671875
1.683837890625
1.75634765625
2.312255859375
1.7829345703125
1.53076171875
1.5106201171875
1.506591796875
1.5025634765625
1.5033691406249998
1.5122314453124999
1.5396240234374998
1.5170654296875
1.5275390624999998
1.5162597656249999
1.5202880859374999
1.5267333984375
1.5605712890624999
2.4234375
1.5170654296875
1.5009521484375
1.5170654296875
1.3849365234375
1.34384765625
1.0763671875
1.2157470703125
1.40830078125
1.4711425781249998
1.48564453125
1.4759765624999999
1.4912841796874998
1.5637939453124998
1.5541259765625
1.546875
1.529150390625
1.53720703125
1.5605712890624999
1.56298828125
1.5218994140625
0.9716308593749999
1.6540283203125
1.6081054687499998
1.5766845703124999
1.65966796875
1.6951171875
2.151123046875
1.8111328125
1.538818359375
1.5138427734375
1.5194824218749998
1.5114257812499998
1.5162597656249999
1.5001464843749999
1.5315673828124998
1.5275390624999998
1.5412353515625
1.525927734375
1.5138427734375
1.5017578125
1.490478515625
2.4169921875
1.6137451171875
1.538818359375
1.5589599609375
1.4791992187499998
1.4074951171874999
1.0787841796875
1.203662109375
1.3148437499999999
1.4477783203124999
1.4864501953125
1.4993408203124998
1.4800048828124999
1.577490234375
1.5428466796875
1.53720703125
1.5476806640624998
1.5444580078124999
1.5355957031249998
1.533984375
1.5202880859374999
0.5736328125
1.4953124999999998
1.6072998046875
1.5146484375
1.5815185546875
1.6733642578124999
2.1100341796874997
2.0898925781249997
1.6459716796875
1.525927734375
1.5114257812499998
1.525927734375
1.5573486328125
1.5509033203125
1.56298828125
1.529150390625
1.5162597656249999
1.5243164062499999
1.53076171875
1.5275390624999998
1.52109375
2.333203125
1.8618896484374998
1.490478515625
1.546875
1.5235107421874998
1.4252197265625
1.1239013671875
1.2189697265625
1.2415283203124998
1.4671142578124998
1.5073974609374998
1.4961181640624999
1.4671142578124998
1.5484863281249999
1.545263671875
1.5428466796875
1.5484863281249999
1.5597656249999998
1.5791015625
1.6048828124999999
1.577490234375
0.6662841796875
1.1456542968749999
1.5726562499999999
1.5073974609374998
1.56943359375
1.6806152343749998
1.796630859375
2.3138671875
1.7345947265625
1.5114257812499998
1.4993408203124998
1.5041748046874999
1.538818359375
1.50498046875
1.52109375
1.53720703125
1.5347900390625
1.5525146484374999
1.56943359375
1.5299560546875
1.5001464843749999
1.6612792968749999
1.9432617187499999
1.4832275390624998
1.5396240234374998
1.5323730468749999
1.3913818359374999
1.3124267578125
1.1093994140624999
1.2028564453125
1.3784912109374998
1.46953125
1.4961181640624999
1.4888671875
1.5331787109375
1.5597656249999998
1.554931640625
1.53720703125
1.53720703125
1.525927734375
1.5194824218749998
1.538818359375
1.2890625
1.0965087890625
1.6395263671875
1.5525146484374999
1.577490234375
1.6991455078125
1.7797119140625
2.415380859375
1.803076171875
1.542041015625
1.4993408203124998
1.5114257812499998
1.5202880859374999
1.5662109375
1.5863525390625
1.5645996093749999
1.546875
1.5243164062499999
1.5202880859374999
1.51787109375
1.50498046875
1.5799072265624998
2.3267578125
1.5275390624999998
1.529150390625
1.5476806640624998
1.4228027343749998
1.3551269531249999
1.084423828125
1.1939941406249999
1.3180664062499998
1.4630859374999998
1.4711425781249998
1.5106201171875
1.47275390625
1.5654052734375
1.5517089843749998
1.5541259765625
1.5597656249999998
1.554931640625
1.577490234375
1.5597656249999998
1.3897705078125
0.6018310546875
1.5605712890624999
1.5460693359375
1.554931640625
1.635498046875
1.7120361328125
2.309033203125
2.0093261718749997
1.6153564453125
1.529150390625
1.5114257812499998
1.5283447265624999
1.5484863281249999
1.5436523437499998
1.5347900390625
1.5154541015624998
1.50498046875
1.5243164062499999
1.5138427734375
1.4912841796874998
1.4864501953125
2.49755859375
1.546875
1.493701171875
1.5605712890624999
1.4945068359375
1.3905761718749998
1.0707275390625
1.1794921875
1.2987304687499999
1.44052734375
1.496923828125
1.53076171875
1.506591796875
1.5992431640625
1.5605712890624999
1.5927978515624999
1.5791015625
1.5444580078124999
1.5162597656249999
1.5017578125
1.5082031249999999
0.472119140625
1.5509033203125
1.6177734375
1.5509033203125
1.585546875
1.687060546875
1.931982421875
2.3388427734375
1.6250244140624999
1.5275390624999998
1.525927734375
1.5476806640624998
1.53720703125
1.50498046875
1.5001464843749999
1.5114257812499998
1.5355957031249998
1.5782958984375
1.5645996093749999
1.51787109375
1.4993408203124998
2.5072265624999996
1.7684326171875
1.4187744140624998
1.4993408203124998
1.4864501953125
1.3583496093749998
1.2616699218749998
1.190771484375
1.2455566406249998
1.3905761718749998
1.46953125
1.5001464843749999
1.4711425781249998
1.5517089843749998
1.585546875
1.5702392578125
1.53720703125
1.5001464843749999
1.5114257812499998
1.538818359375
1.5557373046874998
0.43505859375
1.1899658203124999
1.64677734375
1.5565429687499999
1.6024658203125
1.7257324218749999
1.7974365234374998
2.434716796875
1.7732666015624998
1.5476806640624998
1.5154541015624998
1.5106201171875
1.533984375
1.5573486328125
1.5380126953125
1.4888671875
1.4977294921875
1.574267578125
1.5678222656249998
1.5073974609374998
1.458251953125
1.8683349609375
2.3138671875
1.542041015625
1.5573486328125
1.5509033203125
1.4195800781249999
1.2802001953125
1.074755859375
1.1174560546874999
1.2930908203125
1.4477783203124999
1.4840332031249999
1.4759765624999999
1.4518066406249999
1.5750732421875
1.545263671875
1.5243164062499999
1.50498046875
1.5025634765625
1.50498046875
1.5404296874999999
1.0997314453125
0.6711181640624999
1.5927978515624999
1.5533203125
1.5138427734375
1.6209960937499999
1.6910888671875
2.4935302734375
2.0246337890625
1.6201904296874998
1.5017578125
1.4590576171874998
1.5218994140625
1.5919921874999998
1.58232421875
1.5791015625
1.5541259765625
1.5267333984375
1.5033691406249998
1.509814453125
1.571044921875
1.5831298828125
2.76181640625
1.69189453125
1.5476806640624998
1.5645996093749999
1.4373046875
1.3083984375
0.894287109375
1.0417236328125
1.1794921875
1.3849365234375
1.426025390625
1.46953125
1.4993408203124998
1.6072998046875
1.6395263671875
1.6878662109375
1.6459716796875
1.611328125
1.5758789062499998
1.5460693359375
1.509814453125
0.22880859374999998
1.3607666015625
1.5380126953125
1.5275390624999998
1.5654052734375
1.67578125
2.0987548828125
2.328369140625
1.67900390625
1.490478515625
1.482421875
1.461474609375
1.529150390625
1.5831298828125
1.611328125
1.5460693359375
1.4791992187499998
1.5114257812499998
1.5170654296875
1.53076171875
1.5170654296875
2.450830078125
2.109228515625
1.506591796875
1.5815185546875
1.5275390624999998
1.3237060546875
1.0513916015625
1.0167480468749999
1.0731445312499999
1.3575439453125
1.4389160156249998
1.5025634765625
1.5283447265624999
1.6733642578124999
1.658056640625
1.59521484375
1.522705078125
1.5106201171875
1.5009521484375
1.5017578125
1.529150390625
0.475341796875
0.8926757812499999
1.6483886718749998
1.5025634765625
1.5476806640624998
1.7176757812499999
1.8473876953125
2.6433837890625
1.89169921875
1.5839355468749998
1.577490234375
1.5565429687499999
1.5605712890624999
1.4671142578124998
1.5162597656249999
1.542041015625
1.5678222656249998
1.52109375
1.5186767578125
1.5960205078124998
1.61455078125
1.6773925781249999
2.711865234375
1.426025390625
1.44052734375
1.5090087890625
1.4066894531249998
1.2576416015624998
0.8854248046875
1.0328613281249999
1.2938964843749998
1.4550292968749998
1.458251953125
1.4912841796874998
1.4767822265625
1.545263671875
1.5396240234374998
1.5315673828124998
1.506591796875
1.5202880859374999
1.546875
1.5702392578125
1.4356933593749999
0.2634521484375
1.5750732421875
1.5355957031249998
1.5484863281249999
1.6894775390624999
1.8361083984375
2.5821533203125
2.2405517578125
1.6532226562499999
1.4872558593749998
1.4912841796874998
1.4759765624999999
1.5460693359375
1.482421875
1.4832275390624998
1.513037109375
1.5380126953125
1.533984375
1.5170654296875
1.5154541015624998
1.5428466796875
3.0228515624999996
1.6862548828125
1.5654052734375
1.5678222656249998
1.4896728515625
1.2979248046874998
0.8451416015625
1.074755859375
1.2785888671874999
1.4767822265625
1.496923828125
1.4791992187499998
1.409912109375
1.546875
1.5025634765625
1.4840332031249999
1.5122314453124999
1.5766845703124999
1.6282470703124998
1.6798095703125
1.6129394531249999
0.022558593749999998
1.4445556640625
1.4759765624999999
1.4308593749999998
1.5686279296874999
1.7152587890625
2.0649169921875
2.663525390625
1.662890625
1.5347900390625
1.53076171875
1.5323730468749999
1.5758789062499998
1.51787109375
1.5557373046874998
1.6040771484374998
1.6024658203125
1.5444580078124999
1.4832275390624998
1.4655029296875
1.46953125
2.1615966796875
1.9247314453125
1.4550292968749998
1.5492919921875
1.5162597656249999
1.32451171875
1.15693359375
0.9804931640625
1.1786865234375
1.340625
1.4469726562499998
1.4840332031249999
1.409912109375
1.5726562499999999
1.6089111328124999
1.5517089843749998
1.55009765625
1.55009765625
1.533984375
1.4953124999999998
1.477587890625
0.6654785156249999
1.0723388671875
1.590380859375
1.5146484375
1.53720703125
1.7934082031249998
1.8949218749999999
2.9600097656249997
1.93681640625
1.558154296875
1.477587890625
1.442138671875
1.5170654296875
1.5251220703125
1.525927734375
1.5484863281249999
1.558154296875
1.55009765625
1.51787109375
1.5428466796875
1.571044921875
1.5919921874999998
2.5692626953124997
1.4558349609374999
1.4437499999999999
1.4912841796874998
1.2979248046874998
1.203662109375
0.6767578125
1.0119140625
1.24716796875
1.46630859375
1.5517089843749998
1.55009765625
1.611328125
1.683837890625
1.5235107421874998
1.5138427734375
1.5243164062499999
1.5041748046874999
1.5154541015624998
1.5114257812499998
1.5404296874999999
0.39316406249999997
1.6048828124999999
1.5323730468749999
1.5895751953125
1.719287109375
1.8183837890624999
2.5338134765625
2.2026855468749997
1.6322753906249998
1.4703369140625
1.4679199218749999
1.46953125
1.5082031249999999
1.4872558593749998
1.5573486328125
1.542041015625
1.5186767578125
1.513037109375
1.5323730468749999
1.5436523437499998
1.4928955078125
3.027685546875
1.6975341796874999
1.52109375
1.56943359375
1.4550292968749998
1.335791015625
0.7162353515625
0.958740234375
1.0812011718749999
1.3623779296874998
1.496923828125
1.5380126953125
1.4123291015625
1.6081054687499998
1.5831298828125
1.6185791015625
1.58232421875
1.5645996093749999
1.5605712890624999
1.5315673828124998
1.4945068359375
0.020947265625
1.3978271484375
1.6282470703124998
1.4759765624999999
1.6008544921874999
1.8143554687499999
2.40087890625
2.63291015625
1.7724609375
1.5202880859374999
1.5122314453124999
1.5122314453124999
1.5476806640624998
1.4832275390624998
1.4816162109375
1.4977294921875
1.525927734375
1.5267333984375
1.5396240234374998
1.533984375
1.5202880859374999
2.8536621093749996
2.244580078125
1.5863525390625
1.5919921874999998
1.47275390625
1.2383056640624999
0.9692138671874999
0.9144287109375
0.9893554687499999
1.3309570312499999
1.442138671875
1.4445556640625
1.4558349609374999
1.5678222656249998
1.525927734375
1.5194824218749998
1.5766845703124999
1.5791015625
1.5791015625
1.5565429687499999
1.5509033203125
0.1248779296875
0.8096923828125
1.7104248046875
1.5404296874999999
1.635498046875
1.8981445312499998
1.9489013671875
2.9414794921875
1.98837890625
1.5686279296874999
1.5186767578125
1.4203857421875
1.4276367187499999
1.461474609375
1.51787109375
1.5001464843749999
1.50498046875
1.5444580078124999
1.5863525390625
1.5404296874999999
1.5323730468749999
1.651611328125
2.8963623046875
1.480810546875
1.558154296875
1.6056884765625
1.264892578125
1.14404296875
0.678369140625
0.952294921875
1.2415283203124998
1.3946044921874998
1.448583984375
1.4679199218749999
1.5243164062499999
1.5315673828124998
1.5009521484375
1.5146484375
1.5484863281249999
1.546875
1.5565429687499999
1.554931640625
1.4598632812499999
0.11762695312499999
1.7313720703125
1.5815185546875
1.55009765625
1.6910888671875
1.85302734375
2.7408691406249996
2.4274658203125
1.5734619140625
1.4518066406249999
1.4389160156249998
1.448583984375
1.5364013671874999
1.4920898437499999
1.5106201171875
1.5114257812499998
1.5726562499999999
1.5766845703124999
1.5670166015625
1.5791015625
1.6306640625
3.029296875
1.51787109375
1.477587890625
1.5911865234375
1.45341796875
1.3075927734375
0.6735351562499999
0.8660888671875
1.1617675781249999
1.3510986328124999
1.429248046875
1.47275390625
1.4501953125
1.6282470703124998
1.5863525390625
1.5863525390625
1.5404296874999999
1.5218994140625
1.546875
1.5702392578125
1.52109375
0.0249755859375
1.5041748046874999
1.606494140625
1.4767822265625
1.5960205078124998
1.754736328125
2.1849609375
2.92294921875
1.8175781249999998
1.6024658203125
1.5654052734375
1.4518066406249999
1.5033691406249998
1.4590576171874998
1.509814453125
1.4719482421874999
1.47275390625
1.5001464843749999
1.558154296875
1.51787109375
1.4888671875
3.029296875
1.9762939453125
1.4993408203124998
1.625830078125
1.4993408203124998
1.2584472656249999
1.06669921875
0.9563232421875
1.1045654296875
1.332568359375
1.409912109375
1.429248046875
1.4187744140624998
1.5637939453124998
1.5944091796875
1.5565429687499999
1.5347900390625
1.5218994140625
1.5355957031249998
1.5782958984375
1.5726562499999999
0.0217529296875
1.132763671875
1.6427490234375
1.496923828125
1.6072998046875
1.8328857421875
1.9279541015625
3.02607421875
1.8199951171875
1.5960205078124998
1.603271484375
1.5106201171875
1.480810546875
1.5138427734375
1.5114257812499998
1.522705078125
1.525927734375
1.5412353515625
1.4840332031249999
1.4598632812499999
1.4783935546875
2.0729736328125
2.682861328125
1.5170654296875
1.5726562499999999
1.558154296875
1.340625
1.229443359375
0.7871337890625
0.95390625
1.18271484375
1.397021484375
1.4501953125
1.496923828125
1.5299560546875
1.593603515625
1.5476806640624998
1.574267578125
1.5299560546875
1.5355957031249998
1.538818359375
1.53720703125
0.9402099609375
0.32548828124999996
1.67900390625
1.5436523437499998
1.4912841796874998
1.674169921875
1.783740234375
2.9745117187499996
2.230078125
1.6532226562499999
1.5299560546875
1.506591796875
1.50498046875
1.554931640625
1.5243164062499999
1.4920898437499999
1.48564453125
1.5025634765625
1.5001464843749999
1.4912841796874998
1.51787109375
1.5517089843749998
3.0309082031249996
1.7418457031249999
1.5444580078124999
1.603271484375
1.50498046875
1.3067871093749999
0.575244140625
0.91201171875
1.1029541015625
1.4397216796874999
1.4993408203124998
1.5154541015624998
1.4115234374999999
1.5799072265624998
1.5404296874999999
1.5315673828124998
1.545263671875
1.5033691406249998
1.5138427734375
1.5355957031249998
1.513037109375
0.0217529296875
1.340625
1.6330810546874999
1.5194824218749998
1.64677734375
1.8780029296874998
2.4387451171875
2.776318359375
1.8618896484374998
1.554931640625
1.5299560546875
1.461474609375
1.46953125
1.4711425781249998
1.496923828125
1.49853515625
1.474365234375
1.496923828125
1.5073974609374998
1.5073974609374998
1.5202880859374999
2.8319091796875
2.2969482421875
1.529150390625
1.6121337890624998
1.5082031249999999
1.2947021484374999
0.9635742187499999
0.8693115234375
0.9949951171875
1.335791015625
1.458251953125
1.4687255859375
1.4155517578124999
1.5839355468749998
1.5509033203125
1.5565429687499999
1.5791015625
1.55009765625
1.577490234375
1.63388671875
1.5750732421875
0.11440429687499999
0.6807861328125
1.6330810546874999
1.474365234375
1.5194824218749998
1.72412109375
1.9513183593749999
3.02607421875
2.08828125
1.5911865234375
1.5114257812499998
1.513037109375
1.5162597656249999
1.5154541015624998
1.5887695312499999
1.58232421875
1.5621826171875
1.5267333984375
1.4945068359375
1.464697265625
1.4630859374999998
1.5533203125
2.953564453125
1.461474609375
1.4848388671875
1.5911865234375
1.2737548828124998
1.1512939453125
0.6517822265625
0.8983154296875
1.2302490234374999
1.400244140625
1.4477783203124999
1.5347900390625
1.5194824218749998
1.5919921874999998
1.538818359375
1.56943359375
1.5509033203125
1.5275390624999998
1.5114257812499998
1.493701171875
1.3946044921874998
0.059619140625
1.6927001953124998
1.5315673828124998
1.5533203125
1.6717529296875
1.9070068359374999
2.979345703125
2.3920166015624997
1.6685302734374998
1.5533203125
1.545263671875
1.5057861328125
1.513037109375
1.4759765624999999
1.4840332031249999
1.5194824218749998
1.525927734375
1.525927734375
1.5380126953125
1.5589599609375
1.546875
3.0252685546875
1.5799072265624998
1.5404296874999999
1.5750732421875
1.4171630859375
1.2665039062499999
0.639697265625
0.9289306640624999
1.100537109375
1.3736572265625
1.3849365234375
1.4236083984374999
1.42119140625
1.6024658203125
1.5702392578125
1.5750732421875
1.5927978515624999
1.6081054687499998
1.6040771484374998
1.574267578125
1.5202880859374999
0.0217529296875
1.5565429687499999
1.6177734375
1.480810546875
1.5718505859374998
1.8111328125
2.157568359375
2.9882080078124997
1.7821289062499999
1.513037109375
1.46630859375
1.4550292968749998
1.5637939453124998
1.4864501953125
1.538818359375
1.5138427734375
1.5315673828124998
1.52109375
1.5146484375
1.522705078125
1.5194824218749998
2.2357177734375
2.0326904296875
1.4510009765624998
1.5645996093749999
1.554931640625
1.2544189453124999
1.058642578125
0.7516845703124999
0.9724365234375
1.2447509765625
1.3986328124999998
1.4276367187499999
1.4171630859375
1.5476806640624998
1.6250244140624999
1.5815185546875
1.5573486328125
1.5968261718749999
1.6306640625
1.6395263671875
1.5654052734375
0.7387939453125
0.9474609374999999
1.571044921875
1.4469726562499998
1.4655029296875
1.8256347656249998
1.920703125
3.0083496093749997
1.989990234375
1.5992431640625
1.558154296875
1.5565429687499999
1.5976318359375
1.5791015625
1.5637939453124998
1.4848388671875
1.496923828125
1.5009521484375
1.5670166015625
1.5517089843749998
1.5186767578125
1.4477783203124999
2.7062255859374997
1.4703369140625
1.49853515625
1.59521484375
1.3559326171875
1.1996337890625
0.57041015625
0.9345703125
1.2028564453125
1.413134765625
1.4711425781249998
1.4381103515625
1.3962158203125
1.5364013671874999
1.5412353515625
1.525927734375
1.5565429687499999
1.5782958984375
1.577490234375
1.5750732421875
1.5678222656249998
0.281982421875
1.7200927734375
1.6403320312499998
1.5275390624999998
1.6572509765624999
1.7531249999999998
2.4427734375
2.3017822265625
1.63388671875
1.5194824218749998
1.4800048828124999
1.4800048828124999
1.5299560546875
1.4711425781249998
1.4953124999999998
1.4872558593749998
1.5017578125
1.51787109375
1.53076171875
1.52109375
1.5517089843749998
3.0284912109374997
1.80791015625
1.48564453125
1.561376953125
1.5194824218749998
1.3446533203125
0.5776611328125
0.8588378906249999
1.029638671875
1.3220947265624998
1.4147460937499998
1.5025634765625
1.4252197265625
1.62744140625
1.5525146484374999
1.55009765625
1.5573486328125
1.5597656249999998
1.56943359375
1.5799072265624998
1.5347900390625
0.020947265625
1.2947021484374999
1.6371093749999999
1.509814453125
1.638720703125
1.8876708984375
2.0625
2.8593017578124997
1.9029785156249999
1.5476806640624998
1.4872558593749998
1.482421875
1.5323730468749999
1.4558349609374999
1.5186767578125
1.51787109375
1.477587890625
1.4816162109375
1.4961181640624999
1.4993408203124998
1.493701171875
2.8456054687499996
2.3396484374999997
1.5017578125
1.577490234375
1.5057861328125
1.2705322265624999
1.039306640625
0.8467529296874999
1.0030517578125
1.2584472656249999
1.43408203125
1.41796875
1.405078125
1.593603515625
1.5460693359375
1.51787109375
1.5186767578125
1.538818359375
1.5662109375
1.5726562499999999
1.5782958984375
0.19013671875
0.62197265625
1.703173828125
1.5396240234374998
1.5960205078124998
1.8054931640624998
2.0052978515624997
3.027685546875
2.1076171875
1.587158203125
1.5267333984375
1.4928955078125
1.542041015625
1.506591796875
1.5597656249999998
1.5380126953125
1.5025634765625
1.4751708984374998
1.47275390625
1.5033691406249998
1.4920898437499999
1.5275390624999998
2.9865966796874996
1.4558349609374999
1.525927734375
1.5895751953125
1.4228027343749998
1.1947998046875
0.6050537109374999
0.9176513671875
1.216552734375
1.4477783203124999
1.4961181640624999
1.5218994140625
1.5782958984375
1.6089111328124999
1.56943359375
1.5154541015624998
1.5283447265624999
1.545263671875
1.545263671875
1.538818359375
1.4920898437499999
0.0217529296875
1.5533203125
1.522705078125
1.4880615234374999
1.6314697265625
1.835302734375
2.66513671875
2.582958984375
1.7450683593749998
1.5218994140625
1.4920898437499999
1.5041748046874999
1.561376953125
1.5170654296875
1.5484863281249999
1.5355957031249998
1.5033691406249998
1.5146484375
1.4961181640624999
1.496923828125
1.4751708984374998
3.029296875
1.638720703125
1.5355957031249998
1.5565429687499999
1.480810546875
1.2656982421874998
0.742822265625
0.8741455078125
1.119873046875
1.3768798828125
1.4437499999999999
1.477587890625
1.4389160156249998
1.6451660156249999
1.6290527343749999
1.6024658203125
1.5605712890624999
1.5041748046874999
1.5170654296875
1.5621826171875
1.525927734375
0.023364257812499997
1.06025390625
1.6298583984375
1.4977294921875
1.5863525390625
1.7692382812499998
2.086669921875
2.985791015625
1.7700439453124999
1.5380126953125
1.5396240234374998
1.5090087890625
1.56298828125
1.5146484375
1.5589599609375
1.509814453125
1.5001464843749999
1.5017578125
1.490478515625
1.5170654296875
1.5509033203125
2.20751953125
2.080224609375
1.474365234375
1.5557373046874998
1.4679199218749999
1.2238037109375
1.04736328125
0.68642578125
1.019970703125
1.2697265624999998
1.3913818359374999
1.43408203125
1.40830078125
1.5106201171875
1.53720703125
1.5565429687499999
1.611328125
1.593603515625
1.5919921874999998
1.6081054687499998
1.5863525390625
0.8016357421875
1.02158203125
1.65
1.461474609375
1.4816162109375
1.848193359375
1.880419921875
3.0172119140625
2.0044921875
1.56943359375
1.5218994140625
1.5235107421874998
1.5162597656249999
1.5162597656249999
1.533984375
1.5267333984375
1.5202880859374999
1.509814453125
1.5396240234374998
1.529150390625
1.5162597656249999
1.542041015625
2.7513427734375
1.4993408203124998
1.48564453125
1.561376953125
1.345458984375
1.219775390625
0.575244140625
0.9216796875
1.1625732421875
1.3744628906249998
1.4397216796874999
1.4719482421874999
1.429248046875
1.5750732421875
1.5597656249999998
1.5605712890624999
1.5565429687499999
1.5565429687499999
1.5436523437499998
1.5807128906249999
1.5670166015625
0.22236328125
1.6443603515624998
1.5597656249999998
1.5194824218749998
1.6822265625
1.767626953125
2.4081298828124997
2.358984375
1.7531249999999998
1.525927734375
1.4864501953125
1.5122314453124999
1.603271484375
1.49853515625
1.480810546875
1.4590576171874998
1.482421875
1.5484863281249999
1.5444580078124999
1.5476806640624998
1.506591796875
3.0301025390625
1.7877685546875
1.5444580078124999
1.6620849609375
1.5154541015624998
1.30517578125
0.5518798828125
0.887841796875
1.0570312499999999
1.3269287109374999
1.4026611328124998
1.4493896484375
1.3954101562499999
1.5887695312499999
1.5654052734375
1.5573486328125
1.56298828125
1.561376953125
1.5718505859374998
1.546875
1.5492919921875
0.0217529296875
1.3180664062499998
1.641943359375
1.5106201171875
1.6306640625
1.8256347656249998
2.0020751953125
2.9020019531249996
1.8755859375
1.513037109375
1.4550292968749998
1.4671142578124998
1.5146484375
1.4840332031249999
1.506591796875
1.5041748046874999
1.5364013671874999
1.53076171875
1.5444580078124999
1.5396240234374998
1.5235107421874998
2.8351318359374997
2.3662353515625
1.4606689453125
1.5718505859374998
1.4791992187499998
1.255224609375
1.0062744140625
0.8113037109375
0.9450439453124999
1.219775390625
1.3946044921874998
1.4671142578124998
1.4671142578124998
1.5984375
1.585546875
1.6395263671875
1.6089111328124999
1.5476806640624998
1.5492919921875
1.5525146484374999
1.5517089843749998
0.1538818359375
0.6114990234375
1.6806152343749998
1.4912841796874998
1.5484863281249999
1.7829345703125
1.964208984375
3.0244628906249997
2.1164794921875
1.5984375
1.496923828125
1.533984375
1.546875
1.4961181640624999
1.5154541015624998
1.5009521484375
1.5138427734375
1.538818359375
1.5299560546875
1.5218994140625
1.4928955078125
1.5380126953125
2.9922363281249997
1.4590576171874998
1.5202880859374999
1.587158203125
1.432470703125
1.1641845703125
0.5986083984375
0.8926757812499999
1.203662109375
1.3946044921874998
1.4356933593749999
1.4719482421874999
1.5323730468749999
1.5791015625
1.5645996093749999
1.5597656249999998
1.5807128906249999
1.5984375
1.574267578125
1.529150390625
1.4687255859375
0.023364257812499997
1.5355957031249998
1.533984375
1.53076171875
1.638720703125
1.82724609375
2.7521484375
2.570068359375
1.7821289062499999
1.554931640625
1.4977294921875
1.4896728515625
1.5484863281249999
1.5082031249999999
1.4816162109375
1.4759765624999999
1.4928955078125
1.5009521484375
1.5243164062499999
1.5162597656249999
1.5331787109375
3.027685546875
1.6266357421875
1.538818359375
1.6072998046875
1.4945068359375
1.2906738281249999
0.7436279296874999
0.8902587890625
1.123095703125
1.3607666015625
1.4364990234375
1.496923828125
1.4091064453125
1.587158203125
1.571044921875
1.571044921875
1.5476806640624998
1.5347900390625
1.5541259765625
1.5476806640624998
1.5243164062499999
0.02578125
1.084423828125
1.6121337890624998
1.4880615234374999
1.5847412109374999
1.7990478515625
2.1293701171875
2.9898193359375
1.791796875
1.5573486328125
1.53720703125
1.5565429687499999
1.5460693359375
1.46630859375
1.5073974609374998
1.4977294921875
1.5041748046874999
1.51787109375
1.5073974609374998
1.5170654296875
1.5267333984375
2.1849609375
2.044775390625
1.4719482421874999
1.5662109375
1.48564453125
1.2640869140625
1.0884521484375
0.7162353515625
1.0256103515625
1.2802001953125
1.3921875
1.4896728515625
1.44052734375
1.5702392578125
1.5807128906249999
1.5533203125
1.56943359375
1.609716796875
1.593603515625
1.5565429687499999
1.53076171875
0.8209716796875
0.945849609375
1.6556396484375
1.509814453125
1.5090087890625
1.8296630859374998
1.9279541015625
2.9865966796874996
2.0496093749999997
1.6008544921874999
1.5073974609374998
1.464697265625
1.4920898437499999
1.506591796875
1.545263671875
1.5275390624999998
1.52109375
1.5041748046874999
1.5235107421874998
1.542041015625
1.5243164062499999
1.5243164062499999
2.7432861328125
1.4840332031249999
1.5194824218749998
1.5734619140625
1.3341796874999998
1.1899658203124999
0.5929687499999999
0.929736328125
1.1666015625
1.40830078125
1.426025390625
1.4872558593749998
1.4759765624999999
1.6000488281249998
1.5791015625
1.5799072265624998
1.5847412109374999
1.5702392578125
1.5517089843749998
1.558154296875
1.5331787109375
0.17482910156249998
1.611328125
1.5323730468749999
1.4953124999999998
1.66611328125
1.77568359375
2.3912109375
2.3678466796874997
1.6927001953124998
1.5323730468749999
1.525927734375
1.5299560546875
1.5799072265624998
1.5114257812499998
1.5186767578125
1.5073974609374998
1.5154541015624998
1.51787109375
1.5162597656249999
1.5114257812499998
1.4977294921875
3.0284912109374997
1.7716552734375
1.509814453125
1.5887695312499999
1.461474609375
1.300341796875
0.581689453125
0.9144287109375
1.0675048828125
1.32451171875
1.4308593749999998
1.4493896484375
1.405078125
1.5911865234375
1.5831298828125
1.590380859375
1.60166015625
1.554931640625
1.5492919921875
1.5404296874999999
1.5251220703125
0.0217529296875
1.284228515625
1.6161621093749998
1.522705078125
1.6395263671875
1.828857421875
1.9867675781249998
2.8456054687499996
1.8707519531249999
1.5484863281249999
1.5090087890625
1.5082031249999999
1.5492919921875
1.4848388671875
1.5033691406249998
1.5025634765625
1.5557373046874998
1.5380126953125
1.52109375
1.5106201171875
1.49853515625
2.7110595703125
2.3372314453125
1.4711425781249998
1.571044921875
1.5041748046874999
1.2656982421874998
1.0417236328125
0.8483642578124999
1.0175537109375
1.27294921875
1.4510009765624998
1.4542236328125
1.4316650390624999
1.5597656249999998
1.5662109375
1.5355957031249998
1.538818359375
1.5315673828124998
1.5404296874999999
1.5436523437499998
1.538818359375
0.265869140625
0.6147216796875
1.6991455078125
1.4848388671875
1.5541259765625
1.8111328125
1.9795166015624999
3.027685546875
2.1301757812499997
1.5944091796875
1.525927734375
1.5090087890625
1.509814453125
1.4767822265625
1.5082031249999999
1.4961181640624999
1.5122314453124999
1.5267333984375
1.5315673828124998
1.5114257812499998
1.5162597656249999
1.5396240234374998
2.9970703125
1.5057861328125
1.5525146484374999
1.62744140625
1.45341796875
1.1980224609374999
0.6243896484375
0.9821044921875
1.2254150390625
1.3784912109374998
1.3881591796875
1.4244140625
1.5122314453124999
1.585546875
1.56298828125
1.5662109375
1.571044921875
1.5509033203125
1.5637939453124998
1.5476806640624998
1.490478515625
0.023364257812499997
1.5412353515625
1.5162597656249999
1.4888671875
1.6024658203125
1.8240234375
2.7320068359375
2.5475097656249996
1.7539306640624999
1.5444580078124999
1.53076171875
1.5380126953125
1.5517089843749998
1.5082031249999999
1.525927734375
1.5186767578125
1.490478515625
1.474365234375
1.4864501953125
1.4928955078125
1.4783935546875
3.029296875
1.6153564453125
1.5275390624999998
1.6129394531249999
1.51787109375
1.340625
0.81533203125
0.9176513671875
1.142431640625
1.35673828125
1.4373046875
1.5090087890625
1.432470703125
1.6209960937499999
1.5750732421875
1.5573486328125
1.571044921875
1.5525146484374999
1.5412353515625
1.5243164062499999
1.5364013671874999
0.022558593749999998
1.4872558593749998
1.5968261718749999
1.4719482421874999
1.5645996093749999
1.7764892578125
2.125341796875
2.9865966796874996
1.7595703125
1.522705078125
1.482421875
1.51787109375
1.561376953125
1.4896728515625
1.5138427734375
1.49853515625
1.5146484375
1.53076171875
1.546875
1.545263671875
1.5541259765625
2.1301757812499997
2.0214111328124997
1.464697265625
1.55009765625
1.5194824218749998
1.2528076171875
1.058642578125
0.7033447265624999
1.0288330078124999
1.3414306640625
1.445361328125
1.46630859375
1.4091064453125
1.5364013671874999
1.5678222656249998
1.5960205078124998
1.6306640625
1.6105224609375
1.5879638671874998
1.5839355468749998
1.590380859375
0.9869384765625
0.8725341796874999
1.5533203125
1.413134765625
1.5879638671874998
1.8465820312499999
1.9392333984374999
3.0043212890624997
2.060888671875
1.5895751953125
1.53076171875
1.53720703125
1.53076171875
1.50498046875
1.5025634765625
1.4872558593749998
1.4316650390624999
1.480810546875
1.4783935546875
1.5154541015624998
1.561376953125
1.93359375
2.7432861328125
1.509814453125
1.5412353515625
1.5597656249999998
1.3784912109374998
1.2592529296875
0.760546875
0.966796875
1.1706298828125
1.3873535156249999
1.4437499999999999
1.4735595703125
1.4655029296875
1.5396240234374998
1.546875
1.558154296875
1.5476806640624998
1.53076171875
1.5968261718749999
1.6435546875
1.232666015625
0.26425781249999997
1.603271484375
1.5162597656249999
1.493701171875
1.6620849609375
1.72412109375
2.7787353515624997
2.31708984375
1.7233154296875
1.5444580078124999
1.4977294921875
1.4872558593749998
1.5146484375
1.5460693359375
1.5678222656249998
1.5557373046874998
1.5267333984375
1.5090087890625
1.4622802734375
1.432470703125
1.458251953125
3.029296875
1.6169677734374999
1.5944091796875
1.67578125
1.5766845703124999
1.2938964843749998
0.717041015625
0.9007324218749999
1.103759765625
1.5009521484375
1.509814453125
1.4832275390624998
1.45341796875
1.571044921875
1.5944091796875
1.5879638671874998
1.5525146484374999
1.5041748046874999
1.5025634765625
1.51787109375
1.4977294921875
0.022558593749999998
1.2076904296875
1.5218994140625
1.4840332031249999
1.6089111328124999
1.7370117187499998
2.1946289062499997
2.7448974609374996
1.80791015625
1.6693359374999999
1.6733642578124999
1.6491943359374999
1.558154296875
1.4574462890625
1.4356933593749999
1.456640625
1.47275390625
1.4912841796874998
1.5073974609374998
1.5194824218749998
1.533984375
2.4766113281249997
1.8296630859374998
1.5057861328125
1.5863525390625
1.493701171875
1.3108154296874999
1.0981201171875
0.9224853515625
1.18916015625
1.4437499999999999
1.493701171875
1.474365234375
1.4284423828125
1.5895751953125
1.590380859375
1.5791015625
1.6105224609375
1.585546875
1.587158203125
1.6024658203125
1.5927978515624999
0.6380859375
1.24716796875
1.6290527343749999
1.4928955078125
1.574267578125
1.7579589843749999
1.8538330078124998
2.6546630859375
1.8280517578125
1.571044921875
1.5283447265624999
1.5194824218749998
1.529150390625
1.4800048828124999
1.4848388671875
1.513037109375
1.5412353515625
1.5484863281249999
1.5218994140625
1.5283447265624999
1.538818359375
2.1704589843749997
2.215576171875
1.442138671875
1.4606689453125
1.5001464843749999
1.3752685546874999
1.2995361328125
1.0570312499999999
1.239111328125
1.4123291015625
1.5267333984375
1.50498046875
1.464697265625
1.4598632812499999
1.509814453125
1.4598632812499999
1.47275390625
1.5251220703125
1.5404296874999999
1.561376953125
1.5484863281249999
0.8362792968749999
0.760546875
1.6234130859375
1.571044921875
1.5879638671874998
1.7217041015624999
1.7684326171875
2.5402587890625
2.006103515625
1.6048828124999999
1.4888671875
1.480810546875
1.5114257812499998
1.5347900390625
1.5565429687499999
1.5492919921875
1.545263671875
1.506591796875
1.5194824218749998
1.546875
1.529150390625
1.5082031249999999
2.6530517578125
1.62744140625
1.5162597656249999
1.5444580078124999
1.4268310546874998
1.2947021484374999
0.9434326171874999
1.1287353515625
1.255224609375
1.461474609375
1.4864501953125
1.5106201171875
1.5194824218749998
1.5138427734375
1.4961181640624999
1.5476806640624998
1.6105224609375
1.587158203125
1.5533203125
1.5428466796875
1.513037109375
0.3279052734375
1.6137451171875
1.5484863281249999
1.5122314453124999
1.587158203125
1.6894775390624999
2.13662109375
2.263916015625
1.6209960937499999
1.5444580078124999
1.538818359375
1.5347900390625
1.5541259765625
1.5025634765625
1.5146484375
1.4928955078125
1.5057861328125
1.52109375
1.4832275390624998
1.5009521484375
1.53720703125
2.5330078124999997
1.658056640625
1.538818359375
1.5807128906249999
1.5114257812499998
1.3865478515624998
1.1496826171874999
1.1255126953124999
1.2592529296875
1.377685546875
1.4123291015625
1.46953125
1.4574462890625
1.59521484375
1.585546875
1.5984375
1.5944091796875
1.56298828125
1.5355957031249998
1.5194824218749998
1.5090087890625
0.33515625
1.426025390625
1.5839355468749998
1.4993408203124998
1.593603515625
1.6975341796874999
1.82080078125
2.2566650390625
1.7136474609374999
1.5734619140625
1.5557373046874998
1.5114257812499998
1.5597656249999998
1.5597656249999998
1.6040771484374998
1.5476806640624998
1.47275390625
1.448583984375
1.4526123046875
1.4880615234374999
1.5283447265624999
2.447607421875
1.9996582031249999
1.51787109375
1.574267578125
1.5162597656249999
1.416357421875
1.1883544921875
1.0836181640625
1.18916015625
1.3599609375
1.4719482421874999
1.5057861328125
1.4590576171874998
1.4920898437499999
1.55009765625
1.5404296874999999
1.5565429687499999
1.5517089843749998
1.5444580078124999
1.5509033203125
1.5251220703125
0.6260009765625
1.044140625
1.625830078125
1.5033691406249998
1.5597656249999998
1.7007568359374998
1.80791015625
2.4355224609375
1.8602783203125
1.5807128906249999
1.5436523437499998
1.5484863281249999
1.5436523437499998
1.5106201171875
1.5243164062499999
1.51787109375
1.4912841796874998
1.5057861328125
1.5202880859374999
1.5428466796875
1.522705078125
1.61455078125
2.3879882812499997
1.5162597656249999
1.5758789062499998
1.5645996093749999
1.3543212890624998
1.3075927734375
1.0272216796875
1.174658203125
1.35673828125
1.4501953125
1.4759765624999999
1.480810546875
1.5355957031249998
1.5605712890624999
1.53720703125
1.5283447265624999
1.533984375
1.5331787109375
1.5331787109375
1.5533203125
1.4300537109375
0.5768554687499999
1.6459716796875
1.5686279296874999
1.5637939453124998
1.6878662109375
1.7281494140625
2.2373291015625
1.880419921875
1.5758789062499998
1.5146484375
1.5041748046874999
1.5218994140625
1.546875
1.5299560546875
1.5347900390625
1.51787109375
1.5009521484375
1.4872558593749998
1.5162597656249999
1.56298828125
1.5565429687499999
2.447607421875
1.558154296875
1.533984375
1.5782958984375
1.4469726562499998
1.3083984375
1.0191650390625
1.174658203125
1.31162109375
1.5001464843749999
1.56943359375
1.56298828125
1.4953124999999998
1.5267333984375
1.4953124999999998
1.525927734375
1.554931640625
1.5541259765625
1.5645996093749999
1.5815185546875
1.4832275390624998
0.526904296875
1.506591796875
1.5863525390625
1.5791015625
1.62744140625
1.6725585937499998
2.1978515625
2.1213134765625
1.6886718749999998
1.5251220703125
1.5017578125
1.5009521484375
1.5476806640624998
1.4977294921875
1.5009521484375
1.5033691406249998
1.5122314453124999
1.53720703125
1.5275390624999998
1.5380126953125
1.53076171875
2.5370361328124997
1.783740234375
1.5082031249999999
1.561376953125
1.5114257812499998
1.3873535156249999
1.1013427734374999
1.16337890625
1.2366943359375
1.448583984375
1.4800048828124999
1.4945068359375
1.4953124999999998
1.56943359375
1.545263671875
1.5484863281249999
1.5509033203125
1.546875
1.56298828125
1.5637939453124998
1.5380126953125
0.476953125
1.2221923828124999
1.5766845703124999
1.5090087890625
1.5718505859374998
1.6798095703125
1.864306640625
2.34609375
1.6886718749999998
1.5686279296874999
1.5436523437499998
1.5412353515625
1.5492919921875
1.5186767578125
1.5396240234374998
1.5194824218749998
1.4961181640624999
1.5033691406249998
1.5057861328125
1.51787109375
1.5154541015624998
1.941650390625
1.8377197265624998
1.4896728515625
1.5460693359375
1.4638916015624999
1.351904296875
1.3172607421875
1.116650390625
1.2366943359375
1.380908203125
1.4598632812499999
1.4888671875
1.46953125
1.538818359375
1.577490234375
1.5726562499999999
1.5718505859374998
1.5662109375
1.5460693359375
1.545263671875
1.5347900390625
0.5502685546875
1.2181640624999999
1.6451660156249999
1.5251220703125
1.5895751953125
1.7466796875
1.767626953125
2.341259765625
1.7781005859374999
1.5573486328125
1.529150390625
1.5082031249999999
1.5476806640624998
1.5509033203125
1.5331787109375
1.4961181640624999
1.4993408203124998
1.5380126953125
1.52109375
1.5194824218749998
1.5194824218749998
1.7934082031249998
2.2276611328125
1.5114257812499998
1.55009765625
1.5380126953125
1.41796875
1.2930908203125
1.0642822265625
1.2318603515625
1.3502929687499998
1.4751708984374998
1.5001464843749999
1.493701171875
1.538818359375
1.5476806640624998
1.5299560546875
1.55009765625
1.5492919921875
1.546875
1.5484863281249999
1.522705078125
1.213330078125
0.7283203125
1.5976318359375
1.5565429687499999
1.546875
1.66611328125
1.77568359375
2.3009765625
1.9706542968749998
1.5194824218749998
1.5235107421874998
1.5170654296875
1.53720703125
1.5331787109375
1.5323730468749999
1.5186767578125
1.5525146484374999
1.546875
1.5323730468749999
1.482421875
1.4912841796874998
1.5025634765625
2.5144775390625
1.5243164062499999
1.51787109375
1.5718505859374998
1.4598632812499999
1.4115234374999999
1.103759765625
1.2383056640624999
1.3261230468749998
1.4034667968749999
1.4195800781249999
1.4671142578124998
1.5009521484375
1.58232421875
1.554931640625
1.5525146484374999
1.5605712890624999
1.5404296874999999
1.5557373046874998
1.5436523437499998
1.5218994140625
0.6646728515625
1.58232421875
1.5702392578125
1.4912841796874998
1.6322753906249998
1.7039794921875
1.9730712890625
2.0471923828125
1.6290527343749999
1.5444580078124999
1.529150390625
1.5476806640624998
1.571044921875
1.490478515625
1.490478515625
1.51787109375
1.546875
1.533984375
1.5283447265624999
1.52109375
1.558154296875
2.5652343749999997
1.6781982421875
1.4888671875
1.5678222656249998
1.48564453125
1.38896484375
1.0546142578125
1.200439453125
1.268115234375
1.4010498046875
1.4719482421874999
1.4977294921875
1.4630859374999998
1.5597656249999998
1.5243164062499999
1.5404296874999999
1.561376953125
1.571044921875
1.5791015625
1.585546875
1.5686279296874999
0.48662109374999996
1.3422363281249998
1.5645996093749999
1.51787109375
1.5637939453124998
1.6967285156249998
1.9086181640625
2.2614990234375
1.7345947265625
1.529150390625
1.529150390625
1.5251220703125
1.5597656249999998
1.5235107421874998
1.5533203125
1.5525146484374999
1.5154541015624998
1.5025634765625
1.4912841796874998
1.52109375
1.5444580078124999
2.1591796875
2.0689453125
1.522705078125
1.5734619140625
1.509814453125
1.3599609375
1.2270263671875
1.1134277343749999
1.20849609375
1.3905761718749998
1.4598632812499999
1.5114257812499998
1.4767822265625
1.5621826171875
1.5565429687499999
1.5492919921875
1.5541259765625
1.5404296874999999
1.53720703125
1.5315673828124998
1.5275390624999998
0.9047607421874999
1.2906738281249999
1.6072998046875
1.5436523437499998
1.5605712890624999
1.7233154296875
1.7603759765625
2.389599609375
1.7289550781249998
1.533984375
1.529150390625
1.5533203125
1.577490234375
1.5154541015624998
1.5267333984375
1.5589599609375
1.561376953125
1.529150390625
1.4920898437499999
1.4864501953125
1.5009521484375
2.028662109375
2.1100341796874997
1.5114257812499998
1.5444580078124999
1.53720703125
1.3784912109374998
1.3229003906249999
1.1158447265625
1.18916015625
1.3333740234375
1.4783935546875
1.5082031249999999
1.5090087890625
1.525927734375
1.5525146484374999
1.5525146484374999
1.53076171875
1.546875
1.5235107421874998
1.53076171875
1.52109375
0.9353759765624999
0.9079833984375
1.65
1.5525146484374999
1.5597656249999998
1.6927001953124998
1.7410400390624998
2.3597900390624997
1.8707519531249999
1.5645996093749999
1.50498046875
1.4912841796874998
1.525927734375
1.5380126953125
1.5476806640624998
1.58232421875
1.5517089843749998
1.50498046875
1.4993408203124998
1.513037109375
1.5090087890625
1.51787109375
2.47822265625
1.61455078125
1.545263671875
1.5525146484374999
1.44052734375
1.3704345703124998
1.08603515625
1.1996337890625
1.2930908203125
1.4542236328125
1.4759765624999999
1.496923828125
1.5331787109375
1.6048828124999999
1.56298828125
1.5444580078124999
1.52109375
1.5154541015624998
1.5428466796875
1.5533203125
1.5565429687499999
0.5446289062499999
1.603271484375
1.5476806640624998
1.5170654296875
1.6242187499999998
1.6483886718749998
2.077001953125
2.1487060546875
1.5726562499999999
1.4977294921875
1.4880615234374999
1.5154541015624998
1.5380126953125
1.525927734375
1.5605712890624999
1.5621826171875
1.5662109375
1.5758789062499998
1.5944091796875
1.609716796875
1.5807128906249999
2.4999755859375
1.5863525390625
1.448583984375
1.5025634765625
1.4510009765624998
1.3728515625
1.1537109374999999
1.2052734375
1.3172607421875
1.45341796875
1.4606689453125
1.4977294921875
1.4816162109375
1.5734619140625
1.5444580078124999
1.5412353515625
1.53720703125
1.5355957031249998
1.5436523437499998
1.5436523437499998
1.5355957031249998
0.5148193359375
1.47275390625
1.61455078125
1.5299560546875
1.5815185546875
1.674169921875
2.0197998046875
2.183349609375
1.6830322265625
1.5315673828124998
1.51787109375
1.509814453125
1.5597656249999998
1.5251220703125
1.5364013671874999
1.5275390624999998
1.5122314453124999
1.529150390625
1.5315673828124998
1.522705078125
1.53076171875
2.3315917968749997
1.9529296875
1.5267333984375
1.53720703125
1.4711425781249998
1.3527099609375
1.1778808593749999
1.13115234375
1.2238037109375
1.41796875
1.4655029296875
1.4864501953125
1.49853515625
1.6234130859375
1.6508056640625
1.6371093749999999
1.538818359375
1.5218994140625
1.5589599609375
1.5492919921875
1.49853515625
0.6807861328125
1.068310546875
1.5678222656249998
1.49853515625
1.5597656249999998
1.67900390625
1.8095214843749998
2.4145751953125
1.8651123046875
1.5750732421875
1.5436523437499998
1.5283447265624999
1.513037109375
1.4687255859375
1.513037109375
1.529150390625
1.5444580078124999
1.5331787109375
1.50498046875
1.4993408203124998
1.496923828125
1.6218017578125
1.9625976562499998
1.5146484375
1.56298828125
1.5766845703124999
1.3986328124999998
1.3317626953125
1.0489746093749999
1.2262207031249999
1.3736572265625
1.448583984375
1.4711425781249998
1.4767822265625
1.52109375
1.546875
1.5364013671874999
1.5412353515625
1.5621826171875
1.5815185546875
1.5863525390625
1.5621826171875
1.3986328124999998
1.0594482421875
1.6532226562499999
1.5396240234374998
1.542041015625
1.6620849609375
1.7176757812499999
2.247802734375
1.8256347656249998
1.60166015625
1.542041015625
1.5106201171875
1.52109375
1.522705078125
1.5146484375
1.545263671875
1.546875
1.55009765625
1.5243164062499999
1.5283447265624999
1.529150390625
1.5984375
2.3597900390624997
1.5251220703125
1.5170654296875
1.525927734375
1.448583984375
1.3857421875
1.0634765625
1.2020507812499999
1.3100097656249998
1.4783935546875
1.509814453125
1.525927734375
1.48564453125
1.542041015625
1.5243164062499999
1.545263671875
1.5484863281249999
1.5404296874999999
1.5484863281249999
1.5799072265624998
1.5404296874999999
0.6413085937499999
1.5082031249999999
1.4912841796874998
1.4783935546875
1.5686279296874999
1.69833984375
2.189794921875
2.131787109375
1.6991455078125
1.5839355468749998
1.5251220703125
1.5146484375
1.5484863281249999
1.5235107421874998
1.4832275390624998
1.5073974609374998
1.5186767578125
1.513037109375
1.5090087890625
1.5267333984375
1.525927734375
2.4693603515625
1.5662109375
1.525927734375
1.5670166015625
1.4574462890625
1.3825195312499998
1.110205078125
1.197216796875
1.29228515625
1.4389160156249998
1.464697265625
1.493701171875
1.4920898437499999
1.5670166015625
1.546875
1.5654052734375
1.571044921875
1.5670166015625
1.5734619140625
1.5758789062499998
1.554931640625
0.5607421874999999
1.4945068359375
1.5645996093749999
1.5041748046874999
1.56298828125
1.6612792968749999
1.883642578125
2.147900390625
1.651611328125
1.545263671875
1.5355957031249998
1.522705078125
1.5444580078124999
1.48564453125
1.5299560546875
1.5621826171875
1.5380126953125
1.5267333984375
1.506591796875
1.5009521484375
1.5057861328125
2.4427734375
1.8151611328125
1.4671142578124998
1.56943359375
1.51787109375
1.3607666015625
1.1496826171874999
1.2012451171875
1.284228515625
1.3849365234375
1.4590576171874998
1.4888671875
1.4638916015624999
1.56943359375
1.5299560546875
1.538818359375
1.558154296875
1.6072998046875
1.611328125
1.554931640625
1.529150390625
0.5808837890624999
1.206884765625
1.571044921875
1.448583984375
1.538818359375
1.6894775390624999
1.832080078125
2.3533447265625
1.819189453125
1.6048828124999999
1.5637939453124998
1.5565429687499999
1.5734619140625
1.5315673828124998
1.5323730468749999
1.5170654296875
1.4953124999999998
1.4961181640624999
1.5082031249999999
1.6048828124999999
1.522705078125
1.8199951171875
2.1954345703125
1.4800048828124999
1.5170654296875
1.5138427734375
1.3688232421875
1.29228515625
1.0755615234375
1.2262207031249999
1.4195800781249999
1.490478515625
1.5114257812499998
1.4888671875
1.5315673828124998
1.53076171875
1.5170654296875
1.5275390624999998
1.53076171875
1.5404296874999999
1.5541259765625
1.5791015625
1.2777832031249998
1.1947998046875
1.6403320312499998
1.5315673828124998
1.5114257812499998
1.7080078125
1.7418457031249999
2.2792236328124997
1.79501953125
1.5517089843749998
1.5033691406249998
1.5299560546875
1.5533203125
1.5509033203125
1.5009521484375
1.4864501953125
1.5017578125
1.5122314453124999
1.5275390624999998
1.5404296874999999
1.529150390625
1.5218994140625
2.2631103515624997
1.5122314453124999
1.5517089843749998
1.5919921874999998
1.448583984375
1.3478759765625
1.0175537109375
1.1883544921875
1.3382080078124998
1.4429443359374998
1.4655029296875
1.4872558593749998
1.4896728515625
1.5791015625
1.5944091796875
1.59521484375
1.593603515625
1.5758789062499998
1.53076171875
1.509814453125
1.2665039062499999
0.6638671875
1.5492919921875
1.5637939453124998
1.5758789062499998
1.662890625
1.7047851562499998
2.20107421875
1.98837890625
1.619384765625
1.5597656249999998
1.5315673828124998
1.50498046875
1.554931640625
1.5275390624999998
1.522705078125
1.51787109375
1.5347900390625
1.546875
1.53720703125
1.513037109375
1.5009521484375
2.4846679687499997
1.65966796875
1.5025634765625
1.5637939453124998
1.5162597656249999
1.368017578125
1.02802734375
1.22138671875
1.3172607421875
1.4791992187499998
1.456640625
1.4767822265625
1.458251953125
1.5984375
1.5758789062499998
1.5589599609375
1.5718505859374998
1.5847412109374999
1.5637939453124998
1.5146484375
1.5009521484375
0.44794921875
1.384130859375
1.5509033203125
1.51787109375
1.6185791015625
1.706396484375
2.325146484375
2.1438720703125
1.5686279296874999
1.5001464843749999
1.5090087890625
1.5017578125
1.533984375
1.525927734375
1.5299560546875
1.513037109375
1.506591796875
1.509814453125
1.5082031249999999
1.5323730468749999
1.5380126953125
2.193017578125
1.7055908203124999
1.5001464843749999
1.5533203125
1.5597656249999998
1.4477783203124999
1.1947998046875
1.2044677734375
1.2503906249999999
1.3978271484375
1.4719482421874999
1.513037109375
1.474365234375
1.542041015625
1.542041015625
1.5517089843749998
1.5476806640624998
1.5251220703125
1.5396240234374998
1.5331787109375
1.525927734375
0.4970947265625
1.3688232421875
1.6250244140624999
1.5492919921875
1.5968261718749999
1.7072021484375
1.764404296875
2.2268554687499997
1.7015624999999999
1.5275390624999998
1.5025634765625
1.5162597656249999
1.5670166015625
1.533984375
1.5766845703124999
1.5686279296874999
1.5347900390625
1.5017578125
1.5009521484375
1.5025634765625
1.5251220703125
2.0600830078125
2.0552490234375
1.4606689453125
1.545263671875
1.5299560546875
1.4058837890625
1.2705322265624999
1.1778808593749999
1.229443359375
1.3768798828125
1.4558349609374999
1.4687255859375
1.48564453125
1.5484863281249999
1.554931640625
1.5533203125
1.5839355468749998
1.5791015625
1.5750732421875
1.5597656249999998
1.5162597656249999
0.90234375
0.9418212890625
1.6072998046875
1.5218994140625
1.546875
1.64677734375
1.7233154296875
2.3638183593749997
1.851416015625
1.5597656249999998
1.558154296875
1.5396240234374998
1.5444580078124999
1.51787109375
1.522705078125
1.509814453125
1.5033691406249998
1.4864501953125
1.496923828125
1.5525146484374999
1.5750732421875
1.5315673828124998
2.102783203125
1.5090087890625
1.53720703125
1.5670166015625
1.3921875
1.3470703124999999
1.0852294921874999
1.235888671875
1.3784912109374998
1.4719482421874999
1.496923828125
1.529150390625
1.5057861328125
1.53720703125
1.542041015625
1.51787109375
1.5218994140625
1.52109375
1.5041748046874999
1.5315673828124998
1.5315673828124998
0.8870361328124999
1.6314697265625
1.585546875
1.587158203125
1.6693359374999999
1.687060546875
2.118896484375
1.89169921875
1.5750732421875
1.513037109375
1.5194824218749998
1.5243164062499999
1.56298828125
1.55009765625
1.5597656249999998
1.5364013671874999
1.5073974609374998
1.4888671875
1.496923828125
1.5460693359375
1.542041015625
2.49755859375
1.6443603515624998
1.5347900390625
1.5364013671874999
1.4244140625
1.3656005859375
1.003857421875
1.187548828125
1.284228515625
1.5114257812499998
1.5275390624999998
1.5347900390625
1.5202880859374999
1.6024658203125
1.5911865234375
1.5605712890624999
1.5170654296875
1.51787109375
1.53076171875
1.53076171875
1.53076171875
0.50595703125
1.4526123046875
1.5364013671874999
1.5492919921875
1.5919921874999998
1.6717529296875
2.228466796875
2.096337890625
1.6588623046875
1.5525146484374999
1.5122314453124999
1.4977294921875
1.56298828125
1.5364013671874999
1.5509033203125
1.4872558593749998
1.5090087890625
1.5396240234374998
1.5597656249999998
1.5476806640624998
1.5202880859374999
2.3203125
1.6218017578125
1.4767822265625
1.5331787109375
1.590380859375
1.3728515625
1.100537109375
1.2463623046874999
1.3156494140625
1.4590576171874998
1.461474609375
1.4598632812499999
1.442138671875
1.5831298828125
1.522705078125
1.5090087890625
1.5476806640624998
1.5911865234375
1.5815185546875
1.5444580078124999
1.5436523437499998
0.6751464843749999
1.456640625
1.6290527343749999
1.5275390624999998
1.56298828125
1.6572509765624999
1.7861572265624999
2.350927734375
1.65966796875
1.5557373046874998
1.5597656249999998
1.5138427734375
1.52109375
1.5355957031249998
1.533984375
1.5235107421874998
1.490478515625
1.53720703125
1.5001464843749999
1.5194824218749998
1.5331787109375
2.2663330078125
