1.6556396484375
1.64677734375
1.6475830078125
1.6443603515624998
1.6532226562499999
1.6588623046875
1.6693359374999999
1.65966796875
1.6620849609375
1.6540283203125
1.6540283203125
1.662890625
1.6693359374999999
1.670947265625
1.662890625
1.6701416015625
1.6701416015625
1.6725585937499998
1.670947265625
1.6846435546874998
1.6814208984374999
1.6894775390624999
1.6765869140624998
1.67578125
1.6781982421875
1.6798095703125
1.67578125
1.674169921875
1.67578125
1.6733642578124999
1.6653076171874999
1.670947265625
1.667724609375
1.662890625
1.6636962890625
1.6620849609375
1.6636962890625
1.667724609375
1.6572509765624999
1.6532226562499999
1.654833984375
1.6451660156249999
1.64677734375
1.6556396484375
1.6524169921874998
1.662890625
1.6540283203125
1.65966796875
1.654833984375
1.6572509765624999
1.654833984375
1.65966796875
1.65966796875
1.65966796875
1.6612792968749999
1.6645019531249998
1.6701416015625
1.670947265625
1.66611328125
1.6725585937499998
1.67900390625
1.6773925781249999
1.6886718749999998
1.6765869140624998
1.6717529296875
1.6725585937499998
1.6765869140624998
1.67578125
1.6781982421875
1.670947265625
1.674169921875
1.6749755859375
1.670947265625
1.667724609375
1.6693359374999999
1.6693359374999999
1.670947265625
1.6765869140624998
1.66611328125
1.6620849609375
1.651611328125
1.65
1.6475830078125
1.6524169921874998
1.6475830078125
1.654833984375
1.6524169921874998
1.6475830078125
1.6524169921874998
1.6572509765624999
1.6588623046875
1.65966796875
1.6588623046875
1.6620849609375
1.6685302734374998
1.66611328125
1.6669189453125
1.6693359374999999
1.6612792968749999
1.66611328125
1.6653076171874999
1.6717529296875
1.6814208984374999
1.683837890625
1.6862548828125
1.6854492187499999
1.6773925781249999
1.6645019531249998
1.6733642578124999
1.6830322265625
1.67578125
1.6798095703125
1.6620849609375
1.6733642578124999
1.667724609375
1.6685302734374998
1.6645019531249998
1.6653076171874999
1.6669189453125
1.6645019531249998
1.6604736328124998
1.66611328125
1.6620849609375
1.6532226562499999
1.6572509765624999
1.641943359375
1.6532226562499999
1.6572509765624999
1.6572509765624999
1.6524169921874998
1.65
1.6572509765624999
1.6564453124999998
1.654833984375
1.6636962890625
1.662890625
1.6645019531249998
1.6556396484375
1.6636962890625
1.6588623046875
1.6588623046875
1.6717529296875
1.6693359374999999
1.67900390625
1.6806152343749998
1.6773925781249999
1.6806152343749998
1.6822265625
1.6830322265625
1.6814208984374999
1.6830322265625
1.6604736328124998
1.6653076171874999
1.6701416015625
1.6701416015625
1.6725585937499998
1.6725585937499998
1.6725585937499998
1.667724609375
1.6693359374999999
1.66611328125
1.6645019531249998
1.6653076171874999
1.6532226562499999
1.6588623046875
1.6564453124999998
1.654833984375
1.6508056640625
1.6524169921874998
1.6564453124999998
1.6508056640625
1.6524169921874998
1.6524169921874998
1.6612792968749999
1.6532226562499999
1.6612792968749999
1.6572509765624999
1.6556396484375
1.66611328125
1.6685302734374998
1.6669189453125
1.6508056640625
1.6588623046875
1.6653076171874999
1.6725585937499998
1.6701416015625
1.6806152343749998
1.67578125
1.6806152343749998
1.6822265625
1.6822265625
1.67578125
1.6773925781249999
1.6733642578124999
1.670947265625
1.6653076171874999
1.6733642578124999
1.67578125
1.6725585937499998
1.670947265625
1.6701416015625
1.6604736328124998
1.66611328125
1.6669189453125
1.662890625
1.662890625
1.6612792968749999
1.6564453124999998
1.6524169921874998
1.65
1.6524169921874998
1.6459716796875
1.6532226562499999
1.6475830078125
1.6524169921874998
1.6612792968749999
1.651611328125
1.6540283203125
1.662890625
1.6653076171874999
1.65966796875
1.6636962890625
1.66611328125
1.65966796875
1.6612792968749999
1.6717529296875
1.6685302734374998
1.6620849609375
1.6765869140624998
1.6894775390624999
1.6935058593749999
1.67900390625
1.6701416015625
1.6765869140624998
1.6693359374999999
1.6733642578124999
1.6725585937499998
1.6717529296875
1.6717529296875
1.6749755859375
1.670947265625
1.667724609375
1.6693359374999999
1.6693359374999999
1.6717529296875
1.6685302734374998
1.6604736328124998
1.662890625
1.6540283203125
1.6604736328124998
1.6508056640625
1.65
1.6443603515624998
1.6556396484375
1.65966796875
1.654833984375
1.658056640625
1.6540283203125
1.6532226562499999
1.6588623046875
1.6604736328124998
1.662890625
1.6556396484375
1.654833984375
1.6604736328124998
1.670947265625
1.6669189453125
1.6701416015625
1.6669189453125
1.670947265625
1.6693359374999999
1.6717529296875
1.6773925781249999
1.6822265625
1.6798095703125
1.6806152343749998
1.6781982421875
1.6781982421875
1.6749755859375
1.670947265625
1.66611328125
1.6717529296875
1.6773925781249999
1.6717529296875
1.6636962890625
1.6653076171874999
1.6612792968749999
1.670947265625
1.6701416015625
1.6645019531249998
1.6475830078125
1.6524169921874998
1.654833984375
1.6588623046875
1.658056640625
1.6508056640625
1.6491943359374999
1.6540283203125
1.65966796875
1.654833984375
1.65966796875
1.6653076171874999
1.6564453124999998
1.6572509765624999
1.6475830078125
1.6572509765624999
1.662890625
1.674169921875
1.670947265625
1.6717529296875
1.65966796875
1.6693359374999999
1.6773925781249999
1.67578125
1.6830322265625
1.6862548828125
1.6685302734374998
1.6773925781249999
1.6773925781249999
1.67578125
1.6717529296875
1.6773925781249999
1.67578125
1.67900390625
1.6806152343749998
1.66611328125
1.6653076171874999
1.6685302734374998
1.662890625
1.6693359374999999
1.6636962890625
1.6717529296875
1.662890625
1.674169921875
1.6532226562499999
1.6540283203125
1.6435546875
1.64677734375
1.6371093749999999
1.6532226562499999
1.662890625
1.6604736328124998
1.6556396484375
1.6475830078125
1.6572509765624999
1.662890625
1.662890625
1.66611328125
1.6620849609375
1.6693359374999999
1.6620849609375
1.6645019531249998
1.670947265625
1.67900390625
1.670947265625
1.6765869140624998
1.6733642578124999
1.6765869140624998
1.6854492187499999
1.6806152343749998
1.6749755859375
1.67900390625
1.6765869140624998
1.674169921875
1.670947265625
1.6693359374999999
1.6733642578124999
1.670947265625
1.6636962890625
1.6717529296875
1.6645019531249998
1.66611328125
1.6669189453125
1.6540283203125
1.6564453124999998
1.6604736328124998
1.6612792968749999
1.6588623046875
1.64677734375
1.6540283203125
1.65
1.6612792968749999
1.6604736328124998
1.6588623046875
1.654833984375
1.6556396484375
1.658056640625
1.6588623046875
1.6636962890625
1.662890625
1.6556396484375
1.658056640625
1.65966796875
1.6636962890625
1.667724609375
1.6733642578124999
1.670947265625
1.6798095703125
1.6806152343749998
1.6830322265625
1.6798095703125
1.6846435546874998
1.6806152343749998
1.6765869140624998
1.674169921875
1.6701416015625
1.674169921875
1.6685302734374998
1.66611328125
1.66611328125
1.6588623046875
1.6645019531249998
1.6701416015625
1.667724609375
1.6749755859375
1.6588623046875
1.6636962890625
1.6572509765624999
1.6588623046875
1.6532226562499999
1.6435546875
1.6483886718749998
1.6540283203125
1.6532226562499999
1.651611328125
1.6556396484375
1.6564453124999998
1.6556396484375
1.658056640625
1.658056640625
1.6636962890625
1.6604736328124998
1.6612792968749999
1.6572509765624999
1.6685302734374998
1.662890625
1.667724609375
1.67578125
1.67900390625
1.67900390625
1.6806152343749998
1.6717529296875
1.667724609375
1.6749755859375
1.6822265625
1.67900390625
1.6846435546874998
1.6733642578124999
1.670947265625
1.6733642578124999
1.6725585937499998
1.662890625
1.662890625
1.6653076171874999
1.6693359374999999
1.66611328125
1.6725585937499998
1.667724609375
1.654833984375
1.6612792968749999
1.651611328125
1.6532226562499999
1.6483886718749998
1.6604736328124998
1.6443603515624998
1.6540283203125
1.6475830078125
1.6588623046875
1.6612792968749999
1.662890625
1.6645019531249998
1.6653076171874999
1.6653076171874999
1.6572509765624999
1.662890625
1.6572509765624999
1.662890625
1.662890625
1.6717529296875
1.65966796875
1.6669189453125
1.674169921875
1.6878662109375
1.6886718749999998
1.683837890625
1.6798095703125
1.6814208984374999
1.67578125
1.67578125
1.67578125
1.6749755859375
1.67578125
1.6645019531249998
1.6701416015625
1.6685302734374998
1.6653076171874999
1.6669189453125
1.6701416015625
1.6693359374999999
1.667724609375
1.6620849609375
1.6532226562499999
1.6572509765624999
1.654833984375
1.6524169921874998
1.65966796875
1.65
1.6491943359374999
1.6556396484375
1.6540283203125
1.658056640625
1.662890625
1.662890625
1.658056640625
1.65966796875
1.6620849609375
1.662890625
1.6693359374999999
1.6620849609375
1.6636962890625
1.6653076171874999
1.6693359374999999
1.674169921875
1.6765869140624998
1.67578125
1.683837890625
1.6822265625
1.67578125
1.6773925781249999
1.6725585937499998
1.67900390625
1.674169921875
1.6717529296875
1.6717529296875
1.6725585937499998
1.674169921875
1.662890625
1.6733642578124999
1.6685302734374998
1.6693359374999999
1.6725585937499998
1.6636962890625
1.6645019531249998
1.6572509765624999
1.6588623046875
1.65
1.6532226562499999
1.6451660156249999
1.6459716796875
1.6483886718749998
1.65
1.6636962890625
1.6588623046875
1.65966796875
1.6564453124999998
1.6588623046875
1.658056640625
1.65
1.6612792968749999
1.6653076171874999
1.674169921875
1.65966796875
1.6725585937499998
1.6725585937499998
1.6693359374999999
1.6781982421875
1.6822265625
1.6822265625
1.6798095703125
1.6749755859375
1.6749755859375
1.67578125
1.67578125
1.6717529296875
1.674169921875
1.6693359374999999
1.6717529296875
1.6693359374999999
1.674169921875
1.674169921875
1.6669189453125
1.6685302734374998
1.654833984375
1.6540283203125
1.658056640625
1.6693359374999999
1.6645019531249998
1.6564453124999998
1.654833984375
1.6564453124999998
1.6508056640625
1.6443603515624998
1.6403320312499998
1.651611328125
1.6540283203125
1.6588623046875
1.658056640625
1.6612792968749999
1.65966796875
1.65966796875
1.658056640625
1.6636962890625
1.674169921875
1.6701416015625
1.6612792968749999
1.6669189453125
1.6781982421875
1.6773925781249999
1.6798095703125
1.6814208984374999
1.6822265625
1.6798095703125
1.6798095703125
1.6701416015625
1.674169921875
1.674169921875
1.6725585937499998
1.67578125
1.6733642578124999
1.67578125
1.667724609375
1.6645019531249998
1.6669189453125
1.6612792968749999
1.6636962890625
1.66611328125
1.65966796875
1.6653076171874999
1.6572509765624999
1.654833984375
1.65
1.65
1.65
1.654833984375
1.6508056640625
1.6532226562499999
1.65
1.6604736328124998
1.6572509765624999
1.662890625
1.6653076171874999
1.667724609375
1.6620849609375
1.6604736328124998
1.6645019531249998
1.654833984375
1.670947265625
1.6717529296875
1.67578125
1.6749755859375
1.67578125
1.6814208984374999
1.6806152343749998
1.6725585937499998
1.683837890625
1.6717529296875
1.67578125
1.6733642578124999
1.6749755859375
1.67578125
1.6604736328124998
1.6645019531249998
1.674169921875
1.6765869140624998
1.66611328125
1.6693359374999999
1.66611328125
1.6701416015625
1.6669189453125
1.662890625
1.6524169921874998
1.6564453124999998
1.6491943359374999
1.6508056640625
1.6556396484375
1.6491943359374999
1.6564453124999998
1.6540283203125
1.6588623046875
1.6524169921874998
1.6524169921874998
1.6540283203125
1.6653076171874999
1.6604736328124998
1.6564453124999998
1.66611328125
1.6572509765624999
1.6556396484375
1.6645019531249998
1.670947265625
1.6693359374999999
1.6773925781249999
1.6765869140624998
1.683837890625
1.6798095703125
1.687060546875
1.6814208984374999
1.6773925781249999
1.6725585937499998
1.674169921875
1.6701416015625
1.674169921875
1.6701416015625
1.6733642578124999
1.6725585937499998
1.670947265625
1.66611328125
1.6612792968749999
1.6685302734374998
1.66611328125
1.658056640625
1.6564453124999998
1.658056640625
1.6653076171874999
1.6572509765624999
1.6564453124999998
1.64677734375
1.6435546875
1.6451660156249999
1.6556396484375
1.6620849609375
1.65966796875
1.6572509765624999
1.65966796875
1.658056640625
1.6604736328124998
1.6620849609375
1.6636962890625
1.6636962890625
1.6556396484375
1.6701416015625
1.6749755859375
1.6645019531249998
1.6645019531249998
1.6572509765624999
1.6725585937499998
1.69189453125
1.683837890625
1.6781982421875
1.6822265625
1.6781982421875
1.6701416015625
1.6620849609375
1.6773925781249999
1.6653076171874999
1.6749755859375
1.6693359374999999
1.6725585937499998
1.670947265625
1.6636962890625
1.662890625
1.6765869140624998
1.667724609375
1.6588623046875
1.65966796875
1.6491943359374999
1.6532226562499999
1.651611328125
1.6540283203125
1.6532226562499999
1.6572509765624999
1.6524169921874998
1.65
1.6540283203125
1.6588623046875
1.6556396484375
1.6588623046875
1.6572509765624999
1.66611328125
1.65966796875
1.6620849609375
1.6645019531249998
1.6693359374999999
1.67900390625
1.67578125
1.6773925781249999
1.6806152343749998
1.6798095703125
1.6862548828125
1.6822265625
1.6935058593749999
1.6862548828125
1.687060546875
1.6830322265625
1.6846435546874998
1.67900390625
1.67900390625
1.6798095703125
1.6749755859375
1.6822265625
1.6830322265625
1.6862548828125
1.67900390625
1.6846435546874998
1.6765869140624998
1.6701416015625
1.662890625
1.667724609375
1.6645019531249998
1.662890625
1.662890625
1.6645019531249998
1.6669189453125
1.667724609375
1.6693359374999999
1.6685302734374998
1.6693359374999999
1.6612792968749999
1.6669189453125
1.6822265625
1.6862548828125
1.6886718749999998
1.6862548828125
1.687060546875
1.6806152343749998
1.6846435546874998
1.6773925781249999
1.6830322265625
1.6846435546874998
1.6967285156249998
1.7047851562499998
1.706396484375
1.703173828125
1.6951171875
1.6975341796874999
1.69833984375
1.6967285156249998
1.6910888671875
1.6878662109375
1.6854492187499999
1.6854492187499999
1.6846435546874998
1.6725585937499998
1.6693359374999999
1.6588623046875
1.6669189453125
1.658056640625
1.658056640625
1.6403320312499998
1.65966796875
1.6532226562499999
1.6371093749999999
1.6451660156249999
1.65
1.64677734375
1.6475830078125
1.6443603515624998
1.6435546875
1.6604736328124998
1.65
1.6443603515624998
1.6411376953124999
1.6443603515624998
1.6443603515624998
1.6483886718749998
1.64677734375
1.6435546875
1.6459716796875
1.6540283203125
1.6524169921874998
1.65966796875
1.6620849609375
1.6604736328124998
1.66611328125
1.6717529296875
1.6830322265625
1.6798095703125
1.6822265625
1.6822265625
1.687060546875
1.6854492187499999
1.6991455078125
1.6886718749999998
1.687060546875
1.6765869140624998
1.6854492187499999
1.69189453125
1.6910888671875
1.687060546875
1.683837890625
1.6685302734374998
1.6717529296875
1.662890625
1.670947265625
1.6725585937499998
1.667724609375
1.65966796875
1.6588623046875
1.66611328125
1.6620849609375
1.6765869140624998
1.6725585937499998
1.6701416015625
1.6733642578124999
1.6725585937499998
1.67900390625
1.67900390625
1.6765869140624998
1.6701416015625
1.674169921875
1.674169921875
1.6773925781249999
1.6701416015625
1.6717529296875
1.67578125
1.6846435546874998
1.6749755859375
1.6781982421875
1.6854492187499999
1.6806152343749998
1.6781982421875
1.69189453125
1.6701416015625
1.67900390625
1.670947265625
1.6717529296875
1.6830322265625
1.6749755859375
1.6830322265625
1.67578125
1.6749755859375
1.6701416015625
1.6620849609375
1.6604736328124998
1.6572509765624999
1.651611328125
1.6483886718749998
1.6572509765624999
1.6564453124999998
1.6572509765624999
1.6564453124999998
1.6572509765624999
1.65966796875
1.6540283203125
1.6588623046875
1.6588623046875
1.6604736328124998
1.6669189453125
1.674169921875
1.66611328125
1.6636962890625
1.662890625
1.670947265625
1.6733642578124999
1.670947265625
1.6798095703125
1.6798095703125
1.6846435546874998
1.6773925781249999
1.67900390625
1.6854492187499999
1.6765869140624998
1.6749755859375
1.6685302734374998
1.67578125
1.683837890625
1.6781982421875
1.6725585937499998
1.6733642578124999
1.674169921875
1.6701416015625
1.6612792968749999
1.6645019531249998
1.6620849609375
1.6636962890625
1.654833984375
1.6411376953124999
1.6395263671875
1.6564453124999998
1.6532226562499999
1.6588623046875
1.6524169921874998
1.6669189453125
1.6645019531249998
1.6588623046875
1.6564453124999998
1.6645019531249998
1.6612792968749999
1.6693359374999999
1.66611328125
1.658056640625
1.6532226562499999
1.6524169921874998
1.6564453124999998
1.667724609375
1.6725585937499998
1.6765869140624998
1.6830322265625
1.6717529296875
1.687060546875
1.6854492187499999
1.6894775390624999
1.7047851562499998
1.7080078125
1.6894775390624999
1.6701416015625
1.6653076171874999
1.6604736328124998
1.6645019531249998
1.6612792968749999
1.670947265625
1.6725585937499998
1.6636962890625
1.6636962890625
1.6612792968749999
1.674169921875
1.6653076171874999
1.6556396484375
1.651611328125
1.638720703125
1.651611328125
1.6636962890625
1.6636962890625
1.670947265625
1.6636962890625
1.651611328125
1.6636962890625
1.6588623046875
1.6564453124999998
1.66611328125
1.6620849609375
1.662890625
1.6636962890625
1.65966796875
1.65966796875
1.66611328125
1.65966796875
1.662890625
1.6773925781249999
1.6822265625
1.67578125
1.6814208984374999
1.6806152343749998
1.6798095703125
1.67578125
1.6749755859375
1.67578125
1.6749755859375
1.6814208984374999
1.6717529296875
1.6693359374999999
1.6733642578124999
1.67900390625
1.6604736328124998
1.6564453124999998
1.670947265625
1.6798095703125
1.6701416015625
1.6564453124999998
1.6532226562499999
1.65
1.65966796875
1.658056640625
1.6645019531249998
1.6564453124999998
1.658056640625
1.658056640625
1.658056640625
1.65966796875
1.65966796875
1.662890625
1.6701416015625
1.6653076171874999
1.6725585937499998
1.6701416015625
1.674169921875
1.6693359374999999
1.6733642578124999
1.6814208984374999
1.6798095703125
1.6846435546874998
1.6765869140624998
1.6822265625
1.69833984375
1.6935058593749999
1.6927001953124998
1.6862548828125
1.690283203125
1.683837890625
1.690283203125
1.6935058593749999
1.6878662109375
1.6862548828125
1.6910888671875
1.683837890625
1.687060546875
1.6830322265625
1.6773925781249999
1.67578125
1.6765869140624998
1.6749755859375
1.6701416015625
1.670947265625
1.66611328125
1.6701416015625
1.662890625
1.6620849609375
1.6645019531249998
1.6693359374999999
1.6733642578124999
1.674169921875
1.6749755859375
1.6701416015625
1.667724609375
1.66611328125
1.667724609375
1.6733642578124999
1.6693359374999999
1.6725585937499998
1.6685302734374998
1.6765869140624998
1.6733642578124999
1.6798095703125
1.6910888671875
1.6822265625
1.6862548828125
1.687060546875
1.687060546875
1.6822265625
1.687060546875
1.6765869140624998
1.6773925781249999
1.6814208984374999
1.6830322265625
1.6781982421875
1.674169921875
1.6798095703125
1.6669189453125
1.66611328125
1.67578125
1.6701416015625
1.67578125
1.6701416015625
1.667724609375
1.6669189453125
1.6685302734374998
1.65966796875
1.6532226562499999
1.6604736328124998
1.6604736328124998
1.6636962890625
1.6645019531249998
1.66611328125
1.6604736328124998
1.6612792968749999
1.6685302734374998
1.6693359374999999
1.674169921875
1.667724609375
1.67578125
1.6669189453125
1.6765869140624998
1.6773925781249999
1.6781982421875
1.6693359374999999
1.67900390625
1.6822265625
1.6894775390624999
1.690283203125
1.690283203125
1.6854492187499999
1.67578125
1.6765869140624998
1.674169921875
1.6781982421875
1.6749755859375
1.674169921875
1.6822265625
1.6878662109375
1.6967285156249998
1.6862548828125
1.6806152343749998
1.7055908203124999
1.69189453125
1.6830322265625
1.6798095703125
1.67900390625
1.670947265625
1.65966796875
1.6556396484375
1.6564453124999998
1.6532226562499999
1.6564453124999998
1.658056640625
1.6612792968749999
1.658056640625
1.6604736328124998
1.6701416015625
1.674169921875
1.66611328125
1.662890625
1.6669189453125
1.674169921875
1.6636962890625
1.67578125
1.6733642578124999
1.67578125
1.6798095703125
1.6773925781249999
1.6822265625
1.6814208984374999
1.6886718749999998
1.683837890625
1.6733642578124999
1.6822265625
1.6781982421875
1.6725585937499998
1.6765869140624998
1.67578125
1.6854492187499999
1.6822265625
1.66611328125
1.6669189453125
1.6653076171874999
1.670947265625
1.67578125
1.6693359374999999
1.6588623046875
1.65966796875
1.651611328125
1.65966796875
1.6483886718749998
1.6620849609375
1.662890625
1.651611328125
1.6572509765624999
1.651611328125
1.6612792968749999
1.6806152343749998
1.6822265625
1.6798095703125
1.6725585937499998
1.6959228515625
1.69833984375
1.6798095703125
1.6612792968749999
1.6588623046875
1.6669189453125
1.674169921875
1.667724609375
1.670947265625
1.6830322265625
1.67578125
1.6814208984374999
1.690283203125
1.6822265625
1.6781982421875
1.6806152343749998
1.6830322265625
1.6765869140624998
1.6830322265625
1.6967285156249998
1.69833984375
1.6830322265625
1.67578125
1.670947265625
1.6572509765624999
1.6524169921874998
1.66611328125
1.6653076171874999
1.6693359374999999
1.6564453124999998
1.6572509765624999
1.65
1.6572509765624999
1.65966796875
1.654833984375
1.658056640625
1.6636962890625
1.6612792968749999
1.65966796875
1.6645019531249998
1.6725585937499998
1.6685302734374998
1.6781982421875
1.6765869140624998
1.6725585937499998
1.6653076171874999
1.6612792968749999
1.6653076171874999
1.674169921875
1.6773925781249999
1.6894775390624999
1.687060546875
1.6846435546874998
1.6822265625
1.687060546875
1.6773925781249999
1.6806152343749998
1.6717529296875
1.6854492187499999
1.67900390625
1.67900390625
1.6806152343749998
1.6854492187499999
1.6781982421875
1.6798095703125
1.6798095703125
1.6645019531249998
1.674169921875
1.667724609375
1.6669189453125
1.6540283203125
1.6588623046875
1.6604736328124998
1.6620849609375
1.6508056640625
1.654833984375
1.6540283203125
1.662890625
1.670947265625
1.6685302734374998
1.667724609375
1.65966796875
1.6645019531249998
1.670947265625
1.662890625
1.6612792968749999
1.674169921875
1.6685302734374998
1.6701416015625
1.6806152343749998
1.67900390625
1.674169921875
1.6862548828125
1.6862548828125
1.6894775390624999
1.683837890625
1.6854492187499999
1.6910888671875
1.6822265625
1.6781982421875
1.67578125
1.6773925781249999
1.674169921875
1.6798095703125
1.67578125
1.6773925781249999
1.6693359374999999
1.6806152343749998
1.6765869140624998
1.6765869140624998
1.6846435546874998
1.667724609375
1.6733642578124999
1.6733642578124999
1.6524169921874998
1.6451660156249999
1.6435546875
1.65966796875
1.6612792968749999
1.6653076171874999
1.662890625
1.6645019531249998
1.6645019531249998
1.667724609375
1.662890625
1.6693359374999999
1.6717529296875
1.6733642578124999
1.6653076171874999
1.6685302734374998
1.6669189453125
1.674169921875
1.6725585937499998
1.6773925781249999
1.687060546875
1.6830322265625
1.6862548828125
1.6854492187499999
1.6878662109375
1.6846435546874998
1.6878662109375
1.6822265625
1.674169921875
1.674169921875
1.6725585937499998
1.67578125
1.6733642578124999
1.6814208984374999
1.6959228515625
1.6717529296875
1.6653076171874999
1.6612792968749999
1.6645019531249998
1.66611328125
1.6669189453125
1.670947265625
1.6588623046875
1.658056640625
1.658056640625
1.654833984375
1.6532226562499999
1.654833984375
1.67900390625
1.670947265625
1.6717529296875
1.66611328125
1.65966796875
1.6572509765624999
1.662890625
1.670947265625
1.6798095703125
1.6822265625
1.6765869140624998
1.6733642578124999
1.6701416015625
1.6781982421875
1.6798095703125
1.6830322265625
1.6894775390624999
1.6806152343749998
1.69189453125
1.6854492187499999
1.6894775390624999
1.6854492187499999
1.6814208984374999
1.6854492187499999
1.6765869140624998
1.6781982421875
1.6765869140624998
1.67578125
1.6733642578124999
1.6725585937499998
1.6749755859375
1.6773925781249999
1.654833984375
1.65966796875
1.6717529296875
1.67578125
1.6725585937499998
1.6645019531249998
1.6620849609375
1.6524169921874998
1.6508056640625
1.6459716796875
1.6669189453125
1.65966796875
1.6636962890625
1.6701416015625
1.6612792968749999
1.6725585937499998
1.670947265625
1.6693359374999999
1.6669189453125
1.6685302734374998
1.6693359374999999
1.674169921875
1.6781982421875
1.6781982421875
1.6765869140624998
1.6846435546874998
1.6862548828125
1.6910888671875
1.687060546875
1.67578125
1.6822265625
1.6822265625
1.6781982421875
1.6798095703125
1.6798095703125
1.6814208984374999
1.67578125
1.6830322265625
1.667724609375
1.6725585937499998
1.6701416015625
1.6798095703125
1.66611328125
1.6669189453125
1.667724609375
1.6669189453125
1.6564453124999998
1.6612792968749999
1.658056640625
1.6475830078125
1.658056640625
1.66611328125
1.6604736328124998
1.6669189453125
1.6564453124999998
1.6540283203125
1.6725585937499998
1.6749755859375
1.667724609375
1.6483886718749998
1.654833984375
1.6645019531249998
1.67578125
1.6806152343749998
1.67578125
1.6765869140624998
1.6765869140624998
1.6806152343749998
1.683837890625
1.6935058593749999
1.6935058593749999
1.687060546875
1.67578125
1.6814208984374999
1.6765869140624998
1.6814208984374999
1.6781982421875
1.67900390625
1.6773925781249999
1.6781982421875
1.6701416015625
1.6693359374999999
1.6636962890625
1.6781982421875
1.670947265625
1.6612792968749999
1.6604736328124998
1.6556396484375
1.658056640625
1.654833984375
1.6435546875
1.651611328125
1.658056640625
1.670947265625
1.6693359374999999
1.6773925781249999
1.6773925781249999
1.670947265625
1.67578125
1.6765869140624998
1.687060546875
1.6910888671875
1.687060546875
1.6749755859375
1.6612792968749999
1.6717529296875
1.6749755859375
1.670947265625
1.683837890625
1.6822265625
1.6894775390624999
1.6910888671875
1.69189453125
1.6822265625
1.6830322265625
1.6822265625
1.6959228515625
1.6935058593749999
1.67578125
1.6773925781249999
1.67900390625
1.6854492187499999
1.6830322265625
1.6886718749999998
1.6894775390624999
1.6806152343749998
1.674169921875
1.6765869140624998
1.6636962890625
1.6653076171874999
1.658056640625
1.66611328125
1.6725585937499998
1.6588623046875
1.6475830078125
1.6540283203125
1.670947265625
1.670947265625
1.667724609375
1.66611328125
1.667724609375
1.667724609375
1.6701416015625
1.6717529296875
1.670947265625
1.6830322265625
1.67578125
1.67578125
1.67900390625
1.67900390625
1.6773925781249999
1.6781982421875
1.6830322265625
1.6943115234375
1.6959228515625
1.6910888671875
1.6927001953124998
1.69189453125
1.6935058593749999
1.6773925781249999
1.6798095703125
1.6749755859375
1.67900390625
1.6846435546874998
1.6773925781249999
1.6669189453125
1.6685302734374998
1.6725585937499998
1.667724609375
1.670947265625
1.6717529296875
1.6749755859375
1.6620849609375
1.6653076171874999
1.6588623046875
1.6693359374999999
1.6693359374999999
1.6725585937499998
1.67578125
1.6645019531249998
1.6733642578124999
1.651611328125
1.6636962890625
1.66611328125
1.662890625
1.6765869140624998
1.6773925781249999
1.6701416015625
1.6588623046875
1.6701416015625
1.6814208984374999
1.6781982421875
1.690283203125
1.6927001953124998
1.6910888671875
1.6894775390624999
1.6991455078125
1.6910888671875
1.6846435546874998
1.6765869140624998
1.6798095703125
1.6773925781249999
1.683837890625
1.6910888671875
1.6927001953124998
1.6781982421875
1.67900390625
1.674169921875
1.6749755859375
1.6814208984374999
1.67900390625
1.6685302734374998
1.670947265625
1.670947265625
1.6693359374999999
1.651611328125
1.6556396484375
1.6717529296875
1.6685302734374998
1.670947265625
1.6612792968749999
1.6564453124999998
1.667724609375
1.66611328125
1.6653076171874999
1.67900390625
1.6725585937499998
1.6701416015625
1.6717529296875
1.6798095703125
1.6717529296875
1.6701416015625
1.6733642578124999
1.6798095703125
1.690283203125
1.69189453125
1.690283203125
1.674169921875
1.687060546875
1.6975341796874999
1.6991455078125
1.6878662109375
1.6862548828125
1.6806152343749998
1.6773925781249999
1.6806152343749998
1.67578125
1.6693359374999999
1.6693359374999999
1.6733642578124999
1.6645019531249998
1.6572509765624999
1.6588623046875
1.6508056640625
1.6645019531249998
1.6588623046875
1.6508056640625
1.6564453124999998
1.6508056640625
1.6693359374999999
1.6636962890625
1.66611328125
1.6717529296875
1.6653076171874999
1.6540283203125
1.658056640625
1.6532226562499999
1.6604736328124998
1.6733642578124999
1.6830322265625
1.670947265625
1.6669189453125
1.6693359374999999
1.674169921875
1.6830322265625
1.6733642578124999
1.6765869140624998
1.6749755859375
1.6749755859375
1.6765869140624998
1.6773925781249999
1.683837890625
1.69189453125
1.687060546875
1.6862548828125
1.6701416015625
1.6765869140624998
1.6725585937499998
1.6806152343749998
1.6830322265625
1.6822265625
1.674169921875
1.6701416015625
1.66611328125
1.6693359374999999
1.6653076171874999
1.6701416015625
1.6693359374999999
1.662890625
1.6604736328124998
1.6564453124999998
1.6532226562499999
1.654833984375
1.6604736328124998
1.65966796875
1.6645019531249998
1.658056640625
1.662890625
1.6620849609375
1.6636962890625
1.6733642578124999
1.6773925781249999
1.65966796875
1.662890625
1.6749755859375
1.6733642578124999
1.6645019531249998
1.6669189453125
1.6725585937499998
1.6717529296875
1.6773925781249999
1.6894775390624999
1.6830322265625
1.6814208984374999
1.67900390625
1.6854492187499999
1.6814208984374999
1.674169921875
1.6781982421875
1.674169921875
1.6733642578124999
1.670947265625
1.6798095703125
1.6717529296875
1.67578125
1.6814208984374999
1.683837890625
1.6693359374999999
1.66611328125
1.6604736328124998
1.6612792968749999
1.6556396484375
1.6653076171874999
1.6620849609375
1.65966796875
1.6491943359374999
1.6556396484375
1.6532226562499999
1.651611328125
1.6564453124999998
1.6645019531249998
1.6653076171874999
1.6685302734374998
1.6773925781249999
1.667724609375
1.667724609375
1.6653076171874999
1.662890625
1.667724609375
1.6733642578124999
1.6717529296875
1.6725585937499998
1.670947265625
1.6854492187499999
1.6806152343749998
1.687060546875
1.69189453125
1.6749755859375
1.670947265625
1.6645019531249998
1.6773925781249999
1.6830322265625
1.6822265625
1.674169921875
1.66611328125
1.6636962890625
1.674169921875
1.6669189453125
1.66611328125
1.6653076171874999
1.65966796875
1.6572509765624999
1.6540283203125
1.658056640625
1.65
1.658056640625
1.6435546875
1.6435546875
1.6524169921874998
1.651611328125
1.6612792968749999
1.6564453124999998
1.6572509765624999
1.6588623046875
1.6645019531249998
1.6564453124999998
1.6451660156249999
1.6725585937499998
1.7047851562499998
1.690283203125
1.6669189453125
1.6685302734374998
1.6725585937499998
1.6733642578124999
1.674169921875
1.6773925781249999
1.67900390625
1.6806152343749998
1.6693359374999999
1.6636962890625
1.670947265625
1.6798095703125
1.6806152343749998
1.6733642578124999
1.6798095703125
1.6822265625
1.6765869140624998
1.6653076171874999
1.667724609375
1.66611328125
1.658056640625
1.667724609375
1.6604736328124998
1.662890625
1.654833984375
1.6564453124999998
1.6564453124999998
1.658056640625
1.6483886718749998
1.6435546875
1.6459716796875
1.6604736328124998
1.6564453124999998
1.65966796875
1.6701416015625
1.6612792968749999
1.6532226562499999
1.662890625
1.662890625
1.6773925781249999
1.6669189453125
1.6685302734374998
1.6685302734374998
1.6717529296875
1.670947265625
1.6717529296875
1.67578125
1.6822265625
1.687060546875
1.6822265625
1.6862548828125
1.6927001953124998
1.6894775390624999
1.6846435546874998
1.6830322265625
1.6894775390624999
1.6910888671875
1.6846435546874998
1.6798095703125
1.6830322265625
1.6814208984374999
1.6814208984374999
1.6773925781249999
1.670947265625
1.6725585937499998
1.67900390625
1.67578125
1.667724609375
1.6612792968749999
1.6636962890625
1.65966796875
1.651611328125
1.658056640625
1.66611328125
1.66611328125
1.65966796875
1.6612792968749999
1.6636962890625
1.6717529296875
1.6717529296875
1.6612792968749999
1.658056640625
1.6475830078125
1.6572509765624999
1.6564453124999998
1.6612792968749999
1.658056640625
1.654833984375
1.667724609375
1.6701416015625
1.6725585937499998
1.67900390625
1.67578125
1.6693359374999999
1.6669189453125
1.67578125
1.6693359374999999
1.6717529296875
1.6701416015625
1.6693359374999999
1.6685302734374998
1.6693359374999999
1.670947265625
1.66611328125
1.6669189453125
1.6701416015625
1.6669189453125
1.6612792968749999
1.6540283203125
1.6588623046875
1.6532226562499999
1.6540283203125
1.651611328125
1.65
1.65966796875
1.6540283203125
1.654833984375
1.6524169921874998
1.6636962890625
1.6508056640625
1.658056640625
1.6564453124999998
1.6572509765624999
1.6612792968749999
1.667724609375
1.6701416015625
1.6645019531249998
1.67900390625
1.67578125
1.6645019531249998
1.6725585937499998
1.67900390625
1.6814208984374999
1.6725585937499998
1.674169921875
1.67578125
1.6773925781249999
1.687060546875
1.683837890625
1.67578125
1.67578125
1.6717529296875
1.6701416015625
1.6620849609375
1.66611328125
1.662890625
1.66611328125
1.6749755859375
1.6645019531249998
1.662890625
1.65966796875
1.6604736328124998
1.658056640625
1.65
1.6475830078125
1.6532226562499999
1.6532226562499999
1.65
1.6459716796875
1.65966796875
1.662890625
1.65966796875
1.6612792968749999
1.6669189453125
1.6604736328124998
1.6612792968749999
1.662890625
1.6604736328124998
1.6612792968749999
1.6693359374999999
1.6717529296875
1.6765869140624998
1.6773925781249999
1.6765869140624998
1.6814208984374999
1.67900390625
1.67900390625
1.674169921875
1.6773925781249999
1.6765869140624998
1.6749755859375
1.6733642578124999
1.670947265625
1.6725585937499998
1.6773925781249999
1.674169921875
1.6620849609375
1.6604736328124998
1.66611328125
1.6749755859375
1.670947265625
1.674169921875
1.6588623046875
1.6564453124999998
1.6508056640625
1.6443603515624998
1.6475830078125
1.6540283203125
1.6403320312499998
1.654833984375
1.6564453124999998
1.6669189453125
1.658056640625
1.6604736328124998
1.6645019531249998
1.6765869140624998
1.6620849609375
1.6532226562499999
1.6459716796875
1.658056640625
1.6604736328124998
1.667724609375
1.6765869140624998
1.6798095703125
1.6733642578124999
1.6798095703125
1.683837890625
1.6822265625
1.6765869140624998
1.674169921875
1.674169921875
1.6653076171874999
1.6717529296875
1.6773925781249999
1.6781982421875
1.67578125
1.6749755859375
1.6701416015625
1.658056640625
1.667724609375
1.667724609375
1.6733642578124999
1.667724609375
1.65966796875
1.6532226562499999
1.6620849609375
1.658056640625
1.6491943359374999
1.6572509765624999
1.6612792968749999
1.6572509765624999
1.662890625
1.6604736328124998
1.641943359375
1.64677734375
1.6588623046875
1.66611328125
1.66611328125
1.662890625
1.6532226562499999
1.6604736328124998
1.6645019531249998
1.662890625
1.6636962890625
1.6693359374999999
1.67578125
1.6806152343749998
1.67578125
1.6862548828125
1.690283203125
1.6773925781249999
1.6773925781249999
1.6773925781249999
1.6830322265625
1.6798095703125
1.6773925781249999
1.667724609375
1.65966796875
1.687060546875
1.690283203125
1.6894775390624999
1.66611328125
1.6532226562499999
1.6612792968749999
1.6588623046875
1.6604736328124998
1.658056640625
1.65
1.6524169921874998
1.6475830078125
1.6572509765624999
1.6564453124999998
1.65
1.6540283203125
1.6540283203125
1.654833984375
1.6564453124999998
1.6564453124999998
1.658056640625
1.6645019531249998
1.6636962890625
1.6620849609375
1.6669189453125
1.667724609375
1.6620849609375
1.6645019531249998
1.6693359374999999
1.667724609375
1.66611328125
1.6822265625
1.6814208984374999
1.6822265625
1.6814208984374999
1.6854492187499999
1.683837890625
1.674169921875
1.6749755859375
1.6685302734374998
1.6725585937499998
1.6701416015625
1.6645019531249998
1.6725585937499998
1.66611328125
1.662890625
1.6636962890625
1.6645019531249998
1.6685302734374998
1.670947265625
1.6725585937499998
1.6532226562499999
1.6524169921874998
1.651611328125
1.6556396484375
1.6524169921874998
1.6564453124999998
1.6491943359374999
1.654833984375
1.6564453124999998
1.658056640625
1.654833984375
1.6564453124999998
1.65966796875
1.662890625
1.6620849609375
1.6636962890625
1.662890625
1.654833984375
1.6653076171874999
1.6685302734374998
1.67578125
1.6781982421875
1.6765869140624998
1.6798095703125
1.6830322265625
1.6846435546874998
1.6878662109375
1.6701416015625
1.6669189453125
1.674169921875
1.6685302734374998
1.667724609375
1.6822265625
1.6725585937499998
1.6749755859375
1.6669189453125
1.6693359374999999
1.6717529296875
1.6669189453125
1.6669189453125
1.65966796875
1.6588623046875
1.654833984375
1.64677734375
1.65966796875
1.6636962890625
1.6564453124999998
1.6483886718749998
1.6435546875
1.6524169921874998
1.6653076171874999
1.6620849609375
1.65966796875
1.662890625
1.65
1.6620849609375
1.6572509765624999
1.6612792968749999
1.6612792968749999
1.66611328125
1.667724609375
1.6781982421875
1.67900390625
1.674169921875
1.67578125
1.67578125
1.6781982421875
1.6733642578124999
1.6725585937499998
1.6717529296875
1.67578125
1.6773925781249999
1.6886718749999998
1.6781982421875
1.6781982421875
1.6669189453125
1.6701416015625
1.6717529296875
1.6685302734374998
1.66611328125
1.6612792968749999
1.67578125
1.6685302734374998
1.6685302734374998
1.6669189453125
1.65
1.6427490234375
1.6532226562499999
1.662890625
1.6564453124999998
1.6556396484375
1.651611328125
1.6427490234375
1.6564453124999998
1.6612792968749999
1.6612792968749999
1.6620849609375
1.6564453124999998
1.6556396484375
1.6612792968749999
1.6749755859375
1.670947265625
1.658056640625
1.6645019531249998
1.6717529296875
1.670947265625
1.6733642578124999
1.6846435546874998
1.6878662109375
1.6854492187499999
1.674169921875
1.6814208984374999
1.67900390625
1.6693359374999999
1.6693359374999999
1.6733642578124999
1.6749755859375
1.6693359374999999
1.6749755859375
1.6733642578124999
1.6669189453125
1.6693359374999999
1.6701416015625
1.6717529296875
1.6604736328124998
1.6612792968749999
1.6612792968749999
1.658056640625
1.6564453124999998
1.6524169921874998
1.6564453124999998
1.6508056640625
1.6604736328124998
1.65966796875
1.6508056640625
1.6612792968749999
1.658056640625
1.658056640625
1.6564453124999998
1.658056640625
1.6604736328124998
1.6653076171874999
1.6620849609375
1.6645019531249998
1.6693359374999999
1.6685302734374998
1.670947265625
1.6669189453125
1.6693359374999999
1.6773925781249999
1.687060546875
1.6878662109375
1.674169921875
1.6814208984374999
1.67900390625
1.674169921875
1.6773925781249999
1.670947265625
1.66611328125
1.6653076171874999
1.6717529296875
1.6749755859375
1.6773925781249999
1.6725585937499998
1.6693359374999999
1.6645019531249998
1.66611328125
1.66611328125
1.6524169921874998
1.6459716796875
1.6588623046875
1.64677734375
1.6524169921874998
1.65966796875
1.6636962890625
1.6540283203125
1.6475830078125
1.658056640625
1.6645019531249998
1.6588623046875
1.6588623046875
1.65966796875
1.6620849609375
1.6620849609375
1.6701416015625
1.6669189453125
1.65966796875
1.6588623046875
1.6717529296875
1.6669189453125
1.66611328125
1.6765869140624998
1.683837890625
1.6910888671875
1.6830322265625
1.6749755859375
1.6733642578124999
1.674169921875
1.6822265625
1.6862548828125
1.6717529296875
1.674169921875
1.6701416015625
1.667724609375
1.6749755859375
1.6645019531249998
1.6733642578124999
1.670947265625
1.6645019531249998
1.65966796875
1.6532226562499999
1.6564453124999998
1.6540283203125
1.654833984375
1.6604736328124998
1.6572509765624999
1.6483886718749998
1.6556396484375
1.65
1.6669189453125
1.6532226562499999
1.6588623046875
1.6653076171874999
1.65966796875
1.6556396484375
1.66611328125
1.6540283203125
1.6524169921874998
1.6588623046875
1.667724609375
1.6773925781249999
1.6701416015625
1.6878662109375
1.6862548828125
1.66611328125
1.6733642578124999
1.6806152343749998
1.6830322265625
1.67900390625
1.6733642578124999
1.6733642578124999
1.670947265625
1.6798095703125
1.683837890625
1.6693359374999999
1.6572509765624999
1.6612792968749999
1.66611328125
1.6717529296875
1.674169921875
1.6669189453125
1.6645019531249998
1.6620849609375
1.65966796875
1.6572509765624999
1.651611328125
1.6451660156249999
1.6564453124999998
1.6556396484375
1.6483886718749998
1.6427490234375
1.6475830078125
1.66611328125
1.6653076171874999
1.6620849609375
1.6572509765624999
1.662890625
1.6620849609375
1.658056640625
1.65966796875
1.6564453124999998
1.66611328125
1.6693359374999999
1.6749755859375
1.6773925781249999
1.670947265625
1.67578125
1.6854492187499999
1.6765869140624998
1.6806152343749998
1.6749755859375
1.6798095703125
1.6822265625
1.6773925781249999
1.6781982421875
1.6693359374999999
1.67578125
1.6717529296875
1.6685302734374998
1.6653076171874999
1.6685302734374998
1.6612792968749999
1.6685302734374998
1.662890625
1.6701416015625
1.6604736328124998
1.65966796875
1.654833984375
1.6483886718749998
1.6475830078125
1.6403320312499998
1.6532226562499999
1.6508056640625
1.6556396484375
1.662890625
1.6532226562499999
1.6508056640625
1.6524169921874998
1.65966796875
1.6653076171874999
1.6645019531249998
1.6604736328124998
1.6636962890625
1.6765869140624998
1.6717529296875
1.667724609375
1.6749755859375
1.6806152343749998
1.6773925781249999
1.6822265625
1.6669189453125
1.6645019531249998
1.6725585937499998
1.6814208984374999
1.683837890625
1.670947265625
1.6725585937499998
1.6725585937499998
1.6781982421875
1.6725585937499998
1.6725585937499998
1.6749755859375
1.674169921875
1.6645019531249998
1.6669189453125
1.6612792968749999
1.658056640625
1.654833984375
1.658056640625
1.654833984375
1.654833984375
1.65
1.6451660156249999
1.6540283203125
1.651611328125
1.6612792968749999
1.654833984375
1.6588623046875
1.6612792968749999
1.6612792968749999
1.6653076171874999
1.670947265625
1.6701416015625
1.6564453124999998
1.6588623046875
1.6653076171874999
1.66611328125
1.6693359374999999
1.6693359374999999
1.6773925781249999
1.6733642578124999
1.6830322265625
1.6798095703125
1.6733642578124999
1.67578125
1.6822265625
1.6781982421875
1.6701416015625
1.6733642578124999
1.6749755859375
1.6669189453125
1.6717529296875
1.6717529296875
1.6701416015625
1.6604736328124998
1.6636962890625
1.6653076171874999
1.6645019531249998
1.6749755859375
1.658056640625
1.6717529296875
1.6556396484375
1.6475830078125
1.6508056640625
1.6443603515624998
1.65
1.6443603515624998
1.6427490234375
1.6435546875
1.667724609375
1.67578125
1.67578125
1.6645019531249998
1.6540283203125
1.6620849609375
1.6604736328124998
1.66611328125
1.6540283203125
1.658056640625
1.6669189453125
1.6669189453125
1.674169921875
1.6733642578124999
1.6806152343749998
1.6830322265625
1.6943115234375
1.690283203125
1.6822265625
1.674169921875
1.6733642578124999
1.66611328125
1.6693359374999999
1.6693359374999999
1.667724609375
1.6717529296875
1.6669189453125
1.670947265625
1.6620849609375
1.6636962890625
1.6653076171874999
1.6669189453125
1.6773925781249999
1.6620849609375
1.6435546875
1.641943359375
1.6508056640625
1.64677734375
1.658056640625
1.6508056640625
1.654833984375
1.6540283203125
1.6508056640625
1.6483886718749998
1.66611328125
1.6612792968749999
1.6572509765624999
1.6572509765624999
1.662890625
1.6475830078125
1.6645019531249998
1.670947265625
1.674169921875
1.667724609375
1.6733642578124999
1.6765869140624998
1.6798095703125
1.674169921875
1.6878662109375
1.69189453125
1.6822265625
1.6685302734374998
1.667724609375
1.6669189453125
1.6717529296875
1.667724609375
1.6636962890625
1.662890625
1.6773925781249999
1.6685302734374998
1.667724609375
1.65966796875
1.6636962890625
1.6645019531249998
1.667724609375
1.6524169921874998
1.654833984375
1.6572509765624999
1.6572509765624999
1.651611328125
1.64677734375
1.6483886718749998
1.6451660156249999
1.6451660156249999
1.6540283203125
1.6556396484375
1.6588623046875
1.6540283203125
1.658056640625
1.6781982421875
1.6806152343749998
1.6717529296875
1.6645019531249998
1.658056640625
1.6572509765624999
1.66611328125
1.6733642578124999
1.6701416015625
1.6765869140624998
1.6765869140624998
1.6717529296875
1.6725585937499998
1.674169921875
1.674169921875
1.6822265625
1.6814208984374999
1.6846435546874998
1.6846435546874998
1.6636962890625
1.6604736328124998
1.667724609375
1.6685302734374998
1.65966796875
1.662890625
1.6693359374999999
1.667724609375
1.6645019531249998
1.65966796875
1.654833984375
1.6572509765624999
1.651611328125
1.6508056640625
1.6451660156249999
1.6524169921874998
1.6564453124999998
1.6645019531249998
1.6604736328124998
1.6540283203125
1.6524169921874998
1.65966796875
1.6588623046875
1.6540283203125
1.667724609375
1.662890625
1.6572509765624999
1.6693359374999999
1.6717529296875
1.66611328125
1.674169921875
1.67900390625
1.67578125
1.6806152343749998
1.674169921875
1.6717529296875
1.670947265625
1.67900390625
1.6862548828125
1.674169921875
1.6717529296875
1.6733642578124999
1.67578125
1.6846435546874998
1.667724609375
1.6604736328124998
1.674169921875
1.66611328125
1.6636962890625
1.6556396484375
1.65
1.651611328125
1.6620849609375
1.6564453124999998
1.6532226562499999
1.662890625
1.6588623046875
1.6451660156249999
1.6451660156249999
1.6427490234375
1.6540283203125
1.6653076171874999
1.6564453124999998
1.658056640625
1.6572509765624999
1.6556396484375
1.6604736328124998
1.6604736328124998
1.66611328125
1.6669189453125
1.6693359374999999
1.6781982421875
1.6781982421875
1.6781982421875
1.670947265625
1.674169921875
1.6806152343749998
1.6846435546874998
1.6765869140624998
1.6669189453125
1.6733642578124999
1.67578125
1.6854492187499999
1.6781982421875
1.6733642578124999
1.6604736328124998
1.6612792968749999
1.6572509765624999
1.65966796875
1.658056640625
1.6717529296875
1.6725585937499998
1.6725585937499998
1.6733642578124999
1.6749755859375
1.6435546875
1.6435546875
1.6459716796875
1.6435546875
1.64677734375
1.6371093749999999
1.6508056640625
1.6588623046875
1.6612792968749999
1.65966796875
1.662890625
1.658056640625
1.658056640625
1.662890625
1.6564453124999998
1.6669189453125
1.662890625
1.67578125
1.6717529296875
1.6645019531249998
1.6725585937499998
1.6725585937499998
1.69189453125
1.6773925781249999
1.683837890625
1.6822265625
1.6669189453125
1.6693359374999999
1.6717529296875
1.6773925781249999
1.674169921875
1.6701416015625
1.6669189453125
1.6717529296875
1.66611328125
1.662890625
1.66611328125
1.6636962890625
1.6540283203125
1.6604736328124998
1.6524169921874998
1.6435546875
1.654833984375
1.6653076171874999
1.6717529296875
1.6564453124999998
1.638720703125
1.6540283203125
1.658056640625
1.65966796875
1.6685302734374998
1.6653076171874999
1.658056640625
1.64677734375
1.654833984375
1.6620849609375
1.662890625
1.66611328125
1.6588623046875
1.654833984375
1.662890625
1.66611328125
1.6798095703125
1.6854492187499999
1.6862548828125
1.6886718749999998
1.6798095703125
1.6725585937499998
1.6669189453125
1.6773925781249999
1.674169921875
1.6725585937499998
1.6773925781249999
1.66611328125
1.6701416015625
1.6701416015625
1.6653076171874999
1.6685302734374998
1.66611328125
1.670947265625
1.6653076171874999
1.6636962890625
1.658056640625
1.6564453124999998
1.65
1.6427490234375
1.64677734375
1.6588623046875
1.6564453124999998
1.6524169921874998
1.6532226562499999
1.6572509765624999
1.64677734375
1.6524169921874998
1.6556396484375
1.6588623046875
1.65966796875
1.66611328125
1.6733642578124999
1.67578125
1.667724609375
1.6620849609375
1.651611328125
1.662890625
1.6636962890625
1.67900390625
1.6806152343749998
1.6967285156249998
1.6967285156249998
1.6878662109375
1.6814208984374999
1.6693359374999999
1.6701416015625
1.6693359374999999
1.667724609375
1.6701416015625
1.6749755859375
1.6693359374999999
1.66611328125
1.66611328125
1.6604736328124998
1.667724609375
1.66611328125
1.670947265625
1.65966796875
1.658056640625
1.6451660156249999
1.6459716796875
1.6459716796875
1.6475830078125
1.654833984375
1.6645019531249998
1.65966796875
1.6524169921874998
1.6564453124999998
1.6604736328124998
1.66611328125
1.6540283203125
1.651611328125
1.6540283203125
1.6669189453125
1.66611328125
1.6604736328124998
1.658056640625
1.6620849609375
1.6653076171874999
1.6749755859375
1.674169921875
1.6781982421875
1.6773925781249999
1.6733642578124999
1.6701416015625
1.6636962890625
1.6830322265625
1.6773925781249999
1.6733642578124999
1.670947265625
1.667724609375
1.6653076171874999
1.6653076171874999
1.6604736328124998
1.66611328125
1.662890625
1.6645019531249998
1.6612792968749999
1.662890625
1.654833984375
1.6572509765624999
1.6524169921874998
1.6451660156249999
1.6443603515624998
1.6483886718749998
1.65
1.6451660156249999
1.6435546875
1.6532226562499999
1.654833984375
1.6653076171874999
1.6564453124999998
1.6346923828125
1.641943359375
1.6653076171874999
1.6822265625
1.6645019531249998
1.6645019531249998
1.6556396484375
1.6491943359374999
1.654833984375
1.662890625
1.67900390625
1.6749755859375
1.6806152343749998
1.6773925781249999
1.670947265625
1.6725585937499998
1.6773925781249999
1.6693359374999999
1.6693359374999999
1.6645019531249998
1.66611328125
1.6717529296875
1.6669189453125
1.6685302734374998
1.658056640625
1.6588623046875
1.662890625
1.6564453124999998
1.662890625
1.662890625
1.6483886718749998
1.6459716796875
1.6427490234375
1.6475830078125
1.6532226562499999
1.654833984375
1.6508056640625
1.6556396484375
1.6451660156249999
1.6532226562499999
1.651611328125
1.6572509765624999
1.658056640625
1.662890625
1.6620849609375
1.658056640625
1.6636962890625
1.66611328125
1.6572509765624999
1.667724609375
1.6749755859375
1.67578125
1.6822265625
1.6846435546874998
1.683837890625
1.6854492187499999
1.6878662109375
1.6910888671875
1.6862548828125
1.6854492187499999
1.687060546875
1.6862548828125
1.6854492187499999
1.6894775390624999
1.687060546875
1.687060546875
1.6781982421875
1.67900390625
1.6854492187499999
1.6765869140624998
1.6773925781249999
1.6822265625
1.6725585937499998
1.6604736328124998
1.6685302734374998
1.6773925781249999
1.6685302734374998
1.6604736328124998
1.654833984375
1.6653076171874999
1.662890625
1.6725585937499998
1.67578125
1.683837890625
1.67578125
1.6717529296875
1.69189453125
1.6886718749999998
1.6806152343749998
1.6806152343749998
1.6733642578124999
1.6814208984374999
1.683837890625
1.6846435546874998
1.6943115234375
1.6935058593749999
1.6975341796874999
1.7015624999999999
1.690283203125
1.683837890625
1.690283203125
1.6894775390624999
1.6862548828125
1.687060546875
1.687060546875
1.67578125
1.667724609375
1.6814208984374999
1.6822265625
1.6822265625
1.6822265625
1.670947265625
1.6693359374999999
1.6765869140624998
1.6806152343749998
1.6814208984374999
1.6693359374999999
1.6669189453125
1.6669189453125
1.6685302734374998
1.66611328125
1.66611328125
1.6693359374999999
1.6781982421875
1.6830322265625
1.6814208984374999
1.670947265625
1.6685302734374998
1.674169921875
1.6822265625
1.6725585937499998
1.6773925781249999
1.6685302734374998
1.6806152343749998
1.6878662109375
1.6878662109375
1.6927001953124998
1.69189453125
1.6886718749999998
1.6910888671875
1.6967285156249998
1.6975341796874999
1.687060546875
1.6894775390624999
1.6894775390624999
1.67900390625
1.6830322265625
1.6846435546874998
1.6910888671875
1.6773925781249999
1.67578125
1.6798095703125
1.6886718749999998
1.687060546875
1.6806152343749998
1.6830322265625
1.6773925781249999
1.6693359374999999
1.67578125
1.670947265625
1.658056640625
1.662890625
1.6612792968749999
1.662890625
1.667724609375
1.6685302734374998
1.6685302734374998
1.674169921875
1.6725585937499998
1.6717529296875
1.67578125
1.6822265625
1.6798095703125
1.6781982421875
1.6733642578124999
1.6773925781249999
1.6814208984374999
1.6806152343749998
1.6846435546874998
1.7007568359374998
1.7039794921875
1.6894775390624999
1.6765869140624998
1.690283203125
1.6878662109375
1.6878662109375
1.6814208984374999
1.6886718749999998
1.6927001953124998
1.6886718749999998
1.6822265625
1.6830322265625
1.6781982421875
1.6781982421875
1.67578125
1.6830322265625
1.6765869140624998
1.6798095703125
1.6725585937499998
1.6701416015625
1.6693359374999999
1.667724609375
1.6645019531249998
1.6645019531249998
1.6612792968749999
1.6669189453125
1.6653076171874999
1.6669189453125
1.66611328125
1.6717529296875
1.6781982421875
1.6765869140624998
1.67578125
1.6798095703125
1.6830322265625
1.6717529296875
1.667724609375
1.6725585937499998
1.683837890625
1.6862548828125
1.690283203125
1.690283203125
1.6935058593749999
1.6927001953124998
1.6886718749999998
1.6910888671875
1.6951171875
1.6894775390624999
1.6886718749999998
1.6822265625
1.6822265625
1.6830322265625
1.6830322265625
1.6830322265625
1.683837890625
1.6798095703125
1.6781982421875
1.6886718749999998
1.6822265625
1.6781982421875
1.67900390625
1.6725585937499998
1.670947265625
1.6669189453125
1.6588623046875
1.6475830078125
1.6693359374999999
1.6693359374999999
1.6685302734374998
1.6620849609375
1.67900390625
1.6765869140624998
1.6693359374999999
1.67578125
1.67578125
1.6669189453125
1.6693359374999999
1.662890625
1.6620849609375
1.6935058593749999
1.69833984375
1.6854492187499999
1.687060546875
1.703173828125
1.6951171875
1.687060546875
1.687060546875
1.6846435546874998
1.6967285156249998
1.6975341796874999
1.6894775390624999
1.6830322265625
1.6806152343749998
1.6862548828125
1.6846435546874998
1.6846435546874998
1.67578125
1.670947265625
1.6781982421875
1.6781982421875
1.6830322265625
1.6814208984374999
1.670947265625
1.6749755859375
1.6685302734374998
1.6572509765624999
1.6645019531249998
1.6693359374999999
1.6685302734374998
1.667724609375
1.6749755859375
1.6669189453125
1.67578125
1.6645019531249998
1.6636962890625
1.66611328125
1.6781982421875
1.6806152343749998
1.670947265625
1.6773925781249999
1.670947265625
1.6725585937499998
1.67900390625
1.6854492187499999
1.687060546875
1.690283203125
1.690283203125
1.6967285156249998
1.6959228515625
1.6846435546874998
1.6967285156249998
1.6967285156249998
1.6886718749999998
1.6886718749999998
1.6798095703125
1.6798095703125
1.6773925781249999
1.690283203125
1.683837890625
1.6781982421875
1.6773925781249999
1.6806152343749998
1.6830322265625
1.6806152343749998
1.6765869140624998
1.6717529296875
1.6685302734374998
1.6604736328124998
1.6725585937499998
1.6604736328124998
1.662890625
1.6620849609375
1.65966796875
1.6693359374999999
1.674169921875
1.6806152343749998
1.6830322265625
1.6806152343749998
1.67578125
1.6733642578124999
1.67578125
1.6701416015625
1.67900390625
1.6749755859375
1.6830322265625
1.6822265625
1.6886718749999998
1.6878662109375
1.687060546875
1.69833984375
1.6967285156249998
1.6886718749999998
1.690283203125
1.6854492187499999
1.6830322265625
1.6846435546874998
1.6878662109375
1.6830322265625
1.6854492187499999
1.6822265625
1.6854492187499999
1.6846435546874998
1.6862548828125
1.683837890625
1.6806152343749998
1.6749755859375
1.6749755859375
1.6669189453125
1.6669189453125
1.6645019531249998
1.662890625
1.658056640625
1.6620849609375
1.662890625
1.6733642578124999
1.6701416015625
1.6653076171874999
1.67900390625
1.6798095703125
1.6733642578124999
1.674169921875
1.670947265625
1.67578125
1.6725585937499998
1.6798095703125
1.6814208984374999
1.6822265625
1.6846435546874998
1.6781982421875
1.687060546875
1.6894775390624999
1.6943115234375
1.6959228515625
1.6927001953124998
1.6894775390624999
1.6878662109375
1.6862548828125
1.6910888671875
1.6822265625
1.6894775390624999
1.6830322265625
1.6781982421875
1.670947265625
1.6798095703125
1.6798095703125
1.6781982421875
1.6830322265625
1.6749755859375
1.6830322265625
1.6765869140624998
1.6749755859375
1.6653076171874999
1.66611328125
1.6612792968749999
1.667724609375
1.65966796875
1.6701416015625
1.6604736328124998
1.6653076171874999
1.674169921875
1.670947265625
1.6765869140624998
1.67578125
1.6773925781249999
1.6725585937499998
1.670947265625
1.674169921875
1.6749755859375
1.6854492187499999
1.6822265625
1.690283203125
1.6862548828125
1.6862548828125
1.6959228515625
1.6935058593749999
1.6935058593749999
1.6894775390624999
1.6894775390624999
1.6886718749999998
1.683837890625
1.687060546875
1.6854492187499999
1.6822265625
1.683837890625
1.6846435546874998
1.67578125
1.6781982421875
1.6862548828125
1.6830322265625
1.6781982421875
1.6773925781249999
1.6685302734374998
1.6701416015625
1.6653076171874999
1.6612792968749999
1.6653076171874999
1.6636962890625
1.6685302734374998
1.6669189453125
1.66611328125
1.6685302734374998
1.6701416015625
1.670947265625
1.66611328125
1.6701416015625
1.6701416015625
1.67578125
1.6806152343749998
1.6798095703125
1.6733642578124999
1.6765869140624998
1.6822265625
1.6846435546874998
1.687060546875
1.6935058593749999
1.6910888671875
1.7023681640625
1.6935058593749999
1.69833984375
1.6894775390624999
1.6846435546874998
1.6830322265625
1.687060546875
1.6830322265625
1.6822265625
1.674169921875
1.6854492187499999
1.6894775390624999
1.6935058593749999
1.6822265625
1.674169921875
1.6645019531249998
1.6693359374999999
1.6717529296875
1.674169921875
1.6604736328124998
1.662890625
1.66611328125
1.66611328125
1.6604736328124998
1.6669189453125
1.6693359374999999
1.6693359374999999
1.6765869140624998
1.6733642578124999
1.6717529296875
1.6765869140624998
1.6765869140624998
1.67900390625
1.6765869140624998
1.6725585937499998
1.667724609375
1.670947265625
1.6773925781249999
1.6846435546874998
1.687060546875
1.6951171875
1.69833984375
1.69833984375
1.6894775390624999
1.6943115234375
1.6943115234375
1.6959228515625
1.687060546875
1.687060546875
1.6806152343749998
1.6862548828125
1.6765869140624998
1.683837890625
1.67900390625
1.6773925781249999
1.6822265625
1.6822265625
1.6781982421875
1.6733642578124999
1.6725585937499998
1.6717529296875
1.6669189453125
1.6685302734374998
1.6636962890625
1.6588623046875
1.6645019531249998
1.6645019531249998
1.6685302734374998
1.667724609375
1.6725585937499998
1.6701416015625
1.6717529296875
1.6765869140624998
1.66611328125
1.674169921875
1.6773925781249999
1.683837890625
1.6822265625
1.67900390625
1.6765869140624998
1.6830322265625
1.687060546875
1.690283203125
1.6927001953124998
1.687060546875
1.6854492187499999
1.699951171875
1.6959228515625
1.6846435546874998
1.6798095703125
1.683837890625
1.6846435546874998
1.6935058593749999
1.6830322265625
1.6854492187499999
1.687060546875
1.6798095703125
1.6822265625
1.683837890625
1.6798095703125
1.6806152343749998
1.67900390625
1.6693359374999999
1.6645019531249998
1.6693359374999999
1.6693359374999999
1.67578125
1.6685302734374998
1.6636962890625
1.6620849609375
1.6693359374999999
1.6725585937499998
1.6717529296875
1.674169921875
1.6765869140624998
1.6798095703125
1.683837890625
1.6781982421875
1.674169921875
1.6773925781249999
1.6822265625
1.6814208984374999
1.6910888671875
1.6798095703125
1.6910888671875
1.6927001953124998
1.71123046875
1.6975341796874999
1.6878662109375
1.6951171875
1.6975341796874999
1.69189453125
1.6862548828125
1.67900390625
1.690283203125
1.6935058593749999
1.6878662109375
1.6773925781249999
1.6806152343749998
1.687060546875
1.6830322265625
1.6806152343749998
1.6830322265625
1.67900390625
1.670947265625
1.6749755859375
1.6701416015625
1.6653076171874999
1.670947265625
1.6693359374999999
1.6669189453125
1.6612792968749999
1.6717529296875
1.6854492187499999
1.67900390625
1.6773925781249999
1.674169921875
1.6701416015625
1.6765869140624998
1.6773925781249999
1.67900390625
1.6773925781249999
1.6822265625
1.6886718749999998
1.6830322265625
1.6862548828125
1.6886718749999998
1.6927001953124998
1.7055908203124999
1.703173828125
1.6959228515625
1.6943115234375
1.69189453125
1.6846435546874998
1.6894775390624999
1.69189453125
1.6894775390624999
1.683837890625
1.6830322265625
1.6854492187499999
1.6798095703125
1.6894775390624999
1.6830322265625
1.690283203125
1.67900390625
1.67578125
1.6765869140624998
1.6645019531249998
1.6733642578124999
1.6685302734374998
1.670947265625
1.6701416015625
1.6725585937499998
1.667724609375
1.6685302734374998
1.6701416015625
1.6765869140624998
1.6717529296875
1.6733642578124999
1.6733642578124999
1.6717529296875
1.6814208984374999
1.6822265625
1.6806152343749998
1.6822265625
1.6846435546874998
1.6806152343749998
1.6894775390624999
1.69189453125
1.690283203125
1.706396484375
1.6959228515625
1.7015624999999999
1.683837890625
1.687060546875
1.6959228515625
1.69833984375
1.687060546875
1.6806152343749998
1.6894775390624999
1.67900390625
1.6798095703125
1.6894775390624999
1.6910888671875
1.69189453125
1.6781982421875
1.6862548828125
1.67900390625
1.67578125
1.667724609375
1.662890625
1.6693359374999999
1.6749755859375
1.6725585937499998
1.6669189453125
1.667724609375
1.6733642578124999
1.6701416015625
1.6749755859375
1.6773925781249999
1.6749755859375
1.6733642578124999
1.6781982421875
1.67900390625
1.6798095703125
1.6773925781249999
1.6725585937499998
1.6894775390624999
1.6814208984374999
1.6806152343749998
1.6854492187499999
1.6951171875
1.7080078125
1.7015624999999999
1.7007568359374998
1.6927001953124998
1.683837890625
1.6943115234375
1.690283203125
1.6935058593749999
1.6878662109375
1.6862548828125
1.6854492187499999
1.6878662109375
1.6830322265625
1.6862548828125
1.6854492187499999
1.6830322265625
1.67900390625
1.67578125
1.6814208984374999
1.6693359374999999
1.6725585937499998
1.6701416015625
1.6701416015625
1.6733642578124999
1.6701416015625
1.67578125
1.670947265625
1.6717529296875
1.6685302734374998
1.6693359374999999
1.6733642578124999
1.6773925781249999
1.6781982421875
1.67578125
1.670947265625
1.6781982421875
1.67900390625
1.6830322265625
1.6878662109375
1.690283203125
1.6886718749999998
1.6927001953124998
1.6991455078125
1.6943115234375
1.6967285156249998
1.6910888671875
1.687060546875
1.6927001953124998
1.69189453125
1.6943115234375
1.687060546875
1.690283203125
1.6806152343749998
1.6830322265625
1.690283203125
1.687060546875
1.6806152343749998
1.687060546875
1.6830322265625
1.6765869140624998
1.6806152343749998
1.6773925781249999
1.670947265625
1.66611328125
1.6725585937499998
1.66611328125
1.674169921875
1.6685302734374998
1.6669189453125
1.6717529296875
1.670947265625
1.670947265625
1.6773925781249999
1.6830322265625
1.67900390625
1.66611328125
1.6733642578124999
1.6822265625
1.6846435546874998
1.6886718749999998
1.6927001953124998
1.6894775390624999
1.690283203125
1.6886718749999998
1.6910888671875
1.699951171875
1.6910888671875
1.69189453125
1.6967285156249998
1.6894775390624999
1.6846435546874998
1.690283203125
1.6886718749999998
1.6878662109375
1.6910888671875
1.6798095703125
1.6886718749999998
1.687060546875
1.6854492187499999
1.683837890625
1.687060546875
1.674169921875
1.6806152343749998
1.67578125
1.6693359374999999
1.66611328125
1.6645019531249998
1.6701416015625
1.67578125
1.6636962890625
1.6669189453125
1.6669189453125
1.67578125
1.6765869140624998
1.67900390625
1.6830322265625
1.67900390625
1.674169921875
1.6717529296875
1.6798095703125
1.6846435546874998
1.69189453125
1.6830322265625
1.6967285156249998
1.6910888671875
1.6951171875
1.690283203125
1.69833984375
1.690283203125
1.6927001953124998
1.6975341796874999
1.6935058593749999
1.690283203125
1.6830322265625
1.6814208984374999
1.687060546875
1.6959228515625
1.6862548828125
1.6878662109375
1.6878662109375
1.6894775390624999
1.6935058593749999
1.6822265625
1.6830322265625
1.6717529296875
1.6749755859375
1.6717529296875
1.6749755859375
1.6645019531249998
1.6701416015625
1.6636962890625
1.6636962890625
1.667724609375
1.6773925781249999
1.6806152343749998
1.6814208984374999
1.6733642578124999
1.6636962890625
1.6725585937499998
1.6854492187499999
1.6854492187499999
1.67578125
1.67578125
1.6830322265625
1.6781982421875
1.6862548828125
1.6846435546874998
1.69189453125
1.6927001953124998
1.6975341796874999
1.6935058593749999
1.6975341796874999
1.6935058593749999
1.69189453125
1.687060546875
1.6927001953124998
1.6878662109375
1.6927001953124998
1.6862548828125
1.6910888671875
1.6822265625
1.690283203125
1.6814208984374999
1.6773925781249999
1.683837890625
1.683837890625
1.6862548828125
1.6798095703125
1.6749755859375
1.66611328125
1.662890625
1.6604736328124998
1.6701416015625
1.6669189453125
1.6773925781249999
1.6765869140624998
1.6685302734374998
1.6669189453125
1.66611328125
1.6749755859375
1.6862548828125
1.6846435546874998
1.6862548828125
1.6806152343749998
1.6749755859375
1.6733642578124999
1.683837890625
1.690283203125
1.6910888671875
1.6910888671875
1.6910888671875
1.699951171875
1.6943115234375
1.69189453125
1.6991455078125
1.6935058593749999
1.690283203125
1.6967285156249998
1.6894775390624999
1.6854492187499999
1.6773925781249999
1.6862548828125
1.6798095703125
1.6894775390624999
1.6862548828125
1.67900390625
1.6991455078125
1.6878662109375
1.67578125
1.6773925781249999
1.6669189453125
1.6693359374999999
1.6725585937499998
1.6564453124999998
1.6653076171874999
1.6612792968749999
1.6636962890625
1.67578125
1.6806152343749998
1.6701416015625
1.6749755859375
1.6878662109375
1.6878662109375
1.6733642578124999
1.67900390625
1.67578125
1.67578125
1.6798095703125
1.6830322265625
1.683837890625
1.6854492187499999
1.690283203125
1.6935058593749999
1.6927001953124998
1.7096191406249999
1.706396484375
1.6943115234375
1.69189453125
1.6854492187499999
1.6927001953124998
1.6822265625
1.6846435546874998
1.6894775390624999
1.6854492187499999
1.6886718749999998
1.6967285156249998
1.6854492187499999
1.6822265625
1.67900390625
1.6773925781249999
1.6814208984374999
1.6846435546874998
1.662890625
1.674169921875
1.667724609375
1.6701416015625
1.6765869140624998
1.6693359374999999
1.6749755859375
1.66611328125
1.670947265625
1.6693359374999999
1.67900390625
1.6765869140624998
1.6846435546874998
1.6822265625
1.6886718749999998
1.674169921875
1.67578125
1.6693359374999999
1.683837890625
1.6846435546874998
1.6910888671875
1.6910888671875
1.690283203125
1.6975341796874999
1.6991455078125
1.7039794921875
1.6967285156249998
1.6886718749999998
1.6854492187499999
1.6886718749999998
1.690283203125
1.6943115234375
1.6846435546874998
1.6878662109375
1.6886718749999998
1.683837890625
1.6862548828125
1.6830322265625
1.6798095703125
1.6814208984374999
1.67578125
1.67900390625
1.6733642578124999
1.6701416015625
1.6733642578124999
1.6685302734374998
1.670947265625
1.6669189453125
1.6653076171874999
1.6717529296875
1.6749755859375
1.67900390625
1.6806152343749998
1.6733642578124999
1.6701416015625
1.6806152343749998
1.683837890625
1.67900390625
1.683837890625
1.670947265625
1.6854492187499999
1.6854492187499999
1.6910888671875
1.6935058593749999
1.6927001953124998
1.7007568359374998
1.7047851562499998
1.6951171875
1.6935058593749999
1.690283203125
1.6910888671875
1.6975341796874999
1.690283203125
1.6927001953124998
1.683837890625
1.6886718749999998
1.6854492187499999
1.6822265625
1.6749755859375
1.6733642578124999
1.6894775390624999
1.683837890625
1.69189453125
1.687060546875
1.6612792968749999
1.670947265625
1.6733642578124999
1.6765869140624998
1.670947265625
1.667724609375
1.66611328125
1.67578125
1.6781982421875
1.66611328125
1.6798095703125
1.670947265625
1.6733642578124999
1.6781982421875
1.67900390625
1.6798095703125
1.6830322265625
1.6733642578124999
1.6798095703125
1.6822265625
1.6878662109375
1.6927001953124998
1.6951171875
1.6975341796874999
1.6975341796874999
1.7007568359374998
1.6959228515625
1.6935058593749999
1.6951171875
1.6935058593749999
1.6910888671875
1.687060546875
1.6846435546874998
1.6878662109375
1.683837890625
1.6854492187499999
1.6854492187499999
1.6830322265625
1.6830322265625
1.6773925781249999
1.6822265625
1.67578125
1.67900390625
1.67578125
1.6725585937499998
1.6636962890625
1.6604736328124998
1.674169921875
1.6749755859375
1.6733642578124999
1.674169921875
1.670947265625
1.6765869140624998
1.674169921875
1.6765869140624998
1.6830322265625
1.6862548828125
1.6806152343749998
1.67900390625
1.6749755859375
1.69189453125
1.6846435546874998
1.6822265625
1.687060546875
1.6943115234375
1.6975341796874999
1.6991455078125
1.6959228515625
1.6927001953124998
1.6862548828125
1.6910888671875
1.683837890625
1.6886718749999998
1.6935058593749999
1.6886718749999998
1.6862548828125
1.6951171875
1.683837890625
1.6781982421875
1.67578125
1.683837890625
1.687060546875
1.6830322265625
1.6725585937499998
1.6717529296875
1.6701416015625
1.6773925781249999
1.667724609375
1.6653076171874999
1.6749755859375
1.6717529296875
1.6669189453125
1.6685302734374998
1.6733642578124999
1.6773925781249999
1.6798095703125
1.6620849609375
1.683837890625
1.6798095703125
1.670947265625
