1.699951171875
1.6959228515625
1.7047851562499998
1.6967285156249998
1.6943115234375
1.6975341796874999
1.7015624999999999
1.706396484375
1.7088134765624998
1.7023681640625
1.7088134765624998
1.7023681640625
1.7072021484375
1.7055908203124999
1.7072021484375
1.71123046875
1.7120361328125
1.71123046875
1.7152587890625
1.716064453125
1.7168701171874998
1.7184814453125
1.7289550781249998
1.7265380859375
1.722509765625
1.7136474609374999
1.7208984374999998
1.7208984374999998
1.7233154296875
1.7184814453125
1.7128417968749998
1.71123046875
1.706396484375
1.714453125
1.7249267578124998
1.7168701171874998
1.7096191406249999
1.7176757812499999
1.7080078125
1.7080078125
1.7096191406249999
1.7088134765624998
1.699951171875
1.6991455078125
1.7007568359374998
1.6991455078125
1.7007568359374998
1.6943115234375
1.7015624999999999
1.7039794921875
1.71123046875
1.703173828125
1.7088134765624998
1.7072021484375
1.7072021484375
1.706396484375
1.7072021484375
1.71123046875
1.714453125
1.716064453125
1.7152587890625
1.7128417968749998
1.7176757812499999
1.7249267578124998
1.7168701171874998
1.72412109375
1.7289550781249998
1.7233154296875
1.7168701171874998
1.714453125
1.71123046875
1.7152587890625
1.72734375
1.7208984374999998
1.7200927734375
1.7208984374999998
1.7088134765624998
1.7168701171874998
1.706396484375
1.7072021484375
1.714453125
1.71123046875
1.6991455078125
1.71123046875
1.6975341796874999
1.706396484375
1.7047851562499998
1.7047851562499998
1.7072021484375
1.69833984375
1.7015624999999999
1.6991455078125
1.69833984375
1.7039794921875
1.7047851562499998
1.703173828125
1.7055908203124999
1.7096191406249999
1.7128417968749998
1.7104248046875
1.7007568359374998
1.7080078125
1.7176757812499999
1.7136474609374999
1.716064453125
1.7208984374999998
1.7257324218749999
1.72412109375
1.7184814453125
1.7168701171874998
1.7176757812499999
1.716064453125
1.72412109375
1.72734375
1.7152587890625
1.7168701171874998
1.716064453125
1.71123046875
1.7208984374999998
1.7104248046875
1.7080078125
1.7088134765624998
1.71123046875
1.7096191406249999
1.7120361328125
1.7104248046875
1.699951171875
1.7047851562499998
1.6943115234375
1.6991455078125
1.7023681640625
1.7023681640625
1.7088134765624998
1.6975341796874999
1.6991455078125
1.7039794921875
1.706396484375
1.7047851562499998
1.7096191406249999
1.7047851562499998
1.7128417968749998
1.71123046875
1.7120361328125
1.7080078125
1.7120361328125
1.7184814453125
1.7200927734375
1.7176757812499999
1.719287109375
1.7257324218749999
1.7128417968749998
1.7249267578124998
1.7184814453125
1.7217041015624999
1.7184814453125
1.719287109375
1.7233154296875
1.7168701171874998
1.7128417968749998
1.7208984374999998
1.7104248046875
1.7168701171874998
1.716064453125
1.7208984374999998
1.7184814453125
1.71123046875
1.7080078125
1.7096191406249999
1.6951171875
1.6975341796874999
1.6967285156249998
1.7047851562499998
1.7039794921875
1.6959228515625
1.7015624999999999
1.703173828125
1.7015624999999999
1.7023681640625
1.703173828125
1.7080078125
1.706396484375
1.7015624999999999
1.7047851562499998
1.714453125
1.7152587890625
1.7088134765624998
1.714453125
1.7080078125
1.716064453125
1.7217041015624999
1.7265380859375
1.73056640625
1.7184814453125
1.7152587890625
1.719287109375
1.72734375
1.7208984374999998
1.72412109375
1.7152587890625
1.7184814453125
1.71123046875
1.7184814453125
1.714453125
1.7104248046875
1.7120361328125
1.7128417968749998
1.7120361328125
1.7104248046875
1.7088134765624998
1.7039794921875
1.7039794921875
1.7039794921875
1.7007568359374998
1.7039794921875
1.7039794921875
1.699951171875
1.7015624999999999
1.7047851562499998
1.699951171875
1.7007568359374998
1.7023681640625
1.706396484375
1.7055908203124999
1.7104248046875
1.7055908203124999
1.7088134765624998
1.7023681640625
1.7072021484375
1.71123046875
1.7200927734375
1.7184814453125
1.7184814453125
1.72412109375
1.722509765625
1.7281494140625
1.7208984374999998
1.719287109375
1.7208984374999998
1.7233154296875
1.714453125
1.7200927734375
1.7176757812499999
1.7104248046875
1.7120361328125
1.714453125
1.7184814453125
1.7136474609374999
1.7080078125
1.7168701171874998
1.7168701171874998
1.7136474609374999
1.71123046875
1.71123046875
1.706396484375
1.6975341796874999
1.6951171875
1.69833984375
1.699951171875
1.7023681640625
1.703173828125
1.7023681640625
1.69833984375
1.7080078125
1.7080078125
1.7023681640625
1.6959228515625
1.7023681640625
1.7128417968749998
1.7208984374999998
1.7080078125
1.7136474609374999
1.716064453125
1.7120361328125
1.72412109375
1.719287109375
1.7168701171874998
1.7208984374999998
1.72734375
1.7289550781249998
1.7233154296875
1.7176757812499999
1.722509765625
1.7176757812499999
1.719287109375
1.7104248046875
1.71123046875
1.7176757812499999
1.7096191406249999
1.7072021484375
1.706396484375
1.7128417968749998
1.7136474609374999
1.7120361328125
1.7080078125
1.7047851562499998
1.7055908203124999
1.706396484375
1.699951171875
1.6975341796874999
1.6975341796874999
1.69833984375
1.6975341796874999
1.7023681640625
1.7168701171874998
1.703173828125
1.7023681640625
1.7047851562499998
1.7080078125
1.7080078125
1.7080078125
1.7080078125
1.7096191406249999
1.7128417968749998
1.71123046875
1.7120361328125
1.7176757812499999
1.7128417968749998
1.719287109375
1.7297607421874999
1.72412109375
1.722509765625
1.7184814453125
1.722509765625
1.7208984374999998
1.7152587890625
1.7120361328125
1.7136474609374999
1.7120361328125
1.7168701171874998
1.7047851562499998
1.7217041015624999
1.7184814453125
1.719287109375
1.7136474609374999
1.7104248046875
1.7136474609374999
1.6991455078125
1.7047851562499998
1.706396484375
1.7023681640625
1.6935058593749999
1.6991455078125
1.703173828125
1.7015624999999999
1.703173828125
1.7080078125
1.7023681640625
1.7072021484375
1.7080078125
1.7072021484375
1.7088134765624998
1.71123046875
1.71123046875
1.7120361328125
1.7055908203124999
1.7136474609374999
1.7168701171874998
1.71123046875
1.7184814453125
1.7184814453125
1.72412109375
1.7249267578124998
1.7152587890625
1.7176757812499999
1.722509765625
1.7176757812499999
1.714453125
1.722509765625
1.7184814453125
1.7208984374999998
1.7184814453125
1.7080078125
1.7104248046875
1.7120361328125
1.7152587890625
1.7217041015624999
1.706396484375
1.7023681640625
1.6975341796874999
1.7128417968749998
1.7128417968749998
1.69833984375
1.7007568359374998
1.6935058593749999
1.6935058593749999
1.6951171875
1.7007568359374998
1.7047851562499998
1.71123046875
1.7104248046875
1.703173828125
1.7136474609374999
1.71123046875
1.7055908203124999
1.7047851562499998
1.7096191406249999
1.714453125
1.7080078125
1.7047851562499998
1.719287109375
1.7208984374999998
1.72734375
1.7265380859375
1.7200927734375
1.722509765625
1.7208984374999998
1.7200927734375
1.7184814453125
1.7200927734375
1.7184814453125
1.719287109375
1.7152587890625
1.716064453125
1.716064453125
1.7128417968749998
1.7096191406249999
1.71123046875
1.71123046875
1.7104248046875
1.7072021484375
1.7120361328125
1.703173828125
1.7047851562499998
1.706396484375
1.6991455078125
1.6951171875
1.6991455078125
1.7023681640625
1.706396484375
1.7055908203124999
1.6975341796874999
1.6975341796874999
1.7055908203124999
1.71123046875
1.7176757812499999
1.71123046875
1.7168701171874998
1.7055908203124999
1.706396484375
1.7120361328125
1.719287109375
1.7249267578124998
1.722509765625
1.7168701171874998
1.7265380859375
1.714453125
1.719287109375
1.7152587890625
1.7200927734375
1.7168701171874998
1.7184814453125
1.7176757812499999
1.7184814453125
1.714453125
1.7168701171874998
1.716064453125
1.7208984374999998
1.7176757812499999
1.7128417968749998
1.716064453125
1.7120361328125
1.7047851562499998
1.7080078125
1.7072021484375
1.703173828125
1.7039794921875
1.6943115234375
1.6951171875
1.699951171875
1.69833984375
1.699951171875
1.71123046875
1.7023681640625
1.7047851562499998
1.7015624999999999
1.69833984375
1.7104248046875
1.7217041015624999
1.7168701171874998
1.7200927734375
1.7072021484375
1.7047851562499998
1.714453125
1.7120361328125
1.716064453125
1.7176757812499999
1.7217041015624999
1.719287109375
1.7233154296875
1.7168701171874998
1.722509765625
1.714453125
1.7208984374999998
1.719287109375
1.7184814453125
1.7152587890625
1.7136474609374999
1.7104248046875
1.7168701171874998
1.7152587890625
1.719287109375
1.714453125
1.7152587890625
1.7152587890625
1.7023681640625
1.706396484375
1.7007568359374998
1.7023681640625
1.6991455078125
1.703173828125
1.699951171875
1.6943115234375
1.69833984375
1.7088134765624998
1.7104248046875
1.7047851562499998
1.7047851562499998
1.703173828125
1.6975341796874999
1.7015624999999999
1.7128417968749998
1.716064453125
1.7096191406249999
1.7080078125
1.716064453125
1.7088134765624998
1.7152587890625
1.714453125
1.722509765625
1.7257324218749999
1.7297607421874999
1.7217041015624999
1.7184814453125
1.7208984374999998
1.7128417968749998
1.7208984374999998
1.7217041015624999
1.7200927734375
1.7168701171874998
1.722509765625
1.7072021484375
1.71123046875
1.703173828125
1.7136474609374999
1.7152587890625
1.7047851562499998
1.703173828125
1.7072021484375
1.7096191406249999
1.699951171875
1.703173828125
1.6991455078125
1.7015624999999999
1.7039794921875
1.7007568359374998
1.6943115234375
1.7047851562499998
1.7047851562499998
1.716064453125
1.7104248046875
1.7088134765624998
1.703173828125
1.7088134765624998
1.7023681640625
1.714453125
1.7104248046875
1.7055908203124999
1.7136474609374999
1.7208984374999998
1.7208984374999998
1.7249267578124998
1.7265380859375
1.7281494140625
1.7257324218749999
1.7152587890625
1.719287109375
1.719287109375
1.7176757812499999
1.7176757812499999
1.716064453125
1.7120361328125
1.7168701171874998
1.71123046875
1.7072021484375
1.7120361328125
1.7128417968749998
1.7152587890625
1.7088134765624998
1.7080078125
1.7104248046875
1.7023681640625
1.7072021484375
1.7047851562499998
1.6975341796874999
1.6959228515625
1.7072021484375
1.7015624999999999
1.69833984375
1.699951171875
1.7039794921875
1.7015624999999999
1.7080078125
1.7080078125
1.7096191406249999
1.7080078125
1.7096191406249999
1.71123046875
1.7096191406249999
1.714453125
1.7080078125
1.7168701171874998
1.7233154296875
1.7233154296875
1.7289550781249998
1.722509765625
1.722509765625
1.722509765625
1.719287109375
1.7184814453125
1.7184814453125
1.7200927734375
1.716064453125
1.7176757812499999
1.7120361328125
1.7120361328125
1.714453125
1.714453125
1.716064453125
1.71123046875
1.7104248046875
1.7055908203124999
1.706396484375
1.703173828125
1.7039794921875
1.7007568359374998
1.7015624999999999
1.6894775390624999
1.7055908203124999
1.7096191406249999
1.706396484375
1.699951171875
1.7015624999999999
1.699951171875
1.7015624999999999
1.7080078125
1.703173828125
1.7088134765624998
1.7080078125
1.71123046875
1.7096191406249999
1.7168701171874998
1.7128417968749998
1.7096191406249999
1.722509765625
1.7200927734375
1.722509765625
1.7249267578124998
1.7208984374999998
1.722509765625
1.716064453125
1.716064453125
1.7168701171874998
1.719287109375
1.714453125
1.7217041015624999
1.7200927734375
1.7200927734375
1.7136474609374999
1.7120361328125
1.7128417968749998
1.7136474609374999
1.703173828125
1.7039794921875
1.7023681640625
1.7072021484375
1.706396484375
1.6943115234375
1.703173828125
1.6975341796874999
1.703173828125
1.703173828125
1.7023681640625
1.7072021484375
1.699951171875
1.7088134765624998
1.703173828125
1.71123046875
1.7072021484375
1.7136474609374999
1.7104248046875
1.7080078125
1.7072021484375
1.706396484375
1.7176757812499999
1.7152587890625
1.7233154296875
1.722509765625
1.7281494140625
1.7208984374999998
1.719287109375
1.7265380859375
1.719287109375
1.7233154296875
1.7200927734375
1.719287109375
1.7128417968749998
1.7128417968749998
1.7088134765624998
1.7176757812499999
1.716064453125
1.7152587890625
1.7152587890625
1.71123046875
1.7136474609374999
1.7120361328125
1.7080078125
1.7055908203124999
1.7023681640625
1.69833984375
1.7047851562499998
1.69833984375
1.6991455078125
1.706396484375
1.6991455078125
1.7055908203124999
1.7015624999999999
1.7047851562499998
1.7072021484375
1.7096191406249999
1.706396484375
1.7152587890625
1.714453125
1.703173828125
1.7096191406249999
1.7072021484375
1.7136474609374999
1.7080078125
1.714453125
1.7120361328125
1.7297607421874999
1.7289550781249998
1.72412109375
1.722509765625
1.7184814453125
1.722509765625
1.719287109375
1.7208984374999998
1.7249267578124998
1.722509765625
1.72734375
1.7039794921875
1.703173828125
1.714453125
1.716064453125
1.7208984374999998
1.714453125
1.71123046875
1.7047851562499998
1.7104248046875
1.7047851562499998
1.7039794921875
1.6991455078125
1.6967285156249998
1.7015624999999999
1.7015624999999999
1.6967285156249998
1.6967285156249998
1.706396484375
1.7015624999999999
1.7047851562499998
1.7047851562499998
1.7072021484375
1.7096191406249999
1.7039794921875
1.7176757812499999
1.714453125
1.7152587890625
1.7088134765624998
1.7184814453125
1.719287109375
1.716064453125
1.7249267578124998
1.7257324218749999
1.7168701171874998
1.716064453125
1.7265380859375
1.7289550781249998
1.7257324218749999
1.7176757812499999
1.7217041015624999
1.7096191406249999
1.7104248046875
1.716064453125
1.7136474609374999
1.7184814453125
1.7128417968749998
1.7168701171874998
1.7128417968749998
1.71123046875
1.7072021484375
1.703173828125
1.7015624999999999
1.7023681640625
1.6951171875
1.699951171875
1.7015624999999999
1.7072021484375
1.6991455078125
1.7039794921875
1.7047851562499998
1.7080078125
1.7047851562499998
1.703173828125
1.7055908203124999
1.7055908203124999
1.7088134765624998
1.714453125
1.7176757812499999
1.7120361328125
1.714453125
1.7104248046875
1.714453125
1.7128417968749998
1.7217041015624999
1.7281494140625
1.722509765625
1.7152587890625
1.7168701171874998
1.7176757812499999
1.7176757812499999
1.7128417968749998
1.7217041015624999
1.7217041015624999
1.716064453125
1.7096191406249999
1.7233154296875
1.7120361328125
1.7184814453125
1.7047851562499998
1.7152587890625
1.7168701171874998
1.706396484375
1.7039794921875
1.7039794921875
1.703173828125
1.703173828125
1.703173828125
1.69189453125
1.6967285156249998
1.6951171875
1.7072021484375
1.7128417968749998
1.706396484375
1.7072021484375
1.7080078125
1.69833984375
1.706396484375
1.7088134765624998
1.714453125
1.7072021484375
1.7096191406249999
1.7088134765624998
1.714453125
1.7104248046875
1.714453125
1.7176757812499999
1.72734375
1.7217041015624999
1.7257324218749999
1.7208984374999998
1.7184814453125
1.7184814453125
1.7233154296875
1.71123046875
1.7120361328125
1.7128417968749998
1.7200927734375
1.7184814453125
1.7120361328125
1.714453125
1.714453125
1.7128417968749998
1.7128417968749998
1.719287109375
1.7080078125
1.6991455078125
1.7007568359374998
1.7047851562499998
1.6967285156249998
1.7023681640625
1.7015624999999999
1.69833984375
1.7047851562499998
1.7120361328125
1.71123046875
1.714453125
1.6951171875
1.6991455078125
1.7023681640625
1.7104248046875
1.7120361328125
1.7080078125
1.7047851562499998
1.7096191406249999
1.7128417968749998
1.714453125
1.722509765625
1.7249267578124998
1.7233154296875
1.7233154296875
1.7200927734375
1.7208984374999998
1.7120361328125
1.7233154296875
1.716064453125
1.7176757812499999
1.716064453125
1.7208984374999998
1.7265380859375
1.71123046875
1.7128417968749998
1.7128417968749998
1.71123046875
1.716064453125
1.7120361328125
1.7047851562499998
1.7104248046875
1.7080078125
1.7039794921875
1.7039794921875
1.6951171875
1.6959228515625
1.7015624999999999
1.7039794921875
1.6975341796874999
1.7047851562499998
1.703173828125
1.7096191406249999
1.7088134765624998
1.7104248046875
1.7120361328125
1.7080078125
1.7015624999999999
1.7088134765624998
1.7104248046875
1.7080078125
1.7168701171874998
1.7128417968749998
1.7217041015624999
1.7176757812499999
1.7200927734375
1.7249267578124998
1.7208984374999998
1.7265380859375
1.722509765625
1.7265380859375
1.7168701171874998
1.714453125
1.719287109375
1.719287109375
1.716064453125
1.7120361328125
1.716064453125
1.7176757812499999
1.714453125
1.7184814453125
1.714453125
1.7072021484375
1.706396484375
1.7055908203124999
1.7015624999999999
1.7047851562499998
1.6943115234375
1.6967285156249998
1.69833984375
1.7015624999999999
1.69833984375
1.7015624999999999
1.706396484375
1.6991455078125
1.703173828125
1.706396484375
1.706396484375
1.7128417968749998
1.714453125
1.7120361328125
1.7055908203124999
1.716064453125
1.719287109375
1.7104248046875
1.716064453125
1.7265380859375
1.7208984374999998
1.72734375
1.7184814453125
1.722509765625
1.7289550781249998
1.73056640625
1.7176757812499999
1.7176757812499999
1.716064453125
1.716064453125
1.7120361328125
1.719287109375
1.714453125
1.7128417968749998
1.7128417968749998
1.7120361328125
1.7168701171874998
1.7096191406249999
1.7047851562499998
1.703173828125
1.6943115234375
1.703173828125
1.703173828125
1.6967285156249998
1.6935058593749999
1.6991455078125
1.7023681640625
1.7072021484375
1.7080078125
1.7023681640625
1.7039794921875
1.7080078125
1.7080078125
1.7072021484375
1.7152587890625
1.714453125
1.7096191406249999
1.7104248046875
1.71123046875
1.7120361328125
1.7168701171874998
1.716064453125
1.719287109375
1.7257324218749999
1.719287109375
1.7168701171874998
1.719287109375
1.7128417968749998
1.72734375
1.7337890624999999
1.722509765625
1.714453125
1.7080078125
1.7136474609374999
1.7168701171874998
1.7055908203124999
1.7152587890625
1.714453125
1.7168701171874998
1.7168701171874998
1.714453125
1.7047851562499998
1.6943115234375
1.7055908203124999
1.7088134765624998
1.7072021484375
1.6991455078125
1.6967285156249998
1.7007568359374998
1.7055908203124999
1.699951171875
1.7096191406249999
1.7047851562499998
1.7096191406249999
1.7047851562499998
1.7080078125
1.7039794921875
1.7096191406249999
1.7136474609374999
1.7088134765624998
1.71123046875
1.7055908203124999
1.7168701171874998
1.72412109375
1.7297607421874999
1.732177734375
1.72734375
1.7233154296875
1.72412109375
1.7217041015624999
1.716064453125
1.71123046875
1.7233154296875
1.7200927734375
1.7104248046875
1.7120361328125
1.7152587890625
1.7136474609374999
1.719287109375
1.7152587890625
1.7176757812499999
1.7120361328125
1.7015624999999999
1.703173828125
1.7023681640625
1.7047851562499998
1.7015624999999999
1.7015624999999999
1.6991455078125
1.69833984375
1.6951171875
1.706396484375
1.703173828125
1.706396484375
1.7072021484375
1.7007568359374998
1.706396484375
1.7104248046875
1.7080078125
1.716064453125
1.7088134765624998
1.716064453125
1.7072021484375
1.7136474609374999
1.7136474609374999
1.722509765625
1.7184814453125
1.72412109375
1.7281494140625
1.7313720703125
1.7249267578124998
1.7217041015624999
1.7265380859375
1.7200927734375
1.716064453125
1.7168701171874998
1.7200927734375
1.7168701171874998
1.7176757812499999
1.7120361328125
1.7120361328125
1.7120361328125
1.714453125
1.7080078125
1.7088134765624998
1.699951171875
1.7055908203124999
1.6959228515625
1.69833984375
1.6935058593749999
1.699951171875
1.7055908203124999
1.7047851562499998
1.7023681640625
1.7023681640625
1.6935058593749999
1.699951171875
1.703173828125
1.7015624999999999
1.7104248046875
1.7168701171874998
1.7136474609374999
1.7168701171874998
1.71123046875
1.714453125
1.71123046875
1.71123046875
1.7176757812499999
1.72734375
1.7345947265625
1.7370117187499998
1.714453125
1.7184814453125
1.722509765625
1.7200927734375
1.7200927734375
1.7088134765624998
1.714453125
1.7208984374999998
1.7152587890625
1.7217041015624999
1.714453125
1.714453125
1.719287109375
1.714453125
1.7120361328125
1.7072021484375
1.703173828125
1.699951171875
1.7015624999999999
1.703173828125
1.6951171875
1.699951171875
1.7023681640625
1.7015624999999999
1.7039794921875
1.6991455078125
1.699951171875
1.706396484375
1.7072021484375
1.7128417968749998
1.716064453125
1.7072021484375
1.7055908203124999
1.7080078125
1.7072021484375
1.7104248046875
1.714453125
1.719287109375
1.7136474609374999
1.7200927734375
1.7152587890625
1.7289550781249998
1.72412109375
1.7265380859375
1.722509765625
1.7217041015624999
1.7168701171874998
1.7208984374999998
1.7176757812499999
1.7152587890625
1.714453125
1.7152587890625
1.716064453125
1.72412109375
1.716064453125
1.7208984374999998
1.7184814453125
1.7104248046875
1.7088134765624998
1.6991455078125
1.7039794921875
1.7055908203124999
1.6991455078125
1.7047851562499998
1.6991455078125
1.703173828125
1.699951171875
1.6943115234375
1.7055908203124999
1.7007568359374998
1.7039794921875
1.7039794921875
1.7080078125
1.7007568359374998
1.71123046875
1.7039794921875
1.706396484375
1.7128417968749998
1.7176757812499999
1.7152587890625
1.7184814453125
1.7217041015624999
1.7281494140625
1.732177734375
1.7265380859375
1.7257324218749999
1.7176757812499999
1.719287109375
1.714453125
1.72412109375
1.7200927734375
1.7217041015624999
1.7128417968749998
1.7128417968749998
1.7096191406249999
1.7128417968749998
1.7088134765624998
1.716064453125
1.7136474609374999
1.714453125
1.7047851562499998
1.703173828125
1.7039794921875
1.7015624999999999
1.69833984375
1.7007568359374998
1.699951171875
1.7007568359374998
1.7023681640625
1.6975341796874999
1.6967285156249998
1.7039794921875
1.6951171875
1.6951171875
1.7039794921875
1.7015624999999999
1.7152587890625
1.7080078125
1.7080078125
1.7080078125
1.6991455078125
1.699951171875
1.7096191406249999
1.716064453125
1.7176757812499999
1.7217041015624999
1.7200927734375
1.7184814453125
1.7208984374999998
1.7168701171874998
1.722509765625
1.7120361328125
1.7120361328125
1.7080078125
1.7080078125
1.706396484375
1.7152587890625
1.7080078125
1.7015624999999999
1.7015624999999999
1.7047851562499998
1.703173828125
1.706396484375
1.69833984375
1.706396484375
1.69833984375
1.6951171875
1.6959228515625
1.6959228515625
1.706396484375
1.71123046875
1.7047851562499998
1.699951171875
1.7096191406249999
1.6967285156249998
1.6935058593749999
1.6927001953124998
1.690283203125
1.687060546875
1.69189453125
1.7007568359374998
1.6975341796874999
1.706396484375
1.7096191406249999
1.7200927734375
1.7249267578124998
1.716064453125
1.7257324218749999
1.7289550781249998
1.7297607421874999
1.7265380859375
1.7418457031249999
1.7313720703125
1.7023681640625
1.7128417968749998
1.7096191406249999
1.7128417968749998
1.7120361328125
1.7072021484375
1.703173828125
1.706396484375
1.7047851562499998
1.7072021484375
1.7055908203124999
1.7055908203124999
1.7055908203124999
1.6967285156249998
1.706396484375
1.69833984375
1.690283203125
1.690283203125
1.703173828125
1.69189453125
1.7080078125
1.6991455078125
1.6927001953124998
1.690283203125
1.703173828125
1.703173828125
1.6878662109375
1.67578125
1.6910888671875
1.719287109375
1.7217041015624999
1.719287109375
1.7168701171874998
1.714453125
1.7096191406249999
1.714453125
1.719287109375
1.7249267578124998
1.716064453125
1.714453125
1.7120361328125
1.7176757812499999
1.714453125
1.7152587890625
1.7047851562499998
1.7104248046875
1.71123046875
1.714453125
1.71123046875
1.7047851562499998
1.7055908203124999
1.7249267578124998
1.7217041015624999
1.7184814453125
1.69833984375
1.6886718749999998
1.706396484375
1.703173828125
1.69833984375
1.6935058593749999
1.6935058593749999
1.6959228515625
1.6951171875
1.7047851562499998
1.703173828125
1.6927001953124998
1.6910888671875
1.703173828125
1.703173828125
1.7023681640625
1.7055908203124999
1.706396484375
1.7039794921875
1.719287109375
1.7055908203124999
1.6878662109375
1.7047851562499998
1.7217041015624999
1.7289550781249998
1.7176757812499999
1.7168701171874998
1.7120361328125
1.7176757812499999
1.7297607421874999
1.714453125
1.7152587890625
1.706396484375
1.7080078125
1.706396484375
1.7128417968749998
1.7128417968749998
1.7128417968749998
1.714453125
1.7200927734375
1.7072021484375
1.699951171875
1.71123046875
1.7088134765624998
1.71123046875
1.7088134765624998
1.6975341796874999
1.6959228515625
1.6822265625
1.6854492187499999
1.7023681640625
1.7072021484375
1.7168701171874998
1.7055908203124999
1.7176757812499999
1.7072021484375
1.7104248046875
1.7080078125
1.71123046875
1.714453125
1.73056640625
1.73056640625
1.7281494140625
1.7168701171874998
1.7176757812499999
1.7208984374999998
1.7217041015624999
1.7208984374999998
1.7168701171874998
1.716064453125
1.7088134765624998
1.7072021484375
1.706396484375
1.7039794921875
1.7120361328125
1.7080078125
1.716064453125
1.716064453125
1.7072021484375
1.7047851562499998
1.7217041015624999
1.7378173828124999
1.740234375
1.7208984374999998
1.732177734375
1.7055908203124999
1.683837890625
1.6822265625
1.683837890625
1.6894775390624999
1.7023681640625
1.7023681640625
1.6927001953124998
1.6951171875
1.7039794921875
1.69833984375
1.6967285156249998
1.7015624999999999
1.7080078125
1.7104248046875
1.7184814453125
1.714453125
1.71123046875
1.7096191406249999
1.7072021484375
1.7104248046875
1.72412109375
1.72734375
1.722509765625
1.7233154296875
1.7039794921875
1.716064453125
1.72734375
1.735400390625
1.7289550781249998
1.7297607421874999
1.72734375
1.7249267578124998
1.71123046875
1.7120361328125
1.716064453125
1.7200927734375
1.73056640625
1.7450683593749998
1.7450683593749998
1.7362060546875
1.7233154296875
1.7200927734375
1.7152587890625
1.7072021484375
1.7152587890625
1.7136474609374999
1.7233154296875
1.7378173828124999
1.7370117187499998
1.7281494140625
1.7176757812499999
1.7200927734375
1.732177734375
1.74345703125
1.7394287109375
1.72734375
1.714453125
1.7120361328125
1.7168701171874998
1.7168701171874998
1.7233154296875
1.72734375
1.7289550781249998
1.7281494140625
1.7289550781249998
1.7362060546875
1.7329833984374998
1.7297607421874999
1.7329833984374998
1.7394287109375
1.7337890624999999
1.732177734375
1.7337890624999999
1.7313720703125
1.722509765625
1.7257324218749999
1.7233154296875
1.7184814453125
1.7152587890625
1.722509765625
1.7289550781249998
1.7329833984374998
1.7297607421874999
1.7249267578124998
1.719287109375
1.716064453125
1.714453125
1.7039794921875
1.7088134765624998
1.7104248046875
1.7080078125
1.7128417968749998
1.7088134765624998
1.7055908203124999
1.7096191406249999
1.7176757812499999
1.71123046875
1.706396484375
1.706396484375
1.7096191406249999
1.7208984374999998
1.7104248046875
1.72412109375
1.7337890624999999
1.7329833984374998
1.732177734375
1.735400390625
1.7507080078125
1.7579589843749999
1.7410400390624998
1.732177734375
1.7281494140625
1.7233154296875
1.719287109375
1.72412109375
1.71123046875
1.719287109375
1.7176757812499999
1.7217041015624999
1.719287109375
1.7128417968749998
1.7281494140625
1.7217041015624999
1.7257324218749999
1.7088134765624998
1.7136474609374999
1.7096191406249999
1.7055908203124999
1.6991455078125
1.7007568359374998
1.714453125
1.699951171875
1.699951171875
1.7080078125
1.7088134765624998
1.703173828125
1.7039794921875
1.7120361328125
1.7128417968749998
1.7168701171874998
1.7128417968749998
1.7120361328125
1.7136474609374999
1.7096191406249999
1.7136474609374999
1.719287109375
1.714453125
1.7217041015624999
1.72412109375
1.7281494140625
1.7200927734375
1.7233154296875
1.7168701171874998
1.7289550781249998
1.716064453125
1.7080078125
1.716064453125
1.7184814453125
1.72412109375
1.7265380859375
1.722509765625
1.716064453125
1.7168701171874998
1.719287109375
1.719287109375
1.719287109375
1.7128417968749998
1.7136474609374999
1.6975341796874999
1.706396484375
1.6959228515625
1.7039794921875
1.7047851562499998
1.7023681640625
1.6951171875
1.7015624999999999
1.7096191406249999
1.7096191406249999
1.7152587890625
1.7200927734375
1.7128417968749998
1.7015624999999999
1.6910888671875
1.7055908203124999
1.6991455078125
1.7152587890625
1.7088134765624998
1.7249267578124998
1.7329833984374998
1.7450683593749998
1.7370117187499998
1.735400390625
1.7289550781249998
1.7136474609374999
1.7217041015624999
1.7184814453125
1.7289550781249998
1.7128417968749998
1.719287109375
1.7184814453125
1.7208984374999998
1.714453125
1.7088134765624998
1.7023681640625
1.71123046875
1.7047851562499998
1.7080078125
1.7168701171874998
1.7136474609374999
1.7088134765624998
1.7055908203124999
1.6927001953124998
1.7080078125
1.7200927734375
1.7233154296875
1.7233154296875
1.72734375
1.6959228515625
1.6910888671875
1.6910888671875
1.7072021484375
1.7104248046875
1.7136474609374999
1.7047851562499998
1.6951171875
1.7047851562499998
1.7080078125
1.719287109375
1.7104248046875
1.706396484375
1.722509765625
1.7152587890625
1.7184814453125
1.72734375
1.7249267578124998
1.7217041015624999
1.732177734375
1.7217041015624999
1.7233154296875
1.7257324218749999
1.7233154296875
1.7249267578124998
1.7217041015624999
1.7152587890625
1.7088134765624998
1.716064453125
1.716064453125
1.7152587890625
1.7136474609374999
1.714453125
1.7136474609374999
1.71123046875
1.7015624999999999
1.687060546875
1.6935058593749999
1.6991455078125
1.699951171875
1.7080078125
1.7039794921875
1.703173828125
1.699951171875
1.7128417968749998
1.7184814453125
1.7337890624999999
1.732177734375
1.7039794921875
1.7039794921875
1.7047851562499998
1.706396484375
1.7047851562499998
1.7023681640625
1.7104248046875
1.72412109375
1.7208984374999998
1.7233154296875
1.7281494140625
1.7184814453125
1.714453125
1.7233154296875
1.7168701171874998
1.7217041015624999
1.72412109375
1.7249267578124998
1.7208984374999998
1.7136474609374999
1.7184814453125
1.716064453125
1.7128417968749998
1.7217041015624999
1.7217041015624999
1.7120361328125
1.71123046875
1.7072021484375
1.703173828125
1.7152587890625
1.7088134765624998
1.71123046875
1.7047851562499998
1.69833984375
1.6959228515625
1.703173828125
1.699951171875
1.7096191406249999
1.7080078125
1.7047851562499998
1.6975341796874999
1.7104248046875
1.7128417968749998
1.716064453125
1.7088134765624998
1.7104248046875
1.7176757812499999
1.7200927734375
1.7168701171874998
1.740234375
1.7370117187499998
1.7394287109375
1.7450683593749998
1.7418457031249999
1.7458740234374999
1.7474853515625
1.7450683593749998
1.7474853515625
1.7474853515625
1.7507080078125
1.735400390625
1.7329833984374998
1.7426513671875
1.7490966796874998
1.7450683593749998
1.7458740234374999
1.754736328125
1.740234375
1.74345703125
1.7297607421874999
1.7297607421874999
1.7281494140625
1.7257324218749999
1.7217041015624999
1.719287109375
1.7184814453125
1.7208984374999998
1.7015624999999999
1.69189453125
1.7096191406249999
1.7128417968749998
1.7176757812499999
1.7200927734375
1.719287109375
1.7104248046875
1.7168701171874998
1.7168701171874998
1.714453125
1.7152587890625
1.716064453125
1.7265380859375
1.7362060546875
1.73056640625
1.7176757812499999
1.7168701171874998
1.7378173828124999
1.7297607421874999
1.7289550781249998
1.7289550781249998
1.7297607421874999
1.732177734375
1.7281494140625
1.7289550781249998
1.722509765625
1.719287109375
1.722509765625
1.714453125
1.7128417968749998
1.7208984374999998
1.732177734375
1.7289550781249998
1.722509765625
1.716064453125
1.7152587890625
1.7088134765624998
1.7096191406249999
1.706396484375
1.6991455078125
1.7072021484375
1.7096191406249999
1.716064453125
1.7152587890625
1.7120361328125
1.7168701171874998
1.71123046875
1.7104248046875
1.714453125
1.7217041015624999
1.7168701171874998
1.7128417968749998
1.7176757812499999
1.7281494140625
1.7265380859375
1.716064453125
1.7168701171874998
1.7265380859375
1.73056640625
1.7289550781249998
1.740234375
1.740234375
1.7410400390624998
1.740234375
1.7370117187499998
1.7523193359375
1.740234375
1.7329833984374998
1.7200927734375
1.7104248046875
1.7208984374999998
1.7297607421874999
1.7281494140625
1.7337890624999999
1.7233154296875
1.7378173828124999
1.767626953125
1.7499023437499999
1.7217041015624999
1.7337890624999999
1.7120361328125
1.69189453125
1.6943115234375
1.703173828125
1.699951171875
1.706396484375
1.7088134765624998
1.706396484375
1.7168701171874998
1.7152587890625
1.7208984374999998
1.7217041015624999
1.7208984374999998
1.7136474609374999
1.7120361328125
1.7136474609374999
1.719287109375
1.722509765625
1.7233154296875
1.7249267578124998
1.7297607421874999
1.732177734375
1.72734375
1.7297607421874999
1.7289550781249998
1.7313720703125
1.7257324218749999
1.7249267578124998
1.7265380859375
1.72734375
1.7249267578124998
1.722509765625
1.7208984374999998
1.7233154296875
1.7208984374999998
1.716064453125
1.7096191406249999
1.7233154296875
1.7096191406249999
1.7184814453125
1.7072021484375
1.7120361328125
1.7096191406249999
1.706396484375
1.7072021484375
1.7168701171874998
1.7128417968749998
1.7120361328125
1.716064453125
1.7080078125
1.7015624999999999
1.6894775390624999
1.6991455078125
1.703173828125
1.703173828125
1.7055908203124999
1.7015624999999999
1.699951171875
1.7047851562499998
1.7047851562499998
1.7080078125
1.7072021484375
1.7096191406249999
1.7217041015624999
1.7313720703125
1.7184814453125
1.7184814453125
1.7136474609374999
1.7152587890625
1.7337890624999999
1.7257324218749999
1.7257324218749999
1.716064453125
1.7096191406249999
1.71123046875
1.7047851562499998
1.7096191406249999
1.7080078125
1.7128417968749998
1.7168701171874998
1.7152587890625
1.7080078125
1.703173828125
1.7007568359374998
1.7047851562499998
1.7047851562499998
1.69833984375
1.6975341796874999
1.6927001953124998
1.6854492187499999
1.6862548828125
1.6749755859375
1.6878662109375
1.69189453125
1.6943115234375
1.6822265625
1.6765869140624998
1.687060546875
1.6894775390624999
1.6959228515625
1.6846435546874998
1.690283203125
1.6967285156249998
1.703173828125
1.6959228515625
1.6935058593749999
1.6991455078125
1.7055908203124999
1.7015624999999999
1.69833984375
1.7088134765624998
1.7047851562499998
1.7023681640625
1.6951171875
1.7096191406249999
1.7007568359374998
1.7007568359374998
1.7015624999999999
1.706396484375
1.714453125
1.7128417968749998
1.7023681640625
1.699951171875
1.6991455078125
1.6967285156249998
1.6959228515625
1.6991455078125
1.6967285156249998
1.6886718749999998
1.6927001953124998
1.7015624999999999
1.699951171875
1.690283203125
1.6975341796874999
1.71123046875
1.6991455078125
1.6991455078125
1.703173828125
1.703173828125
1.7023681640625
1.69189453125
1.69833984375
1.699951171875
1.7007568359374998
1.7700439453124999
1.7023681640625
1.7080078125
1.7168701171874998
1.7257324218749999
1.7208984374999998
1.7184814453125
1.7257324218749999
1.7474853515625
1.7426513671875
1.7184814453125
1.699951171875
1.69833984375
1.6951171875
1.6991455078125
1.703173828125
1.7015624999999999
1.7080078125
1.7104248046875
1.7055908203124999
1.7047851562499998
1.7096191406249999
1.706396484375
1.69833984375
1.69189453125
1.69189453125
1.6975341796874999
1.6894775390624999
1.6878662109375
1.6951171875
1.6943115234375
1.6975341796874999
1.6854492187499999
1.6991455078125
1.71123046875
1.7039794921875
1.7088134765624998
1.7152587890625
1.7088134765624998
1.7080078125
1.6943115234375
1.7015624999999999
1.706396484375
1.7080078125
1.7128417968749998
1.7096191406249999
1.7055908203124999
1.716064453125
1.714453125
1.722509765625
1.7281494140625
1.7217041015624999
1.7120361328125
1.7120361328125
1.7055908203124999
1.7080078125
1.7120361328125
1.7096191406249999
1.706396484375
1.6967285156249998
1.7047851562499998
1.7055908203124999
1.7015624999999999
1.706396484375
1.699951171875
1.69833984375
1.6967285156249998
1.69833984375
1.6910888671875
1.6975341796874999
1.6910888671875
1.6991455078125
1.7047851562499998
1.6975341796874999
1.6967285156249998
1.6927001953124998
1.6830322265625
1.6927001953124998
1.703173828125
1.7120361328125
1.7176757812499999
1.714453125
1.714453125
1.7128417968749998
1.7136474609374999
1.74345703125
1.7345947265625
1.7168701171874998
1.6910888671875
1.71123046875
1.7007568359374998
1.714453125
1.7104248046875
1.699951171875
1.7104248046875
1.7120361328125
1.7096191406249999
1.722509765625
1.738623046875
1.7362060546875
1.7281494140625
1.7007568359374998
1.69189453125
1.699951171875
1.6975341796874999
1.703173828125
1.69833984375
1.6991455078125
1.7015624999999999
1.6927001953124998
1.6878662109375
1.6854492187499999
1.6806152343749998
1.6886718749999998
1.706396484375
1.6967285156249998
1.6830322265625
1.687060546875
1.6991455078125
1.7096191406249999
1.7023681640625
1.6927001953124998
1.6975341796874999
1.699951171875
1.7007568359374998
1.69833984375
1.7080078125
1.703173828125
1.71123046875
1.7128417968749998
1.7128417968749998
1.7120361328125
1.7128417968749998
1.7176757812499999
1.7136474609374999
1.7096191406249999
1.7088134765624998
1.7136474609374999
1.7055908203124999
1.7168701171874998
1.7096191406249999
1.706396484375
1.7072021484375
1.71123046875
1.6959228515625
1.6967285156249998
1.6943115234375
1.714453125
1.7104248046875
1.699951171875
1.6886718749999998
1.69189453125
1.69833984375
1.69833984375
1.6894775390624999
1.6886718749999998
1.6967285156249998
1.7007568359374998
1.69189453125
1.6951171875
1.6935058593749999
1.7023681640625
1.699951171875
1.69833984375
1.7047851562499998
1.6959228515625
1.7047851562499998
1.6991455078125
1.7096191406249999
1.7055908203124999
1.7080078125
1.703173828125
1.7176757812499999
1.7176757812499999
1.7184814453125
1.706396484375
1.7120361328125
1.7152587890625
1.719287109375
1.716064453125
1.7200927734375
1.7152587890625
1.7047851562499998
1.71123046875
1.7088134765624998
1.7055908203124999
1.7088134765624998
1.699951171875
1.7015624999999999
1.706396484375
1.7047851562499998
1.7088134765624998
1.7039794921875
1.6894775390624999
1.6967285156249998
1.69189453125
1.6943115234375
1.6886718749999998
1.6935058593749999
1.6967285156249998
1.6927001953124998
1.6951171875
1.6975341796874999
1.6967285156249998
1.6951171875
1.7047851562499998
1.7039794921875
1.7088134765624998
1.69833984375
1.7015624999999999
1.7007568359374998
1.6951171875
1.6951171875
1.7039794921875
1.7007568359374998
1.722509765625
1.7168701171874998
1.7176757812499999
1.7152587890625
1.7200927734375
1.7208984374999998
1.7442626953125
1.7466796875
1.72412109375
1.7136474609374999
1.6886718749999998
1.6975341796874999
1.6991455078125
1.6935058593749999
1.6991455078125
1.7015624999999999
1.7072021484375
1.7047851562499998
1.706396484375
1.699951171875
1.6959228515625
1.69189453125
1.6951171875
1.6927001953124998
1.6975341796874999
1.6943115234375
1.6894775390624999
1.6927001953124998
1.6927001953124998
1.699951171875
1.6951171875
1.7039794921875
1.703173828125
1.6967285156249998
1.7015624999999999
1.7055908203124999
1.6991455078125
1.7039794921875
1.7168701171874998
1.7088134765624998
1.71123046875
1.714453125
1.7176757812499999
1.7257324218749999
1.714453125
1.7152587890625
1.7168701171874998
1.7072021484375
1.7128417968749998
1.7120361328125
1.7080078125
1.703173828125
1.706396484375
1.7080078125
1.7128417968749998
1.7055908203124999
1.703173828125
1.703173828125
1.7023681640625
1.7047851562499998
1.7096191406249999
1.7096191406249999
1.716064453125
1.7080078125
1.6862548828125
1.6806152343749998
1.6878662109375
1.6943115234375
1.7015624999999999
1.6967285156249998
1.7023681640625
1.6967285156249998
1.6943115234375
1.7015624999999999
1.690283203125
1.6822265625
1.6854492187499999
1.7096191406249999
1.7168701171874998
1.71123046875
1.722509765625
1.714453125
1.7128417968749998
1.7208984374999998
1.7176757812499999
1.7152587890625
1.716064453125
1.7088134765624998
1.7120361328125
1.7208984374999998
1.7184814453125
1.7072021484375
1.687060546875
1.6951171875
1.6967285156249998
1.7152587890625
1.7104248046875
1.7080078125
1.71123046875
1.7088134765624998
1.7015624999999999
1.699951171875
1.7176757812499999
1.7136474609374999
1.7208984374999998
1.7120361328125
1.6878662109375
1.6854492187499999
1.687060546875
1.687060546875
1.6967285156249998
1.687060546875
1.6935058593749999
1.6967285156249998
1.6967285156249998
1.69833984375
1.7023681640625
1.7015624999999999
1.706396484375
1.6991455078125
1.7039794921875
1.6975341796874999
1.7055908203124999
1.706396484375
1.7128417968749998
1.7128417968749998
1.7128417968749998
1.7168701171874998
1.719287109375
1.7120361328125
1.7120361328125
1.703173828125
1.7096191406249999
1.72412109375
1.7080078125
1.706396484375
1.7088134765624998
1.7128417968749998
1.7088134765624998
1.7007568359374998
1.706396484375
1.699951171875
1.71123046875
1.7088134765624998
1.703173828125
1.706396484375
1.699951171875
1.6951171875
1.699951171875
1.6935058593749999
1.6959228515625
1.6846435546874998
1.6951171875
1.6975341796874999
1.6975341796874999
1.6991455078125
1.6975341796874999
1.6943115234375
1.69833984375
1.7047851562499998
1.7023681640625
1.7080078125
1.7088134765624998
1.6943115234375
1.7104248046875
1.7072021484375
1.7088134765624998
1.7120361328125
1.7128417968749998
1.7176757812499999
1.7217041015624999
1.714453125
1.7176757812499999
1.7088134765624998
1.7136474609374999
1.71123046875
1.7096191406249999
1.7128417968749998
1.7120361328125
1.7055908203124999
1.7080078125
1.7080078125
1.7088134765624998
1.7088134765624998
1.703173828125
1.7072021484375
1.7023681640625
1.7007568359374998
1.6991455078125
1.6975341796874999
1.6951171875
1.6951171875
1.6878662109375
1.699951171875
1.6943115234375
1.6894775390624999
1.6967285156249998
1.7015624999999999
1.6967285156249998
1.699951171875
1.69833984375
1.6967285156249998
1.7015624999999999
1.7039794921875
1.7152587890625
1.7007568359374998
1.7072021484375
1.7104248046875
1.7007568359374998
1.699951171875
1.7152587890625
1.7257324218749999
1.7217041015624999
1.719287109375
1.72734375
1.7152587890625
1.7176757812499999
1.7200927734375
1.71123046875
1.7072021484375
1.6959228515625
1.7055908203124999
1.7055908203124999
1.716064453125
1.714453125
1.7096191406249999
1.7088134765624998
1.7047851562499998
1.7007568359374998
1.6975341796874999
1.6951171875
1.69833984375
1.6967285156249998
1.7023681640625
1.6943115234375
1.6854492187499999
1.6862548828125
1.6886718749999998
1.7023681640625
1.7015624999999999
1.699951171875
1.7088134765624998
1.7023681640625
1.6951171875
1.7007568359374998
1.7055908203124999
1.703173828125
1.7015624999999999
1.6935058593749999
1.7055908203124999
1.7136474609374999
1.7104248046875
1.7136474609374999
1.7233154296875
1.716064453125
1.7080078125
1.7047851562499998
1.7104248046875
1.7200927734375
1.7233154296875
1.7233154296875
1.719287109375
1.7088134765624998
1.714453125
1.706396484375
1.6967285156249998
1.7015624999999999
1.7072021484375
1.7088134765624998
1.7055908203124999
1.7023681640625
1.7072021484375
1.703173828125
1.7023681640625
1.69189453125
1.69189453125
1.69189453125
1.7096191406249999
1.7039794921875
1.6886718749999998
1.69189453125
1.6991455078125
1.7015624999999999
1.690283203125
1.7015624999999999
1.7007568359374998
1.6967285156249998
1.7080078125
1.7047851562499998
1.7023681640625
1.7096191406249999
1.7088134765624998
1.69833984375
1.7080078125
1.7168701171874998
1.7136474609374999
1.7176757812499999
1.716064453125
1.7072021484375
1.722509765625
1.719287109375
1.7152587890625
1.7152587890625
1.7120361328125
1.6975341796874999
1.7088134765624998
1.7176757812499999
1.71123046875
1.7023681640625
1.7047851562499998
1.706396484375
1.69833984375
1.69833984375
1.703173828125
1.69833984375
1.699951171875
1.7015624999999999
1.699951171875
1.7039794921875
1.6951171875
1.6991455078125
1.6910888671875
1.6927001953124998
1.6927001953124998
1.6935058593749999
1.6959228515625
1.703173828125
1.69833984375
1.69833984375
1.6991455078125
1.7007568359374998
1.703173828125
1.699951171875
1.7104248046875
1.7176757812499999
1.71123046875
1.7128417968749998
1.7233154296875
1.7249267578124998
1.7208984374999998
1.714453125
1.714453125
1.714453125
1.71123046875
1.7055908203124999
1.7080078125
1.7088134765624998
1.7120361328125
1.7088134765624998
1.7152587890625
1.7080078125
1.7080078125
1.7055908203124999
1.7072021484375
1.7023681640625
1.7007568359374998
1.6959228515625
1.7039794921875
1.69189453125
1.6951171875
1.6991455078125
1.7023681640625
1.6991455078125
1.6959228515625
1.6975341796874999
1.7015624999999999
1.7007568359374998
1.687060546875
1.683837890625
1.69189453125
1.7055908203124999
1.7120361328125
1.7152587890625
1.7104248046875
1.7015624999999999
1.7128417968749998
1.7055908203124999
1.7096191406249999
1.714453125
1.71123046875
1.7096191406249999
1.7208984374999998
1.7257324218749999
1.7168701171874998
1.7080078125
1.7128417968749998
1.7039794921875
1.71123046875
1.7072021484375
1.7039794921875
1.7120361328125
1.71123046875
1.7023681640625
1.7200927734375
1.714453125
1.7047851562499998
1.6975341796874999
1.7047851562499998
1.714453125
1.7088134765624998
1.7007568359374998
1.6894775390624999
1.69189453125
1.69833984375
1.6943115234375
1.7015624999999999
1.69833984375
1.7015624999999999
1.6951171875
1.69833984375
1.699951171875
1.6967285156249998
1.703173828125
1.7080078125
1.7015624999999999
1.7039794921875
1.7096191406249999
1.71123046875
1.7072021484375
1.7088134765624998
1.7080078125
1.71123046875
1.7128417968749998
1.7136474609374999
1.7184814453125
1.7152587890625
1.72412109375
1.7168701171874998
1.7104248046875
1.706396484375
1.7088134765624998
1.7055908203124999
1.71123046875
1.7072021484375
1.7080078125
1.7088134765624998
1.7047851562499998
1.71123046875
1.7039794921875
1.6967285156249998
1.69833984375
1.69833984375
1.6975341796874999
1.7015624999999999
1.6991455078125
1.7080078125
1.6959228515625
1.687060546875
1.683837890625
1.699951171875
1.699951171875
1.706396484375
1.7072021484375
1.6991455078125
1.6951171875
1.7015624999999999
1.7055908203124999
1.7072021484375
1.7055908203124999
1.7023681640625
1.7055908203124999
1.7104248046875
1.7047851562499998
1.7088134765624998
1.7200927734375
1.7233154296875
1.714453125
1.7233154296875
1.7184814453125
1.716064453125
1.7184814453125
1.7096191406249999
1.7047851562499998
1.7176757812499999
1.714453125
1.7096191406249999
1.699951171875
1.7120361328125
1.7120361328125
1.7176757812499999
1.714453125
1.7023681640625
1.703173828125
1.6991455078125
1.7015624999999999
1.6935058593749999
1.69833984375
1.6943115234375
1.6886718749999998
1.6935058593749999
1.6967285156249998
1.6975341796874999
1.7007568359374998
1.6975341796874999
1.69833984375
1.7047851562499998
1.6959228515625
1.6959228515625
1.703173828125
1.7104248046875
1.7023681640625
1.7080078125
1.7055908203124999
1.7104248046875
1.7080078125
1.7184814453125
1.7104248046875
1.7120361328125
1.7039794921875
1.714453125
1.716064453125
1.7289550781249998
1.7233154296875
1.7168701171874998
1.7184814453125
1.7128417968749998
1.7055908203124999
1.7080078125
1.7015624999999999
1.703173828125
1.706396484375
1.7080078125
1.7080078125
1.703173828125
1.6991455078125
1.7039794921875
1.7023681640625
1.6951171875
1.699951171875
1.7047851562499998
1.7015624999999999
1.6886718749999998
1.683837890625
1.69189453125
1.6975341796874999
1.719287109375
1.7088134765624998
1.7007568359374998
1.7007568359374998
1.7015624999999999
1.699951171875
1.7007568359374998
1.706396484375
1.6967285156249998
1.7096191406249999
1.706396484375
1.714453125
1.7184814453125
1.7200927734375
1.7168701171874998
1.714453125
1.7200927734375
1.7088134765624998
1.7072021484375
1.7128417968749998
1.7152587890625
1.7128417968749998
1.7088134765624998
1.7136474609374999
1.7152587890625
1.7055908203124999
1.7096191406249999
1.706396484375
1.7055908203124999
1.7096191406249999
1.716064453125
1.7039794921875
1.699951171875
1.7015624999999999
1.7039794921875
1.690283203125
1.69189453125
1.6951171875
1.6991455078125
1.69189453125
1.6991455078125
1.6967285156249998
1.7039794921875
1.71123046875
1.6927001953124998
1.6886718749999998
1.7007568359374998
1.7096191406249999
1.7047851562499998
1.7047851562499998
1.6991455078125
1.7047851562499998
1.7023681640625
1.7055908203124999
1.7208984374999998
1.7176757812499999
1.7249267578124998
1.7265380859375
1.72734375
1.7200927734375
1.7023681640625
1.714453125
1.716064453125
1.7200927734375
1.7128417968749998
1.7104248046875
1.7055908203124999
1.7136474609374999
1.7039794921875
1.7080078125
1.7176757812499999
1.7128417968749998
1.6959228515625
1.7015624999999999
1.703173828125
1.6991455078125
1.6943115234375
1.6975341796874999
1.6862548828125
1.6967285156249998
1.7015624999999999
1.703173828125
1.699951171875
1.6910888671875
1.6959228515625
1.6959228515625
1.6967285156249998
1.706396484375
1.703173828125
1.6975341796874999
1.7023681640625
1.7055908203124999
1.7088134765624998
1.7088134765624998
1.7120361328125
1.7096191406249999
1.71123046875
1.7136474609374999
1.7217041015624999
1.732177734375
1.7120361328125
1.7200927734375
1.7096191406249999
1.71123046875
1.7128417968749998
1.714453125
1.7088134765624998
1.7128417968749998
1.7047851562499998
1.7080078125
1.706396484375
1.7080078125
1.7128417968749998
1.714453125
1.7128417968749998
1.7007568359374998
1.7072021484375
1.6967285156249998
1.6967285156249998
1.6991455078125
1.6967285156249998
1.6935058593749999
1.69833984375
1.699951171875
1.6886718749999998
1.6910888671875
1.7047851562499998
1.7072021484375
1.687060546875
1.69189453125
1.7007568359374998
1.7047851562499998
1.7055908203124999
1.7104248046875
1.7120361328125
1.7104248046875
1.7023681640625
1.7055908203124999
1.7136474609374999
1.7168701171874998
1.7208984374999998
1.7104248046875
1.7168701171874998
1.71123046875
1.7217041015624999
1.7128417968749998
1.706396484375
1.71123046875
1.7136474609374999
1.7217041015624999
1.7152587890625
1.7176757812499999
1.7096191406249999
1.706396484375
1.7039794921875
1.7055908203124999
1.7023681640625
1.7039794921875
1.699951171875
1.706396484375
1.699951171875
1.7039794921875
1.6951171875
1.6967285156249998
1.6943115234375
1.6951171875
1.699951171875
1.687060546875
1.7023681640625
1.706396484375
1.6959228515625
1.7039794921875
1.7015624999999999
1.7072021484375
1.6991455078125
1.6991455078125
1.7047851562499998
1.6991455078125
1.7184814453125
1.7136474609374999
1.7096191406249999
1.7152587890625
1.7200927734375
1.72412109375
1.7176757812499999
1.7184814453125
1.7200927734375
1.716064453125
1.716064453125
1.719287109375
1.719287109375
1.7072021484375
1.7096191406249999
1.7088134765624998
1.7128417968749998
1.7136474609374999
1.7055908203124999
1.7088134765624998
1.7080078125
1.7015624999999999
1.7047851562499998
1.7047851562499998
1.6967285156249998
1.6935058593749999
1.687060546875
1.6967285156249998
1.6951171875
1.6886718749999998
1.699951171875
1.6951171875
1.6975341796874999
1.7007568359374998
1.69833984375
1.7015624999999999
1.706396484375
1.7015624999999999
1.7080078125
1.706396484375
1.703173828125
1.7072021484375
1.7015624999999999
1.71123046875
1.7128417968749998
1.7088134765624998
1.714453125
1.7200927734375
1.7257324218749999
1.7104248046875
1.7152587890625
1.716064453125
1.7200927734375
1.7120361328125
1.71123046875
1.7104248046875
1.7023681640625
1.71123046875
1.7152587890625
1.7128417968749998
1.716064453125
1.7080078125
1.7136474609374999
1.7128417968749998
1.706396484375
1.6975341796874999
1.6975341796874999
1.6959228515625
1.6935058593749999
1.6943115234375
1.6951171875
1.6910888671875
1.6951171875
1.7007568359374998
1.69833984375
1.69189453125
1.6991455078125
1.7047851562499998
1.6951171875
1.7088134765624998
1.7039794921875
1.7088134765624998
1.7039794921875
1.7015624999999999
1.7055908203124999
1.7184814453125
1.719287109375
1.7217041015624999
1.7176757812499999
1.7200927734375
1.7128417968749998
1.7176757812499999
1.714453125
1.7120361328125
1.7128417968749998
1.7184814453125
1.7184814453125
1.716064453125
1.7015624999999999
1.7088134765624998
1.7200927734375
1.719287109375
1.7096191406249999
1.71123046875
1.7136474609374999
1.7072021484375
1.6951171875
1.7047851562499998
1.6991455078125
1.6943115234375
1.6967285156249998
1.687060546875
1.69833984375
1.6975341796874999
1.703173828125
1.7055908203124999
1.69833984375
1.699951171875
1.699951171875
1.699951171875
1.6967285156249998
1.6991455078125
1.6951171875
1.7015624999999999
1.706396484375
1.7039794921875
1.7104248046875
1.7120361328125
1.7128417968749998
1.7152587890625
1.7039794921875
1.7128417968749998
1.719287109375
1.7329833984374998
1.72412109375
1.7257324218749999
1.716064453125
1.714453125
1.7055908203124999
1.7104248046875
1.7152587890625
1.716064453125
1.7200927734375
1.7200927734375
1.7168701171874998
1.7088134765624998
1.7072021484375
1.6991455078125
1.7007568359374998
1.7007568359374998
1.69833984375
1.69833984375
1.6991455078125
1.6935058593749999
1.6959228515625
1.6943115234375
1.69833984375
1.699951171875
1.7023681640625
1.6975341796874999
1.6975341796874999
1.7039794921875
1.7047851562499998
1.7007568359374998
1.7023681640625
1.699951171875
1.6991455078125
1.7072021484375
1.7080078125
1.7080078125
1.714453125
1.7200927734375
1.7265380859375
1.72734375
1.7249267578124998
1.7208984374999998
1.6894775390624999
1.699951171875
1.7168701171874998
1.7176757812499999
1.7128417968749998
1.7120361328125
1.7088134765624998
1.71123046875
1.7168701171874998
1.7088134765624998
1.7080078125
1.719287109375
1.7184814453125
1.7152587890625
1.706396484375
1.7039794921875
1.6991455078125
1.683837890625
1.69189453125
1.7015624999999999
1.699951171875
1.699951171875
1.69833984375
1.6935058593749999
1.6967285156249998
1.69833984375
1.703173828125
1.7007568359374998
1.7047851562499998
1.7039794921875
1.706396484375
1.7039794921875
1.703173828125
1.706396484375
1.7080078125
1.7080078125
1.719287109375
1.716064453125
1.719287109375
1.7200927734375
1.722509765625
1.716064453125
1.7249267578124998
1.716064453125
1.71123046875
1.7136474609374999
1.716064453125
1.7128417968749998
1.7080078125
1.7120361328125
1.7088134765624998
1.714453125
1.7104248046875
1.714453125
1.71123046875
1.7104248046875
1.7047851562499998
1.7039794921875
1.7015624999999999
1.6951171875
1.6910888671875
1.6967285156249998
1.6967285156249998
1.699951171875
1.6951171875
1.699951171875
1.6894775390624999
1.6967285156249998
1.703173828125
1.7096191406249999
1.71123046875
1.716064453125
1.7072021484375
1.7080078125
1.703173828125
1.703173828125
1.6959228515625
1.7136474609374999
1.7088134765624998
1.71123046875
1.7128417968749998
1.7176757812499999
1.719287109375
1.7152587890625
1.7168701171874998
1.7184814453125
1.719287109375
1.719287109375
1.71123046875
1.71123046875
1.714453125
1.7088134765624998
1.7152587890625
1.7128417968749998
1.7120361328125
1.7047851562499998
1.7055908203124999
1.7104248046875
1.703173828125
1.7055908203124999
1.699951171875
1.6943115234375
1.6935058593749999
1.687060546875
1.6927001953124998
1.6951171875
1.7072021484375
1.706396484375
1.703173828125
1.6935058593749999
1.690283203125
1.6975341796874999
1.6943115234375
1.7015624999999999
1.7047851562499998
1.706396484375
1.716064453125
1.7257324218749999
1.7152587890625
1.7080078125
1.7120361328125
1.7096191406249999
1.7088134765624998
1.7152587890625
1.714453125
1.7208984374999998
1.7176757812499999
1.719287109375
1.7176757812499999
1.7128417968749998
1.7080078125
1.703173828125
1.7080078125
1.7120361328125
1.72734375
1.7233154296875
1.7217041015624999
1.72734375
1.7047851562499998
1.6991455078125
1.6927001953124998
1.7023681640625
1.7072021484375
1.69833984375
1.7023681640625
1.6943115234375
1.6910888671875
1.7007568359374998
1.7023681640625
1.7088134765624998
1.7023681640625
1.6967285156249998
1.6991455078125
1.7023681640625
1.7088134765624998
1.6943115234375
1.7023681640625
1.7039794921875
1.7080078125
1.7039794921875
1.7072021484375
1.7120361328125
1.7128417968749998
1.716064453125
1.716064453125
1.7152587890625
1.7281494140625
1.7168701171874998
1.716064453125
1.716064453125
1.7249267578124998
1.7136474609374999
1.719287109375
1.71123046875
1.714453125
1.714453125
1.7120361328125
1.7080078125
1.7015624999999999
1.7047851562499998
1.71123046875
1.7128417968749998
1.706396484375
1.7096191406249999
1.706396484375
1.7023681640625
1.7072021484375
1.699951171875
1.69189453125
1.6822265625
1.6886718749999998
1.6967285156249998
1.7055908203124999
1.7055908203124999
1.6967285156249998
1.706396484375
1.6951171875
1.71123046875
1.7080078125
1.7055908203124999
1.7023681640625
1.7088134765624998
1.7072021484375
1.71123046875
1.7136474609374999
1.7120361328125
1.7104248046875
1.7096191406249999
1.72412109375
1.72412109375
1.722509765625
1.72734375
1.7208984374999998
1.716064453125
1.716064453125
1.7096191406249999
1.703173828125
1.7184814453125
1.716064453125
1.72412109375
1.7072021484375
1.7072021484375
1.7055908203124999
1.7055908203124999
1.7104248046875
1.6935058593749999
1.6967285156249998
1.699951171875
1.7039794921875
1.6991455078125
1.690283203125
1.6959228515625
1.69833984375
1.703173828125
1.7265380859375
1.7378173828124999
1.7378173828124999
1.7023681640625
1.6846435546874998
1.6894775390624999
1.6927001953124998
1.7023681640625
1.6943115234375
1.7080078125
1.7039794921875
1.7039794921875
1.7047851562499998
1.7120361328125
1.7136474609374999
1.7168701171874998
1.7233154296875
1.7265380859375
1.719287109375
1.719287109375
1.7176757812499999
1.719287109375
1.7176757812499999
1.71123046875
1.7128417968749998
1.7168701171874998
1.7088134765624998
1.71123046875
1.7184814453125
1.7217041015624999
1.706396484375
1.7047851562499998
1.7047851562499998
1.7007568359374998
1.7023681640625
1.6991455078125
1.7072021484375
1.6975341796874999
1.6991455078125
1.6886718749999998
1.6951171875
1.6959228515625
1.69833984375
1.6927001953124998
1.6991455078125
1.7104248046875
1.6967285156249998
1.7072021484375
1.7088134765624998
1.7080078125
1.699951171875
1.7080078125
1.69189453125
1.7096191406249999
1.7168701171874998
1.7152587890625
1.7104248046875
1.7104248046875
1.719287109375
1.7176757812499999
1.714453125
1.7217041015624999
1.7152587890625
1.716064453125
1.714453125
1.722509765625
1.722509765625
1.71123046875
1.7128417968749998
1.716064453125
1.706396484375
1.7096191406249999
1.7072021484375
1.7047851562499998
1.716064453125
1.7080078125
1.690283203125
1.7096191406249999
1.6991455078125
1.7007568359374998
1.69833984375
1.6967285156249998
1.6975341796874999
1.6959228515625
1.6967285156249998
1.699951171875
1.706396484375
1.7055908203124999
1.7023681640625
1.69833984375
1.7007568359374998
1.699951171875
1.699951171875
1.7047851562499998
1.7088134765624998
1.7120361328125
1.7120361328125
1.7208984374999998
1.7072021484375
1.7047851562499998
1.7080078125
1.7128417968749998
1.7281494140625
1.72412109375
1.7265380859375
1.7200927734375
1.7233154296875
1.714453125
1.7136474609374999
1.719287109375
1.7176757812499999
1.7080078125
1.7120361328125
1.7136474609374999
1.703173828125
1.7055908203124999
1.7088134765624998
1.703173828125
1.7104248046875
1.7096191406249999
1.7023681640625
1.699951171875
1.699951171875
1.6806152343749998
1.6927001953124998
1.6910888671875
1.6854492187499999
1.6878662109375
1.69189453125
1.69189453125
1.6935058593749999
1.7015624999999999
1.7047851562499998
1.71123046875
1.7023681640625
1.7080078125
1.706396484375
1.6991455078125
1.714453125
1.71123046875
1.7184814453125
1.72412109375
1.719287109375
1.7176757812499999
1.7120361328125
1.7233154296875
1.72734375
1.7217041015624999
1.7080078125
1.7007568359374998
1.7152587890625
1.716064453125
1.7176757812499999
1.72412109375
1.7096191406249999
1.7080078125
1.7208984374999998
1.7297607421874999
1.7184814453125
1.7039794921875
1.703173828125
1.7047851562499998
1.7039794921875
1.7015624999999999
1.6991455078125
1.6935058593749999
1.6943115234375
1.6991455078125
1.6975341796874999
1.7055908203124999
1.7072021484375
1.7088134765624998
1.7096191406249999
1.7104248046875
1.7023681640625
1.69833984375
1.7039794921875
1.7007568359374998
1.6967285156249998
1.7015624999999999
1.6967285156249998
1.71123046875
1.7136474609374999
1.7128417968749998
1.7120361328125
1.71123046875
1.722509765625
1.73056640625
1.7176757812499999
1.7039794921875
1.7136474609374999
1.7184814453125
1.7233154296875
1.7184814453125
1.7128417968749998
1.699951171875
1.703173828125
1.7128417968749998
1.7080078125
1.7104248046875
1.7096191406249999
1.7088134765624998
1.6991455078125
1.69833984375
1.703173828125
1.6927001953124998
1.7023681640625
1.7047851562499998
1.7136474609374999
1.71123046875
1.716064453125
1.6975341796874999
1.687060546875
1.6814208984374999
1.7023681640625
1.7055908203124999
1.7088134765624998
1.7088134765624998
1.7015624999999999
1.7015624999999999
1.703173828125
1.7015624999999999
1.699951171875
1.7120361328125
1.7208984374999998
1.719287109375
1.719287109375
1.7176757812499999
1.7184814453125
1.7176757812499999
1.719287109375
1.7176757812499999
1.7120361328125
1.7128417968749998
1.716064453125
1.716064453125
1.716064453125
1.722509765625
1.7152587890625
1.714453125
1.7080078125
1.7096191406249999
1.719287109375
1.7080078125
1.6894775390624999
1.6943115234375
1.706396484375
1.7136474609374999
1.69833984375
1.7039794921875
1.69833984375
1.6935058593749999
1.7023681640625
1.7007568359374998
1.6975341796874999
1.6975341796874999
1.7015624999999999
1.6991455078125
1.7104248046875
1.706396484375
1.7047851562499998
1.716064453125
1.7096191406249999
1.71123046875
1.7096191406249999
1.7096191406249999
1.7136474609374999
1.7120361328125
1.7136474609374999
1.71123046875
1.7184814453125
1.7249267578124998
1.722509765625
1.716064453125
1.722509765625
1.7120361328125
1.7168701171874998
1.7120361328125
1.7128417968749998
1.7168701171874998
1.7136474609374999
1.7136474609374999
1.7104248046875
1.706396484375
1.7104248046875
1.716064453125
1.7055908203124999
1.7039794921875
1.7015624999999999
1.7039794921875
1.6975341796874999
1.6935058593749999
1.6959228515625
1.6951171875
1.6967285156249998
1.6935058593749999
1.7055908203124999
1.7039794921875
1.7128417968749998
1.7039794921875
1.703173828125
1.7015624999999999
1.7039794921875
1.7039794921875
1.7039794921875
1.7128417968749998
1.703173828125
1.7080078125
1.7039794921875
1.7217041015624999
1.719287109375
1.714453125
1.72412109375
1.7208984374999998
1.714453125
1.7184814453125
1.7152587890625
1.7168701171874998
1.7257324218749999
1.7104248046875
1.7136474609374999
1.71123046875
1.7128417968749998
1.71123046875
1.7096191406249999
1.7096191406249999
1.7072021484375
1.7120361328125
1.7080078125
1.7080078125
1.7072021484375
1.7015624999999999
1.7072021484375
1.6886718749999998
1.6854492187499999
1.6910888671875
1.7047851562499998
1.7047851562499998
1.7047851562499998
1.6991455078125
1.6967285156249998
1.7023681640625
1.6991455078125
1.7007568359374998
1.7104248046875
1.7055908203124999
1.71123046875
1.7055908203124999
1.7072021484375
1.7096191406249999
1.7096191406249999
1.714453125
1.7072021484375
1.7200927734375
1.7168701171874998
1.719287109375
1.7249267578124998
1.7176757812499999
1.7208984374999998
1.7208984374999998
1.719287109375
1.71123046875
1.7128417968749998
1.7047851562499998
1.7120361328125
1.7104248046875
1.7104248046875
1.7176757812499999
1.719287109375
1.7217041015624999
1.7184814453125
1.6975341796874999
1.703173828125
1.6991455078125
1.6975341796874999
1.6910888671875
1.6943115234375
1.7015624999999999
1.7015624999999999
1.6967285156249998
1.7023681640625
1.6975341796874999
1.7039794921875
1.7015624999999999
1.706396484375
1.7015624999999999
1.7055908203124999
1.7088134765624998
1.7055908203124999
1.7055908203124999
1.7088134765624998
1.703173828125
1.7047851562499998
1.71123046875
1.7136474609374999
1.716064453125
1.7208984374999998
1.7128417968749998
1.714453125
1.7337890624999999
1.7289550781249998
1.7208984374999998
1.7128417968749998
1.7152587890625
1.7120361328125
1.706396484375
1.7096191406249999
1.7120361328125
1.706396484375
1.703173828125
1.7120361328125
1.7136474609374999
1.7152587890625
1.7088134765624998
1.699951171875
1.6951171875
1.6951171875
1.7168701171874998
1.7176757812499999
1.6967285156249998
1.6935058593749999
1.6894775390624999
1.69189453125
1.7072021484375
1.6959228515625
1.7015624999999999
1.7015624999999999
1.703173828125
1.7128417968749998
1.7007568359374998
1.7055908203124999
1.7015624999999999
1.6991455078125
1.7096191406249999
1.71123046875
1.7168701171874998
1.7184814453125
1.714453125
1.7257324218749999
1.719287109375
1.7168701171874998
1.7208984374999998
1.716064453125
1.7200927734375
1.7208984374999998
1.7208984374999998
1.716064453125
1.7136474609374999
1.714453125
1.7136474609374999
1.7152587890625
1.7096191406249999
1.7096191406249999
1.7152587890625
1.7039794921875
1.7120361328125
1.703173828125
1.703173828125
1.7055908203124999
1.6959228515625
1.690283203125
1.6991455078125
1.7055908203124999
1.7015624999999999
1.69189453125
1.69189453125
1.7072021484375
1.7072021484375
1.7023681640625
1.703173828125
1.7023681640625
1.7015624999999999
1.706396484375
1.7072021484375
1.7072021484375
1.7055908203124999
1.703173828125
1.7128417968749998
1.7176757812499999
1.7176757812499999
1.7184814453125
1.7233154296875
1.7249267578124998
1.7257324218749999
1.7233154296875
1.7168701171874998
1.7184814453125
1.714453125
1.71123046875
1.7096191406249999
1.7096191406249999
1.71123046875
1.7168701171874998
1.7128417968749998
1.7072021484375
1.7104248046875
1.7128417968749998
1.706396484375
1.7047851562499998
1.706396484375
1.6975341796874999
1.699951171875
1.6886718749999998
1.69833984375
1.6991455078125
1.6935058593749999
1.69833984375
1.706396484375
1.6967285156249998
1.703173828125
1.7023681640625
1.7096191406249999
1.7047851562499998
1.699951171875
1.7023681640625
1.7096191406249999
1.7047851562499998
1.6959228515625
1.714453125
1.7184814453125
1.71123046875
1.7249267578124998
1.7184814453125
1.716064453125
1.7136474609374999
1.7168701171874998
1.7249267578124998
1.72412109375
1.7136474609374999
1.7128417968749998
1.7096191406249999
1.7128417968749998
1.7128417968749998
1.7152587890625
1.7128417968749998
1.7136474609374999
1.7136474609374999
1.7104248046875
1.7080078125
1.7128417968749998
1.7096191406249999
1.7096191406249999
1.7055908203124999
1.6910888671875
1.7047851562499998
1.6894775390624999
1.6910888671875
1.703173828125
1.69833984375
1.6935058593749999
1.6975341796874999
1.7055908203124999
1.7088134765624998
1.7023681640625
1.7023681640625
1.7072021484375
1.7039794921875
1.7047851562499998
1.7096191406249999
1.6991455078125
1.71123046875
1.714453125
1.7176757812499999
1.7088134765624998
1.7257324218749999
1.7176757812499999
1.7249267578124998
1.7217041015624999
1.7208984374999998
1.7152587890625
1.719287109375
1.7184814453125
1.7168701171874998
1.7096191406249999
1.716064453125
1.714453125
1.71123046875
1.7055908203124999
1.7080078125
1.7088134765624998
1.719287109375
1.716064453125
1.7039794921875
1.706396484375
1.706396484375
1.703173828125
1.6935058593749999
1.6975341796874999
1.6935058593749999
1.69833984375
1.699951171875
1.699951171875
1.6959228515625
1.7007568359374998
1.7088134765624998
1.703173828125
1.6967285156249998
1.7072021484375
1.716064453125
1.714453125
1.7096191406249999
1.7039794921875
1.7120361328125
1.7055908203124999
1.7128417968749998
1.7176757812499999
1.7208984374999998
1.7233154296875
1.72412109375
1.7120361328125
1.7096191406249999
1.7249267578124998
1.7208984374999998
1.7152587890625
1.719287109375
1.71123046875
1.7136474609374999
1.7128417968749998
1.7080078125
1.703173828125
1.71123046875
1.7080078125
1.7096191406249999
1.7128417968749998
1.7104248046875
1.7039794921875
1.69833984375
1.7039794921875
1.6959228515625
1.7023681640625
1.6975341796874999
1.6935058593749999
1.6943115234375
1.6991455078125
1.7023681640625
1.69833984375
1.7128417968749998
1.7023681640625
1.7055908203124999
1.703173828125
1.7080078125
1.703173828125
1.7055908203124999
1.706396484375
1.6967285156249998
1.7039794921875
1.714453125
1.7168701171874998
1.7217041015624999
1.7208984374999998
1.7176757812499999
1.7257324218749999
1.7233154296875
1.722509765625
1.7337890624999999
1.7168701171874998
1.7055908203124999
1.7072021484375
1.7072021484375
1.7168701171874998
1.714453125
1.71123046875
1.7208984374999998
1.7055908203124999
1.699951171875
1.7176757812499999
1.703173828125
1.699951171875
1.703173828125
1.6975341796874999
1.6951171875
1.6991455078125
1.7023681640625
1.6943115234375
1.6991455078125
1.7023681640625
1.69833984375
1.6959228515625
1.6991455078125
1.7047851562499998
1.7104248046875
1.6975341796874999
1.7080078125
1.7072021484375
1.7088134765624998
1.7055908203124999
1.7023681640625
1.7128417968749998
1.7136474609374999
1.7104248046875
1.7184814453125
1.7168701171874998
1.722509765625
1.7208984374999998
1.7176757812499999
1.7217041015624999
1.7136474609374999
1.716064453125
1.71123046875
1.7184814453125
1.7152587890625
1.7128417968749998
1.7047851562499998
1.7088134765624998
1.7104248046875
1.71123046875
1.7088134765624998
1.7217041015624999
1.7136474609374999
1.71123046875
1.7104248046875
1.7088134765624998
1.7096191406249999
1.6814208984374999
1.6830322265625
1.6975341796874999
1.6991455078125
1.7023681640625
1.69833984375
