1.5726562499999999
1.5436523437499998
1.546875
1.5460693359375
1.542041015625
1.5243164062499999
0.9708251953125
1.4123291015625
1.6024658203125
1.5412353515625
1.5718505859374998
1.6588623046875
1.8747802734374999
1.9134521484375
1.6105224609375
1.5355957031249998
1.5033691406249998
1.5114257812499998
1.4993408203124998
1.5073974609374998
1.513037109375
1.490478515625
1.477587890625
1.5073974609374998
1.493701171875
1.4961181640624999
1.4977294921875
1.6975341796874999
1.8369140625
1.45341796875
1.509814453125
1.493701171875
1.3833251953124999
1.2697265624999998
1.2987304687499999
1.31162109375
1.4316650390624999
1.4896728515625
1.4961181640624999
1.5073974609374998
1.5347900390625
1.53076171875
1.5275390624999998
1.558154296875
1.5436523437499998
1.5460693359375
1.5428466796875
1.5235107421874998
1.2101074218749999
1.4066894531249998
1.611328125
1.5436523437499998
1.558154296875
1.6653076171874999
1.73056640625
2.02705078125
1.603271484375
1.51787109375
1.4993408203124998
1.4928955078125
1.490478515625
1.4888671875
1.493701171875
1.4896728515625
1.4864501953125
1.4961181640624999
1.4848388671875
1.50498046875
1.4993408203124998
1.6878662109375
1.8707519531249999
1.464697265625
1.5073974609374998
1.4671142578124998
1.42119140625
1.3672119140624999
1.3446533203125
1.313232421875
1.4091064453125
1.480810546875
1.5073974609374998
1.4993408203124998
1.5154541015624998
1.5380126953125
1.53076171875
1.542041015625
1.5557373046874998
1.5484863281249999
1.5396240234374998
1.5202880859374999
1.2286376953125
1.1738525390624999
1.622607421875
1.55009765625
1.5484863281249999
1.6290527343749999
1.7168701171874998
2.023828125
1.6290527343749999
1.5476806640624998
1.5138427734375
1.4864501953125
1.4896728515625
1.5057861328125
1.5082031249999999
1.5073974609374998
1.4800048828124999
1.4928955078125
1.48564453125
1.506591796875
1.493701171875
1.5057861328125
2.03994140625
1.448583984375
1.4816162109375
1.4888671875
1.4074951171874999
1.3672119140624999
1.2882568359375
1.32451171875
1.40830078125
1.4574462890625
1.5082031249999999
1.5186767578125
1.5114257812499998
1.542041015625
1.5412353515625
1.5766845703124999
1.522705078125
1.53076171875
1.5460693359375
1.5396240234374998
1.5235107421874998
1.1295410156249999
1.62744140625
1.56943359375
1.5637939453124998
1.61455078125
1.654833984375
2.0173828124999997
1.67578125
1.558154296875
1.5009521484375
1.4888671875
1.4832275390624998
1.506591796875
1.5090087890625
1.4993408203124998
1.4872558593749998
1.5057861328125
1.5001464843749999
1.4977294921875
1.4920898437499999
1.49853515625
2.03671875
1.5138427734375
1.4928955078125
1.4993408203124998
1.4429443359374998
1.3631835937499999
1.2181640624999999
1.3204833984375
1.3768798828125
1.4832275390624998
1.4977294921875
1.5218994140625
1.5122314453124999
1.5476806640624998
1.53076171875
1.5484863281249999
1.561376953125
1.529150390625
1.538818359375
1.5404296874999999
1.5218994140625
0.961962890625
1.6129394531249999
1.5428466796875
1.5565429687499999
1.6242187499999998
1.6363037109374998
2.0455810546874997
1.7579589843749999
1.5355957031249998
1.513037109375
1.4735595703125
1.4928955078125
1.5186767578125
1.493701171875
1.5106201171875
1.4872558593749998
1.496923828125
1.5033691406249998
1.5017578125
1.52109375
1.4888671875
2.0343017578125
1.52109375
1.4711425781249998
1.5025634765625
1.458251953125
1.3946044921874998
1.22138671875
1.32451171875
1.3656005859375
1.4501953125
1.496923828125
1.5033691406249998
1.5235107421874998
1.5492919921875
1.5283447265624999
1.5364013671874999
1.5541259765625
1.5412353515625
1.5380126953125
1.5509033203125
1.5138427734375
0.974853515625
1.5331787109375
1.545263671875
1.5654052734375
1.5702392578125
1.658056640625
1.977099609375
1.803076171875
1.5863525390625
1.5082031249999999
1.5033691406249998
1.49853515625
1.50498046875
1.506591796875
1.509814453125
1.4864501953125
1.4791992187499998
1.50498046875
1.50498046875
1.49853515625
1.4993408203124998
1.9529296875
1.52109375
1.4622802734375
1.5009521484375
1.477587890625
1.3929931640625
1.219775390625
1.2995361328125
1.3784912109374998
1.4655029296875
1.48564453125
1.525927734375
1.49853515625
1.5315673828124998
1.545263671875
1.5565429687499999
1.5364013671874999
1.533984375
1.5331787109375
1.5347900390625
1.5243164062499999
0.9692138671874999
1.5154541015624998
1.5992431640625
1.51787109375
1.5879638671874998
1.65966796875
1.80791015625
1.7901855468749999
1.5976318359375
1.5186767578125
1.4953124999999998
1.4880615234374999
1.5073974609374998
1.496923828125
1.529150390625
1.5073974609374998
1.5009521484375
1.5041748046874999
1.49853515625
1.4977294921875
1.4993408203124998
1.931982421875
1.6773925781249999
1.4348876953124998
1.5090087890625
1.4759765624999999
1.37607421875
1.2189697265625
1.3317626953125
1.3341796874999998
1.4687255859375
1.4864501953125
1.5251220703125
1.5057861328125
1.545263671875
1.5428466796875
1.522705078125
1.5597656249999998
1.5517089843749998
1.55009765625
1.5347900390625
1.5275390624999998
1.0046630859374999
1.3639892578125
1.5807128906249999
1.525927734375
1.56943359375
1.6564453124999998
1.8820312499999998
1.8892822265625
1.6048828124999999
1.5170654296875
1.4840332031249999
1.4880615234374999
1.5154541015624998
1.4832275390624998
1.522705078125
1.4840332031249999
1.477587890625
1.5082031249999999
1.4977294921875
1.5017578125
1.5033691406249998
1.5944091796875
1.6943115234375
1.45341796875
1.4767822265625
1.4791992187499998
1.3784912109374998
1.3204833984375
1.2858398437499998
1.3494873046875
1.4389160156249998
1.482421875
1.5017578125
1.5194824218749998
1.5251220703125
1.5380126953125
1.5396240234374998
1.5436523437499998
1.5396240234374998
1.5138427734375
1.542041015625
1.5404296874999999
1.023193359375
1.351904296875
1.625830078125
1.4526123046875
1.56943359375
1.6588623046875
1.690283203125
1.972265625
1.6290527343749999
1.5170654296875
1.5082031249999999
1.5009521484375
1.4977294921875
1.4920898437499999
1.5073974609374998
1.4977294921875
1.4928955078125
1.4864501953125
1.49853515625
1.5025634765625
1.50498046875
1.5960205078124998
1.912646484375
1.4518066406249999
1.4864501953125
1.4920898437499999
1.40830078125
1.3188720703124999
1.297119140625
1.3253173828125
1.4308593749999998
1.4888671875
1.50498046875
1.5114257812499998
1.5283447265624999
1.546875
1.5331787109375
1.5436523437499998
1.5364013671874999
1.5412353515625
1.5347900390625
1.533984375
1.38896484375
1.3365966796875
1.6218017578125
1.5299560546875
1.5621826171875
1.6556396484375
1.6620849609375
2.0302734375
1.6290527343749999
1.590380859375
1.4783935546875
1.4767822265625
1.4888671875
1.49853515625
1.5057861328125
1.482421875
1.4888671875
1.4848388671875
1.50498046875
1.5017578125
1.5017578125
1.4993408203124998
1.9037841796875
1.4800048828124999
1.4872558593749998
1.4783935546875
1.4356933593749999
1.364794921875
1.2415283203124998
1.3301513671874998
1.4010498046875
1.4759765624999999
1.5001464843749999
1.5186767578125
1.5243164062499999
1.5283447265624999
1.5347900390625
1.5404296874999999
1.545263671875
1.5364013671874999
1.5404296874999999
1.5283447265624999
1.3929931640625
1.103759765625
1.5992431640625
1.5355957031249998
1.554931640625
1.593603515625
1.6967285156249998
2.02705078125
1.6822265625
1.5492919921875
1.5082031249999999
1.496923828125
1.5057861328125
1.5009521484375
1.50498046875
1.513037109375
1.4719482421874999
1.4896728515625
1.50498046875
1.5033691406249998
1.5017578125
1.5025634765625
2.0391357421875
1.461474609375
1.4888671875
1.4880615234374999
1.4203857421875
1.3994384765624999
1.203662109375
1.3124267578125
1.4010498046875
1.4655029296875
1.5033691406249998
1.5186767578125
1.5323730468749999
1.5283447265624999
1.5323730468749999
1.5573486328125
1.5444580078124999
1.542041015625
1.5517089843749998
1.525927734375
1.525927734375
1.1053710937499999
1.59521484375
1.5605712890624999
1.5621826171875
1.6121337890624998
1.6459716796875
1.896533203125
1.7257324218749999
1.5573486328125
1.52109375
1.4993408203124998
1.4977294921875
1.5138427734375
1.4953124999999998
1.5041748046874999
1.50498046875
1.4751708984374998
1.4953124999999998
1.5057861328125
1.4945068359375
1.496923828125
2.0343017578125
1.5460693359375
1.4526123046875
1.5106201171875
1.456640625
1.4042724609375
1.2109130859375
1.30517578125
1.3631835937499999
1.4840332031249999
1.49853515625
1.5186767578125
1.49853515625
1.5533203125
1.5412353515625
1.5380126953125
1.5492919921875
1.533984375
1.5267333984375
1.533984375
1.525927734375
0.9555175781249999
1.5017578125
1.5621826171875
1.5460693359375
1.5807128906249999
1.6427490234375
1.9706542968749998
1.8111328125
1.5565429687499999
1.5009521484375
1.4888671875
1.490478515625
1.5090087890625
1.5057861328125
1.5017578125
1.4848388671875
1.4928955078125
1.482421875
1.496923828125
1.4961181640624999
1.4872558593749998
1.869140625
1.5702392578125
1.456640625
1.5041748046874999
1.448583984375
1.397021484375
1.2858398437499998
1.3237060546875
1.3752685546874999
1.4630859374999998
1.482421875
1.529150390625
1.5025634765625
1.538818359375
1.522705078125
1.5323730468749999
1.56298828125
1.5323730468749999
1.5412353515625
1.5436523437499998
1.533984375
0.936181640625
1.4993408203124998
1.6008544921874999
1.545263671875
1.585546875
1.6411376953124999
1.9376220703125
1.8256347656249998
1.58232421875
1.525927734375
1.4920898437499999
1.493701171875
1.509814453125
1.4888671875
1.5106201171875
1.4872558593749998
1.4783935546875
1.5009521484375
1.5009521484375
1.5041748046874999
1.5033691406249998
1.8473876953125
1.740234375
1.4703369140625
1.4961181640624999
1.4679199218749999
1.3825195312499998
1.2479736328125
1.3124267578125
1.340625
1.4598632812499999
1.4711425781249998
1.4993408203124998
1.509814453125
1.5364013671874999
1.529150390625
1.5509033203125
1.5517089843749998
1.529150390625
1.538818359375
1.5436523437499998
1.509814453125
1.1174560546874999
1.4816162109375
1.593603515625
1.533984375
1.5734619140625
1.6645019531249998
1.7055908203124999
1.9907958984374998
1.6169677734374999
1.5218994140625
1.482421875
1.4791992187499998
1.5090087890625
1.49853515625
1.513037109375
1.4872558593749998
1.490478515625
1.4920898437499999
1.506591796875
1.4977294921875
1.4961181640624999
1.8224121093749999
1.7337890624999999
1.4493896484375
1.5057861328125
1.4800048828124999
1.3954101562499999
1.3575439453125
1.313232421875
1.3478759765625
1.4203857421875
1.5025634765625
1.5057861328125
1.5138427734375
1.5412353515625
1.5315673828124998
1.5380126953125
1.5525146484374999
1.546875
1.5251220703125
1.5267333984375
1.51787109375
1.1367919921875
1.2745605468749999
1.5815185546875
1.5428466796875
1.5476806640624998
1.6330810546874999
1.7176757812499999
1.977099609375
1.6532226562499999
1.542041015625
1.490478515625
1.4888671875
1.5017578125
1.490478515625
1.506591796875
1.5017578125
1.493701171875
1.49853515625
1.4961181640624999
1.48564453125
1.5025634765625
1.5412353515625
1.754736328125
1.4880615234374999
1.4751708984374998
1.493701171875
1.3817138671875
1.3543212890624998
1.21171875
1.31162109375
1.4074951171874999
1.47275390625
1.5090087890625
1.5033691406249998
1.529150390625
1.5364013671874999
1.5114257812499998
1.542041015625
1.522705078125
1.5082031249999999
1.509814453125
1.5275390624999998
1.1150390625
1.252001953125
1.6153564453125
1.5436523437499998
1.5533203125
1.622607421875
1.67900390625
1.9948242187499998
1.6645019531249998
1.5509033203125
1.5009521484375
1.4832275390624998
1.5057861328125
1.5154541015624998
1.4945068359375
1.5106201171875
1.4928955078125
1.490478515625
1.4928955078125
1.5114257812499998
1.4912841796874998
1.5275390624999998
1.9875732421874999
1.4872558593749998
1.493701171875
1.5057861328125
1.4236083984374999
1.3551269531249999
1.255224609375
1.2930908203125
1.4034667968749999
1.4800048828124999
1.5082031249999999
1.529150390625
1.5323730468749999
1.5662109375
1.5492919921875
1.5557373046874998
1.5492919921875
1.5323730468749999
1.5460693359375
1.545263671875
1.4961181640624999
1.02158203125
1.6209960937499999
1.5331787109375
1.5509033203125
1.641943359375
1.66611328125
1.9625976562499998
1.6886718749999998
1.542041015625
1.4977294921875
1.4961181640624999
1.513037109375
1.5243164062499999
1.51787109375
1.48564453125
1.4791992187499998
1.4687255859375
1.5082031249999999
1.5082031249999999
1.49853515625
1.4872558593749998
1.9787109374999998
1.4888671875
1.4888671875
1.45341796875
1.4107177734374998
1.3462646484374998
1.1609619140625
1.2745605468749999
1.3261230468749998
1.4332763671875
1.4800048828124999
1.4912841796874998
1.477587890625
1.5202880859374999
1.5090087890625
1.5323730468749999
1.5654052734375
1.5404296874999999
1.5323730468749999
1.5460693359375
1.4848388671875
1.0127197265624999
1.5573486328125
1.5533203125
1.5476806640624998
1.6000488281249998
1.6475830078125
2.0633056640625
1.7531249999999998
1.5887695312499999
1.522705078125
1.5154541015624998
1.5146484375
1.5202880859374999
1.506591796875
1.5235107421874998
1.4848388671875
1.4848388671875
1.48564453125
1.5017578125
1.5267333984375
1.5106201171875
2.0552490234375
1.4977294921875
1.493701171875
1.52109375
1.4759765624999999
1.3857421875
1.1859374999999999
1.3019531249999998
1.3664062499999998
1.4590576171874998
1.4832275390624998
1.533984375
1.5323730468749999
1.5557373046874998
1.554931640625
1.5662109375
1.5541259765625
1.51787109375
1.509814453125
1.52109375
1.5444580078124999
0.9998291015624999
1.5605712890624999
1.5509033203125
1.5001464843749999
1.6056884765625
1.6379150390625
1.812744140625
1.8183837890624999
1.603271484375
1.5323730468749999
1.5106201171875
1.4872558593749998
1.5218994140625
1.5186767578125
1.5275390624999998
1.4880615234374999
1.477587890625
1.496923828125
1.49853515625
1.5186767578125
1.5001464843749999
2.0431640625
1.6008544921874999
1.46630859375
1.5122314453124999
1.4655029296875
1.384130859375
1.2020507812499999
1.2802001953125
1.3502929687499998
1.4236083984374999
1.49853515625
1.522705078125
1.506591796875
1.554931640625
1.5299560546875
1.53720703125
1.53076171875
1.5243164062499999
1.5243164062499999
1.5186767578125
1.493701171875
0.9128173828124999
1.4139404296875
1.59521484375
1.5557373046874998
1.5863525390625
1.651611328125
1.8361083984375
1.972265625
1.6475830078125
1.529150390625
1.4953124999999998
1.5001464843749999
1.5082031249999999
1.4711425781249998
1.506591796875
1.506591796875
1.513037109375
1.506591796875
1.5057861328125
1.5090087890625
1.4872558593749998
1.7619873046874999
1.6137451171875
1.4574462890625
1.5033691406249998
1.4791992187499998
1.4042724609375
1.2987304687499999
1.2697265624999998
1.3349853515624999
1.426025390625
1.4848388671875
1.5243164062499999
1.49853515625
1.5122314453124999
1.5243164062499999
1.5275390624999998
1.5509033203125
1.5557373046874998
1.538818359375
1.5541259765625
1.5315673828124998
0.9216796875
1.448583984375
1.5944091796875
1.522705078125
1.5637939453124998
1.662890625
1.706396484375
1.8820312499999998
1.6298583984375
1.5597656249999998
1.5082031249999999
1.5218994140625
1.5194824218749998
1.5114257812499998
1.52109375
1.4840332031249999
1.4606689453125
1.4928955078125
1.4961181640624999
1.5017578125
1.50498046875
1.77890625
1.815966796875
1.4598632812499999
1.5041748046874999
1.4759765624999999
1.3801025390625
1.2938964843749998
1.287451171875
1.329345703125
1.4219970703125
1.4711425781249998
1.49853515625
1.4977294921875
1.533984375
1.5412353515625
1.5428466796875
1.587158203125
1.5235107421874998
1.53076171875
1.5364013671874999
1.5323730468749999
1.1802978515625
1.1625732421875
1.5815185546875
1.5428466796875
1.5686279296874999
1.6685302734374998
1.6975341796874999
2.0020751953125
1.6822265625
1.5621826171875
1.53076171875
1.5090087890625
1.5001464843749999
1.5082031249999999
1.51787109375
1.4840332031249999
1.4832275390624998
1.4880615234374999
1.5114257812499998
1.5057861328125
1.4872558593749998
1.4832275390624998
1.8006591796875
1.461474609375
1.4896728515625
1.4993408203124998
1.3833251953124999
1.3470703124999999
1.24072265625
1.345458984375
1.4074951171874999
1.490478515625
1.5186767578125
1.5170654296875
1.513037109375
1.5114257812499998
1.490478515625
1.533984375
1.5444580078124999
1.525927734375
1.525927734375
1.542041015625
1.2020507812499999
1.197216796875
1.59521484375
1.5106201171875
1.5315673828124998
1.603271484375
1.6475830078125
2.0504150390625
1.7200927734375
1.585546875
1.5315673828124998
1.5057861328125
1.4791992187499998
1.480810546875
1.5202880859374999
1.5412353515625
1.5138427734375
1.5017578125
1.5162597656249999
1.4961181640624999
1.5009521484375
1.4735595703125
2.0302734375
1.4671142578124998
1.5283447265624999
1.5299560546875
1.4236083984374999
1.3156494140625
1.1754638671875
1.3108154296874999
1.3704345703124998
1.4469726562499998
1.4574462890625
1.4864501953125
1.533984375
1.5460693359375
1.5573486328125
1.5476806640624998
1.5509033203125
1.51787109375
1.5299560546875
1.5484863281249999
1.5460693359375
1.0094970703125
1.6089111328124999
1.5243164062499999
1.52109375
1.6177734375
1.6435546875
2.0278564453125
1.7023681640625
1.5782958984375
1.5251220703125
1.5122314453124999
1.4888671875
1.5114257812499998
1.5073974609374998
1.509814453125
1.4945068359375
1.4896728515625
1.493701171875
1.4864501953125
1.50498046875
1.5194824218749998
2.0294677734374997
1.5162597656249999
1.4864501953125
1.4735595703125
1.432470703125
1.3962158203125
1.2503906249999999
1.2938964843749998
1.3559326171875
1.42119140625
1.4880615234374999
1.5202880859374999
1.5194824218749998
1.5396240234374998
1.5283447265624999
1.5662109375
1.51787109375
1.5202880859374999
1.5605712890624999
1.5895751953125
1.558154296875
0.952294921875
1.5186767578125
1.4912841796874998
1.5033691406249998
1.5807128906249999
1.6532226562499999
1.9650146484375
1.8417480468749998
1.6282470703124998
1.522705078125
1.506591796875
1.49853515625
1.5082031249999999
1.4800048828124999
1.5001464843749999
1.4928955078125
1.4864501953125
1.496923828125
1.5106201171875
1.5355957031249998
1.5194824218749998
2.0431640625
1.5033691406249998
1.5106201171875
1.5364013671874999
1.4308593749999998
1.3792968749999999
1.1690185546875
1.297119140625
1.3430419921874999
1.43408203125
1.4679199218749999
1.5170654296875
1.513037109375
1.5766845703124999
1.5154541015624998
1.5275390624999998
1.5484863281249999
1.5404296874999999
1.5267333984375
1.5299560546875
1.5162597656249999
0.95390625
1.546875
1.5670166015625
1.4501953125
1.574267578125
1.6508056640625
1.9190917968749999
1.7740722656249999
1.6000488281249998
1.5654052734375
1.4961181640624999
1.4945068359375
1.4961181640624999
1.4767822265625
1.5186767578125
1.482421875
1.5033691406249998
1.490478515625
1.5001464843749999
1.5033691406249998
1.496923828125
2.096337890625
1.69189453125
1.4791992187499998
1.5251220703125
1.4912841796874998
1.3929931640625
1.16337890625
1.2536132812499998
1.3019531249999998
1.4348876953124998
1.493701171875
1.50498046875
1.5082031249999999
1.5396240234374998
1.5017578125
1.513037109375
1.5492919921875
1.5686279296874999
1.5299560546875
1.5533203125
1.5404296874999999
0.8660888671875
1.3599609375
1.5863525390625
1.561376953125
1.6153564453125
1.6927001953124998
1.9263427734374998
1.98193359375
1.5960205078124998
1.52109375
1.4993408203124998
1.4703369140625
1.4945068359375
1.4888671875
1.4912841796874998
1.5154541015624998
1.4872558593749998
1.509814453125
1.5001464843749999
1.4920898437499999
1.4912841796874998
1.7426513671875
1.7055908203124999
1.4671142578124998
1.5082031249999999
1.4477783203124999
1.3422363281249998
1.2342773437499999
1.2447509765625
1.2906738281249999
1.3986328124999998
1.4953124999999998
1.5057861328125
1.4800048828124999
1.509814453125
1.5347900390625
1.5702392578125
1.5621826171875
1.5573486328125
1.5436523437499998
1.5122314453124999
1.51787109375
0.8274169921875
1.33740234375
1.5976318359375
1.5162597656249999
1.5589599609375
1.699951171875
1.72412109375
2.1148681640625
1.7120361328125
1.590380859375
1.474365234375
1.493701171875
1.5138427734375
1.493701171875
1.49853515625
1.429248046875
1.4364990234375
1.4840332031249999
1.5017578125
1.49853515625
1.50498046875
1.812744140625
2.028662109375
1.5605712890624999
1.609716796875
1.542041015625
1.34384765625
1.184326171875
1.1255126953124999
1.1770751953125
1.3365966796875
1.4268310546874998
1.4759765624999999
1.4816162109375
1.5275390624999998
1.5597656249999998
1.5597656249999998
1.5879638671874998
1.5863525390625
1.5839355468749998
1.545263671875
1.5154541015624998
1.134375
0.9974121093749999
1.603271484375
1.5138427734375
1.5662109375
1.6894775390624999
1.7370117187499998
2.2494140625
1.7772949218749998
1.5364013671874999
1.5275390624999998
1.50498046875
1.5025634765625
1.4912841796874998
1.5275390624999998
1.4961181640624999
1.5138427734375
1.5138427734375
1.509814453125
1.4848388671875
1.5009521484375
1.4864501953125
2.00771484375
1.4896728515625
1.4928955078125
1.477587890625
1.3664062499999998
1.3188720703124999
1.044140625
1.203662109375
1.3398193359375
1.4252197265625
1.496923828125
1.5146484375
1.5726562499999999
1.4993408203124998
1.5267333984375
1.5114257812499998
1.5670166015625
1.5573486328125
1.5484863281249999
1.5573486328125
1.15048828125
0.9692138671874999
1.6081054687499998
1.5670166015625
1.5541259765625
1.6129394531249999
1.7200927734375
2.2727783203125
1.8441650390625
1.6451660156249999
1.5460693359375
1.5114257812499998
1.4816162109375
1.5170654296875
1.4961181640624999
1.5017578125
1.4920898437499999
1.4800048828124999
1.4840332031249999
1.4759765624999999
1.4703369140625
1.4687255859375
2.280029296875
1.5831298828125
1.496923828125
1.5170654296875
1.445361328125
1.29228515625
1.0997314453125
1.1915771484375
1.3510986328124999
1.4228027343749998
1.51787109375
1.4961181640624999
1.4783935546875
1.5162597656249999
1.4920898437499999
1.56943359375
1.554931640625
1.5444580078124999
1.5509033203125
1.5436523437499998
1.5114257812499998
0.6276123046875
1.5839355468749998
1.5355957031249998
1.5082031249999999
1.6620849609375
1.7088134765624998
2.225244140625
2.0939208984374997
1.6451660156249999
1.55009765625
1.53076171875
1.5364013671874999
1.50498046875
1.5082031249999999
1.5025634765625
1.48564453125
1.4896728515625
1.4800048828124999
1.4590576171874998
1.4711425781249998
1.4961181640624999
2.384765625
1.6379150390625
1.5114257812499998
1.53076171875
1.432470703125
1.3349853515624999
1.0731445312499999
1.1537109374999999
1.1939941406249999
1.3752685546874999
1.4373046875
1.4671142578124998
1.4445556640625
1.53076171875
1.509814453125
1.5605712890624999
1.6048828124999999
1.5654052734375
1.554931640625
1.587158203125
1.55009765625
0.5736328125
1.496923828125
1.5718505859374998
1.5218994140625
1.5831298828125
1.6886718749999998
2.4041015624999997
2.0294677734374997
1.6959228515625
1.5444580078124999
1.5001464843749999
1.4888671875
1.4920898437499999
1.5251220703125
1.5533203125
1.4896728515625
1.4276367187499999
1.4711425781249998
1.426025390625
1.458251953125
1.432470703125
2.3420654296875
1.8626953124999999
1.5146484375
1.545263671875
1.4920898437499999
1.3124267578125
0.992578125
1.095703125
1.158544921875
1.3897705078125
1.4389160156249998
1.522705078125
1.4759765624999999
1.5396240234374998
1.4703369140625
1.5251220703125
1.5726562499999999
1.55009765625
1.554931640625
1.5517089843749998
1.5275390624999998
0.48178710937499997
1.4252197265625
1.58232421875
1.5041748046874999
1.5057861328125
1.7555419921875
1.9400390625
2.462109375
1.770849609375
1.5541259765625
1.4791992187499998
1.4397216796874999
1.5654052734375
1.4872558593749998
1.5106201171875
1.4397216796874999
1.3929931640625
1.4437499999999999
1.4800048828124999
1.4767822265625
1.474365234375
2.457275390625
1.9940185546875
1.5976318359375
1.5702392578125
1.5235107421874998
1.2906738281249999
1.0207763671874999
0.9812988281249999
1.0449462890624999
1.2020507812499999
1.3752685546874999
1.47275390625
1.4332763671875
1.49853515625
1.5017578125
1.5436523437499998
1.6363037109374998
1.5267333984375
1.5154541015624998
1.5573486328125
1.5637939453124998
0.3279052734375
1.003857421875
1.5476806640624998
1.5162597656249999
1.6137451171875
1.8304687499999999
1.877197265625
2.6530517578125
2.01416015625
1.7096191406249999
1.538818359375
1.4767822265625
1.4920898437499999
1.5186767578125
1.5154541015624998
1.4848388671875
1.464697265625
1.5041748046874999
1.4791992187499998
1.4912841796874998
1.4590576171874998
1.7909912109375
2.463720703125
1.6306640625
1.5017578125
1.5162597656249999
1.3349853515624999
1.1190673828125
0.862060546875
0.9257080078125
1.2399169921875
1.3720458984375
1.4276367187499999
1.44052734375
1.4848388671875
1.4864501953125
1.4590576171874998
1.5879638671874998
1.59521484375
1.5509033203125
1.5323730468749999
1.546875
1.029638671875
0.46164550781249997
1.5235107421874998
1.432470703125
1.5001464843749999
1.8071044921875
1.9706542968749998
2.8778320312499996
2.0415527343749997
1.714453125
1.558154296875
1.5009521484375
1.5041748046874999
1.5235107421874998
1.5106201171875
1.490478515625
1.4606689453125
1.4526123046875
1.4840332031249999
1.46630859375
1.4542236328125
1.490478515625
2.54267578125
1.6733642578124999
1.5323730468749999
1.5484863281249999
1.33740234375
1.2028564453125
0.8628662109374999
0.8838134765625
1.0739501953125
1.26328125
1.3849365234375
1.445361328125
1.44052734375
1.4872558593749998
1.506591796875
1.5436523437499998
1.5670166015625
1.5243164062499999
1.5678222656249998
1.5597656249999998
1.0272216796875
0.39799804687499996
1.4437499999999999
1.4590576171874998
1.50498046875
1.6951171875
1.880419921875
2.7505371093749997
2.334814453125
1.877197265625
1.6403320312499998
1.542041015625
1.464697265625
1.590380859375
1.5726562499999999
1.5444580078124999
1.493701171875
1.4840332031249999
1.493701171875
1.4026611328124998
1.4622802734375
1.448583984375
2.9261718749999996
1.8780029296874998
1.6024658203125
1.6403320312499998
1.4284423828125
1.1174560546874999
0.7073730468749999
0.7637695312499999
0.91201171875
1.198828125
1.3188720703124999
1.4228027343749998
1.4550292968749998
1.5251220703125
1.5106201171875
1.5645996093749999
1.603271484375
1.6121337890624998
1.5968261718749999
1.5347900390625
1.53076171875
0.0217529296875
1.3752685546874999
1.4518066406249999
1.456640625
1.6612792968749999
1.8296630859374998
2.8125732421875
2.5966552734375
1.896533203125
1.6508056640625
1.5605712890624999
1.5009521484375
1.5605712890624999
1.4751708984374998
1.4896728515625
1.4630859374999998
1.4606689453125
1.4864501953125
1.49853515625
1.47275390625
1.4711425781249998
2.9970703125
1.9779052734375
1.6169677734374999
1.6048828124999999
1.4606689453125
1.1915771484375
0.7839111328124999
0.7476562499999999
0.8902587890625
1.2028564453125
1.300341796875
1.384130859375
1.3849365234375
1.5476806640624998
1.50498046875
1.5122314453124999
1.6121337890624998
1.5541259765625
1.533984375
1.554931640625
1.5025634765625
0.02578125
1.0626708984375
1.458251953125
1.477587890625
1.574267578125
1.8143554687499999
2.8963623046875
2.62646484375
2.070556640625
1.740234375
1.5347900390625
1.5082031249999999
1.5782958984375
1.5726562499999999
1.5863525390625
1.49853515625
1.4518066406249999
1.477587890625
1.46953125
1.4550292968749998
1.4389160156249998
2.784375
2.341259765625
1.6636962890625
1.6314697265625
1.5476806640624998
1.2721435546875
0.64453125
0.6888427734375
0.7476562499999999
1.0546142578125
1.2318603515625
1.3510986328124999
1.3720458984375
1.5082031249999999
1.5017578125
1.5670166015625
1.5944091796875
1.60166015625
1.67578125
1.6056884765625
1.4864501953125
0.024169921875
0.6380859375
1.448583984375
1.4147460937499998
1.5017578125
1.80791015625
2.157568359375
2.9994873046875
2.2171875
1.832080078125
1.6491943359374999
1.546875
1.554931640625
1.5347900390625
1.5218994140625
1.4872558593749998
1.4501953125
1.4526123046875
1.4679199218749999
1.5565429687499999
1.4751708984374998
1.764404296875
2.3275634765624997
1.7128417968749998
1.62744140625
1.5589599609375
1.21494140625
0.9482666015625
0.7307373046875
0.78955078125
0.992578125
1.24072265625
1.361572265625
1.3672119140624999
1.4397216796874999
1.4735595703125
1.4848388671875
1.5597656249999998
1.5621826171875
1.5782958984375
1.5678222656249998
1.5670166015625
0.02578125
0.6171386718749999
1.4397216796874999
1.5146484375
1.4840332031249999
1.8256347656249998
2.0552490234375
2.995458984375
2.2631103515624997
1.9013671875
1.6048828124999999
1.5364013671874999
1.5170654296875
1.53720703125
1.5895751953125
1.51787109375
1.4550292968749998
1.458251953125
1.490478515625
1.4888671875
1.4501953125
1.751513671875
2.82626953125
1.8240234375
1.5976318359375
1.56298828125
1.2963134765625
0.9877441406249999
0.5526855468749999
0.6904541015625
0.95390625
1.2157470703125
1.327734375
1.384130859375
1.4687255859375
1.506591796875
1.5146484375
1.5927978515624999
1.5927978515624999
1.5533203125
1.554931640625
1.5364013671874999
1.019970703125
0.1264892578125
1.464697265625
1.41796875
1.5194824218749998
1.6653076171874999
2.02705078125
2.9986816406249996
2.5491210937499997
1.928759765625
1.6894775390624999
1.5509033203125
1.5364013671874999
1.542041015625
1.5484863281249999
1.577490234375
1.5154541015624998
1.458251953125
1.4590576171874998
1.4542236328125
1.458251953125
1.4735595703125
2.8359375
1.7499023437499999
1.65966796875
1.6056884765625
1.3559326171875
1.1174560546874999
0.5615478515625
0.6550048828124999
0.85400390625
1.1384033203125
1.2544189453124999
1.409912109375
1.41796875
1.480810546875
1.5509033203125
1.5911865234375
1.5984375
1.522705078125
1.5662109375
1.58232421875
1.561376953125
0.061230468749999996
1.2938964843749998
1.4026611328124998
1.4381103515625
1.6854492187499999
1.8699462890624998
2.9986816406249996
2.599072265625
2.0657226562499997
1.748291015625
1.5992431640625
1.56943359375
1.5670166015625
1.5509033203125
1.5243164062499999
1.5734619140625
1.4888671875
1.4840332031249999
1.4800048828124999
1.442138671875
1.3825195312499998
3.003515625
2.0044921875
1.6121337890624998
1.5968261718749999
1.4719482421874999
1.090869140625
0.42539062499999997
0.6453369140624999
0.7822998046874999
1.1271240234375
1.3430419921874999
1.3656005859375
1.3672119140624999
1.4655029296875
1.4928955078125
1.4880615234374999
1.619384765625
1.6242187499999998
1.5645996093749999
1.5412353515625
1.611328125
0.026586914062499998
1.3229003906249999
1.5218994140625
1.4800048828124999
1.5484863281249999
1.8240234375
2.9994873046875
2.6353271484375
1.977099609375
1.7096191406249999
1.5879638671874998
1.5194824218749998
1.5944091796875
1.593603515625
1.5686279296874999
1.5299560546875
1.48564453125
1.5025634765625
1.4501953125
1.4074951171874999
1.4308593749999998
2.9978759765625
2.1100341796874997
1.6846435546874998
1.662890625
1.4437499999999999
1.1835205078125
0.5687988281249999
0.57041015625
0.7774658203125
1.0723388671875
1.2568359375
1.3478759765625
1.3728515625
1.4977294921875
1.522705078125
1.5605712890624999
1.638720703125
1.5944091796875
1.585546875
1.5323730468749999
1.5364013671874999
0.022558593749999998
0.966796875
1.4953124999999998
1.4316650390624999
1.529150390625
1.89169921875
2.2308837890624997
2.9108642578125
2.118896484375
1.82080078125
1.61455078125
1.5243164062499999
1.542041015625
1.5670166015625
1.5782958984375
1.4147460937499998
1.4219970703125
1.4413330078125
1.4791992187499998
1.4381103515625
1.4526123046875
2.8874999999999997
2.4709716796875
1.714453125
1.71123046875
1.5984375
1.2560302734375
0.5285156249999999
0.597802734375
0.6759521484375
1.0626708984375
1.1859374999999999
1.3470703124999999
1.4187744140624998
1.480810546875
1.4953124999999998
1.493701171875
1.5597656249999998
1.5895751953125
1.5758789062499998
1.5734619140625
1.5517089843749998
0.02900390625
0.4632568359375
1.4091064453125
1.405078125
1.5170654296875
1.883642578125
2.1785156249999997
2.9994873046875
2.3920166015624997
1.8216064453124998
1.6773925781249999
1.5863525390625
1.5895751953125
1.5041748046874999
1.4888671875
1.4630859374999998
1.416357421875
1.477587890625
1.474365234375
1.4316650390624999
1.432470703125
1.7345947265625
2.5177001953125
1.7249267578124998
1.6161621093749998
1.5146484375
1.1802978515625
1.042529296875
0.4761474609375
0.6517822265625
0.926513671875
1.17626953125
1.3905761718749998
1.4606689453125
1.4945068359375
1.513037109375
1.53076171875
1.5476806640624998
1.6129394531249999
1.554931640625
1.571044921875
1.585546875
0.02900390625
0.5502685546875
1.3873535156249999
1.397021484375
1.50498046875
1.8135498046874998
1.9746826171874998
2.9994873046875
2.3098388671875
1.8780029296874998
1.6564453124999998
1.5355957031249998
1.5541259765625
1.5758789062499998
1.5678222656249998
1.5654052734375
1.461474609375
1.4848388671875
1.493701171875
1.48564453125
1.4630859374999998
1.7362060546875
2.9438964843749997
1.8602783203125
1.6177734375
1.6169677734374999
1.3470703124999999
0.978076171875
0.5647705078124999
0.6340576171875
0.8274169921875
1.1593505859375
1.2866455078124999
1.3849365234375
1.4791992187499998
1.50498046875
1.5170654296875
1.56298828125
1.5718505859374998
1.5678222656249998
1.554931640625
1.593603515625
1.2020507812499999
0.0249755859375
1.2568359375
1.405078125
1.490478515625
1.6604736328124998
2.0254394531249997
2.9986816406249996
2.698974609375
1.9698486328125
1.690283203125
1.5525146484374999
1.52109375
1.5428466796875
1.5436523437499998
1.5218994140625
1.5960205078124998
1.4397216796874999
1.4445556640625
1.4550292968749998
1.482421875
1.4510009765624998
3.0002929687499997
1.948095703125
1.6685302734374998
1.67578125
1.3527099609375
1.123095703125
0.46083984375
0.6114990234375
0.8185546874999999
1.134375
1.2608642578125
1.3833251953124999
1.361572265625
1.509814453125
1.5557373046874998
1.59521484375
1.5968261718749999
1.574267578125
1.6137451171875
1.5517089843749998
1.4832275390624998
0.027392578124999997
1.2431396484375
1.4139404296875
1.41796875
1.6169677734374999
1.8248291015625
2.8512451171874997
2.6321044921874996
2.070556640625
1.7700439453124999
1.5460693359375
1.4961181640624999
1.55009765625
1.542041015625
1.5444580078124999
1.4928955078125
1.5114257812499998
1.4800048828124999
1.4477783203124999
1.4348876953124998
1.4574462890625
3.0002929687499997
2.15595703125
1.6685302734374998
1.641943359375
1.4832275390624998
1.200439453125
0.40927734374999997
0.5728271484374999
0.7057617187499999
0.9949951171875
1.3011474609375
1.37607421875
1.3744628906249998
1.442138671875
1.474365234375
1.5589599609375
1.64677734375
1.5831298828125
1.56298828125
1.6161621093749998
1.55009765625
0.022558593749999998
0.9208740234374999
1.4348876953124998
1.4493896484375
1.6411376953124999
1.861083984375
2.908447265625
2.9269775390625
2.22041015625
1.767626953125
1.6024658203125
1.5364013671874999
1.5412353515625
1.5541259765625
1.5678222656249998
1.5057861328125
1.442138671875
1.4735595703125
1.464697265625
1.4767822265625
1.4751708984374998
2.8109619140624997
2.1148681640625
1.6773925781249999
1.635498046875
1.5428466796875
1.229443359375
0.5728271484374999
0.6114990234375
0.7395996093749999
1.023193359375
1.1641845703125
1.3188720703124999
1.36962890625
1.5146484375
1.5114257812499998
1.5565429687499999
1.60166015625
1.5678222656249998
1.561376953125
1.5815185546875
1.5573486328125
0.08056640625
0.9031494140624999
1.40185546875
1.3954101562499999
1.5533203125
1.8635009765625
2.1712646484375
3.0010986328125
2.3130615234375
1.880419921875
1.65966796875
1.5654052734375
1.606494140625
1.5186767578125
1.5758789062499998
1.522705078125
1.45341796875
1.4501953125
1.4711425781249998
1.4429443359374998
1.4622802734375
2.7166992187499996
2.5475097656249996
1.78857421875
1.654833984375
1.542041015625
1.206884765625
0.9410156249999999
0.57041015625
0.6227783203124999
0.9498779296875
1.1923828125
1.3422363281249998
1.3712402343749999
1.4735595703125
1.4993408203124998
1.56943359375
1.5976318359375
1.5573486328125
1.5960205078124998
1.5968261718749999
1.5243164062499999
0.058813476562499994
0.41008300781249996
1.3857421875
1.4228027343749998
1.4840332031249999
1.8361083984375
2.2760009765625
2.9986816406249996
2.3839599609374997
1.9811279296875
1.67900390625
1.5637939453124998
1.5428466796875
1.4977294921875
1.5364013671874999
1.513037109375
1.47275390625
1.5033691406249998
1.4848388671875
1.4671142578124998
1.445361328125
1.56943359375
2.99384765625
1.738623046875
1.641943359375
1.5702392578125
1.20849609375
0.9812988281249999
0.46970214843749997
0.6533935546874999
0.91201171875
1.2012451171875
1.335791015625
1.3736572265625
1.4679199218749999
1.5033691406249998
1.482421875
1.5106201171875
1.5702392578125
1.5299560546875
1.6725585937499998
1.77568359375
1.4397216796874999
0.5712158203125
1.533984375
1.50498046875
1.5565429687499999
1.7732666015624998
2.0431640625
2.9986816406249996
2.3718749999999997
1.9223144531249998
1.638720703125
1.48564453125
1.4300537109375
1.60166015625
1.5484863281249999
1.4888671875
1.448583984375
1.43408203125
1.5041748046874999
1.4832275390624998
1.4574462890625
1.53720703125
2.9221435546874996
1.7732666015624998
1.5662109375
1.546875
1.316455078125
1.1295410156249999
0.6590332031249999
0.7138183593749999
0.9740478515625
1.164990234375
1.36962890625
1.426025390625
1.4413330078125
1.554931640625
1.545263671875
1.5589599609375
1.5492919921875
1.5670166015625
1.5557373046874998
1.53076171875
1.4381103515625
0.0749267578125
1.2503906249999999
1.456640625
1.56298828125
1.6975341796874999
1.93681640625
2.83271484375
2.6417724609374997
2.023828125
1.638720703125
1.554931640625
1.5476806640624998
1.546875
1.5082031249999999
1.542041015625
1.4687255859375
1.4026611328124998
1.4606689453125
1.4759765624999999
1.4332763671875
1.4437499999999999
2.9519531249999997
1.7217041015624999
1.6451660156249999
1.545263671875
1.3212890625
1.1303466796875
0.5857177734375
0.80888671875
1.0256103515625
1.2318603515625
1.3422363281249998
1.4236083984374999
1.456640625
1.5436523437499998
1.5114257812499998
1.4993408203124998
1.6218017578125
1.5960205078124998
1.585546875
1.571044921875
1.554931640625
0.22478027343749998
1.3688232421875
1.5509033203125
1.5218994140625
1.64677734375
1.82724609375
2.5724853515625
2.2824462890625
1.82080078125
1.6081054687499998
1.533984375
1.5106201171875
1.5299560546875
1.496923828125
1.509814453125
1.4711425781249998
1.4703369140625
1.4880615234374999
1.4783935546875
1.4638916015624999
1.46953125
2.745703125
1.8900878906249998
1.5154541015624998
1.542041015625
1.4469726562499998
1.235888671875
0.752490234375
0.929736328125
1.0513916015625
1.2318603515625
1.3801025390625
1.4228027343749998
1.44052734375
1.5355957031249998
1.5090087890625
1.5573486328125
1.5960205078124998
1.5815185546875
1.5887695312499999
1.5557373046874998
1.542041015625
0.26828613281249997
1.1666015625
1.554931640625
1.538818359375
1.5678222656249998
1.754736328125
2.2373291015625
2.4129638671875
1.8489990234375
1.603271484375
1.5380126953125
1.5154541015624998
1.590380859375
1.4864501953125
1.509814453125
1.490478515625
1.4510009765624998
1.490478515625
1.4703369140625
1.4800048828124999
1.5041748046874999
2.135009765625
1.8014648437499998
1.5001464843749999
1.522705078125
1.44052734375
1.316455078125
0.990966796875
1.0256103515625
1.1464599609375
1.3180664062499998
1.3744628906249998
1.4800048828124999
1.4638916015624999
1.5122314453124999
1.529150390625
1.5364013671874999
1.533984375
1.5654052734375
1.5218994140625
1.5355957031249998
1.5315673828124998
0.439892578125
1.2576416015624998
1.574267578125
1.5073974609374998
1.606494140625
1.7289550781249998
1.8659179687499998
2.257470703125
1.7652099609374998
1.59521484375
1.5380126953125
1.5396240234374998
1.5186767578125
1.493701171875
1.525927734375
1.5082031249999999
1.461474609375
1.4928955078125
1.5033691406249998
1.513037109375
1.46953125
1.9891845703125
2.0165771484375
1.5090087890625
1.493701171875
1.4928955078125
1.3317626953125
1.1335693359374999
1.1029541015625
1.1641845703125
1.264892578125
1.4252197265625
1.458251953125
1.496923828125
1.5315673828124998
1.4961181640624999
1.5323730468749999
1.5597656249999998
1.5702392578125
1.5444580078124999
1.5476806640624998
1.5492919921875
0.91201171875
1.02802734375
1.6290527343749999
1.509814453125
1.53720703125
1.722509765625
1.8731689453125
2.270361328125
1.7853515624999998
1.587158203125
1.542041015625
1.4920898437499999
1.5073974609374998
1.5073974609374998
1.5251220703125
1.5001464843749999
1.4719482421874999
1.4558349609374999
1.5283447265624999
1.4977294921875
1.4832275390624998
1.50498046875
1.9682373046875
1.47275390625
1.4920898437499999
1.496923828125
1.3510986328124999
1.2737548828124998
1.1529052734375
1.206884765625
1.3422363281249998
1.4115234374999999
1.48564453125
1.4993408203124998
1.5364013671874999
1.5154541015624998
1.5323730468749999
1.5557373046874998
1.5621826171875
1.538818359375
1.5275390624999998
1.5251220703125
0.9861328125
1.044140625
1.6161621093749998
1.533984375
1.5678222656249998
1.670947265625
1.7853515624999998
2.255859375
1.8216064453124998
1.6209960937499999
1.5347900390625
1.5025634765625
1.482421875
1.5517089843749998
1.5033691406249998
1.52109375
1.4816162109375
1.48564453125
1.4912841796874998
1.4920898437499999
1.5033691406249998
1.4896728515625
2.21396484375
1.4945068359375
1.5041748046874999
1.5170654296875
1.3382080078124998
1.2938964843749998
1.1351806640625
1.18916015625
1.327734375
1.4203857421875
1.4526123046875
1.477587890625
1.4961181640624999
1.546875
1.5412353515625
1.5718505859374998
1.538818359375
1.5484863281249999
1.56298828125
1.5484863281249999
1.4832275390624998
1.061865234375
1.6161621093749998
1.538818359375
1.5799072265624998
1.651611328125
1.732177734375
2.2405517578125
1.7571533203124998
1.5831298828125
1.5243164062499999
1.5267333984375
1.513037109375
1.5235107421874998
1.5154541015624998
1.5001464843749999
1.482421875
1.4840332031249999
1.490478515625
1.49853515625
1.4800048828124999
1.5106201171875
2.23330078125
1.5444580078124999
1.5202880859374999
1.506591796875
1.4244140625
1.3422363281249998
1.0900634765625
1.2052734375
1.2979248046874998
1.4437499999999999
1.474365234375
1.4880615234374999
1.5122314453124999
1.5146484375
1.5347900390625
1.533984375
1.6185791015625
1.5114257812499998
1.5283447265624999
1.533984375
1.5033691406249998
0.7758544921874999
1.45341796875
1.53076171875
1.5444580078124999
1.6153564453125
1.7023681640625
2.231689453125
1.8788085937499999
1.6000488281249998
1.53720703125
1.509814453125
1.513037109375
1.5283447265624999
1.5041748046874999
1.5194824218749998
1.496923828125
1.4735595703125
1.4832275390624998
1.5001464843749999
1.4767822265625
1.48564453125
2.196240234375
1.538818359375
1.5122314453124999
1.5251220703125
1.4219970703125
1.3591552734374999
1.0997314453125
1.21494140625
1.3220947265624998
1.4042724609375
1.4735595703125
1.4920898437499999
1.4920898437499999
1.554931640625
1.513037109375
1.5509033203125
1.542041015625
1.5355957031249998
1.5533203125
1.5380126953125
1.5194824218749998
0.7822998046874999
1.5073974609374998
1.5911865234375
1.5637939453124998
1.5927978515624999
1.6765869140624998
2.0761962890625
1.9545410156249998
1.6403320312499998
1.5428466796875
1.5218994140625
1.5114257812499998
1.5194824218749998
1.4864501953125
1.5138427734375
1.49853515625
1.4719482421874999
1.4896728515625
1.4920898437499999
1.4961181640624999
1.4840332031249999
2.1728759765625
1.69189453125
1.4840332031249999
1.513037109375
1.4606689453125
1.3954101562499999
1.0675048828125
1.2173583984375
1.2302490234374999
1.40830078125
1.4703369140625
1.482421875
1.50498046875
1.554931640625
1.5267333984375
1.533984375
1.554931640625
1.545263671875
1.5412353515625
1.545263671875
1.5355957031249998
0.7822998046874999
1.5057861328125
1.5670166015625
1.55009765625
1.5944091796875
1.6749755859375
1.95615234375
1.8908935546874999
1.6209960937499999
1.55009765625
1.5138427734375
1.4840332031249999
1.5194824218749998
1.529150390625
1.4993408203124998
1.4735595703125
1.4840332031249999
1.4848388671875
1.5033691406249998
1.4896728515625
1.4896728515625
2.147900390625
1.690283203125
1.45341796875
1.5082031249999999
1.45341796875
1.3502929687499998
1.147265625
1.24716796875
1.2745605468749999
1.38896484375
1.46953125
1.5017578125
1.4953124999999998
1.554931640625
1.5364013671874999
1.5283447265624999
1.5597656249999998
1.5404296874999999
1.5573486328125
1.525927734375
1.5138427734375
0.8290283203125
1.3212890625
1.5839355468749998
1.52109375
1.571044921875
1.6693359374999999
1.909423828125
2.0584716796875
1.6701416015625
1.55009765625
1.5162597656249999
1.4872558593749998
1.5082031249999999
1.5194824218749998
1.619384765625
1.533984375
1.5404296874999999
1.5645996093749999
1.5686279296874999
1.561376953125
1.5525146484374999
1.77890625
1.72734375
1.477587890625
1.5186767578125
1.4920898437499999
1.3833251953124999
1.276171875
1.2439453125
1.3212890625
1.393798828125
1.46953125
1.480810546875
1.482421875
1.5484863281249999
1.522705078125
1.545263671875
1.5380126953125
1.5186767578125
1.5283447265624999
1.533984375
1.5331787109375
0.8822021484375
1.3229003906249999
1.6048828124999999
1.542041015625
1.56943359375
1.6749755859375
1.722509765625
2.0568603515625
1.67900390625
1.5565429687499999
1.5001464843749999
1.4832275390624998
1.4800048828124999
1.4872558593749998
1.5001464843749999
1.4953124999999998
1.4687255859375
1.4953124999999998
1.4888671875
1.4945068359375
1.4920898437499999
1.6846435546874998
1.920703125
1.4397216796874999
1.4961181640624999
1.490478515625
1.3978271484375
1.313232421875
1.22783203125
1.2785888671874999
1.4034667968749999
1.46953125
1.496923828125
1.4550292968749998
1.5170654296875
1.52109375
1.538818359375
1.5484863281249999
1.5364013671874999
1.53720703125
1.5162597656249999
1.5484863281249999
1.268115234375
1.3510986328124999
1.6290527343749999
1.5404296874999999
1.56298828125
1.6588623046875
1.722509765625
2.096337890625
1.6290527343749999
1.5347900390625
1.4977294921875
1.5009521484375
1.496923828125
1.50498046875
1.5170654296875
1.4816162109375
1.4791992187499998
1.4953124999999998
1.5001464843749999
1.4993408203124998
1.490478515625
1.6411376953124999
1.9142578124999998
1.4518066406249999
1.4767822265625
1.48564453125
1.393798828125
1.351904296875
1.2221923828124999
1.2938964843749998
1.3873535156249999
1.4719482421874999
1.4977294921875
1.506591796875
1.5154541015624998
1.545263671875
1.5364013671874999
1.5484863281249999
1.5605712890624999
1.53720703125
1.533984375
1.529150390625
1.2753662109375
1.1110107421875
1.6089111328124999
1.56298828125
1.5396240234374998
1.6266357421875
1.7249267578124998
2.067333984375
1.7120361328125
1.542041015625
1.5323730468749999
1.490478515625
1.49853515625
1.5194824218749998
1.5025634765625
1.4961181640624999
1.52109375
1.493701171875
1.4872558593749998
1.480810546875
1.493701171875
1.5017578125
2.077001953125
1.4598632812499999
1.4783935546875
1.4912841796874998
1.405078125
1.3623779296874998
1.2366943359375
1.319677734375
1.3897705078125
1.456640625
1.5041748046874999
1.5146484375
1.49853515625
1.5428466796875
1.546875
1.5444580078124999
1.5444580078124999
1.5436523437499998
1.5412353515625
1.5275390624999998
1.522705078125
1.1021484375
1.6081054687499998
1.5678222656249998
1.558154296875
1.6250244140624999
1.6564453124999998
2.0504150390625
1.7418457031249999
1.5645996093749999
1.506591796875
1.493701171875
1.4993408203124998
1.5202880859374999
1.5017578125
1.50498046875
1.49853515625
1.482421875
1.5082031249999999
1.4759765624999999
1.4896728515625
1.4993408203124998
2.0898925781249997
1.5267333984375
1.4888671875
1.51787109375
1.442138671875
1.35673828125
1.181103515625
1.2938964843749998
1.3688232421875
1.464697265625
1.4928955078125
1.513037109375
1.529150390625
1.5323730468749999
1.5090087890625
1.53076171875
1.5573486328125
1.5412353515625
1.5476806640624998
1.5565429687499999
1.5162597656249999
0.9160400390625
1.606494140625
1.5557373046874998
1.5484863281249999
1.619384765625
1.6435546875
2.015771484375
1.8006591796875
1.5517089843749998
1.5146484375
1.49853515625
1.4953124999999998
1.5146484375
1.5106201171875
1.4961181640624999
1.4880615234374999
1.506591796875
1.4920898437499999
1.493701171875
1.4961181640624999
1.4840332031249999
2.0818359374999997
1.5396240234374998
1.4671142578124998
1.4977294921875
1.445361328125
1.3897705078125
1.2334716796875
1.3059814453124998
1.3543212890624998
1.4598632812499999
1.496923828125
1.5170654296875
1.5082031249999999
1.5275390624999998
1.5251220703125
1.5283447265624999
1.5533203125
1.5460693359375
1.5364013671874999
1.5444580078124999
1.529150390625
0.9224853515625
1.5202880859374999
1.6008544921874999
1.5436523437499998
1.5879638671874998
1.6725585937499998
1.861083984375
1.8884765625
1.6129394531249999
1.5009521484375
1.5001464843749999
1.5162597656249999
1.4993408203124998
1.5057861328125
1.51787109375
1.4953124999999998
1.5017578125
1.474365234375
1.4832275390624998
1.4977294921875
1.4977294921875
1.9384277343749998
1.6951171875
1.4953124999999998
1.5025634765625
1.4630859374999998
1.3873535156249999
1.2238037109375
1.3027587890624999
1.3365966796875
1.456640625
1.5041748046874999
1.5122314453124999
1.4928955078125
1.5315673828124998
1.5315673828124998
1.5509033203125
1.5589599609375
1.5444580078124999
1.5436523437499998
1.545263671875
1.5243164062499999
1.0385009765625
1.5090087890625
1.5807128906249999
1.5436523437499998
1.587158203125
1.6483886718749998
1.714453125
1.8925048828125
1.619384765625
1.5267333984375
1.5041748046874999
1.4928955078125
1.5122314453124999
1.493701171875
1.513037109375
1.5017578125
1.4767822265625
1.5114257812499998
1.49853515625
1.5033691406249998
1.5073974609374998
1.9190917968749999
1.6951171875
1.4558349609374999
1.5033691406249998
1.4791992187499998
1.3784912109374998
1.29228515625
1.300341796875
1.3349853515624999
1.4268310546874998
1.4896728515625
1.506591796875
1.509814453125
1.5533203125
1.53076171875
1.5380126953125
1.5533203125
1.545263671875
1.538818359375
1.5299560546875
1.5678222656249998
1.026416015625
1.3269287109374999
1.5919921874999998
1.55009765625
1.5597656249999998
1.6411376953124999
1.7531249999999998
1.9424560546874998
1.62744140625
1.5243164062499999
1.5106201171875
1.4888671875
1.4945068359375
1.5082031249999999
1.5114257812499998
1.5033691406249998
1.4751708984374998
1.490478515625
1.4920898437499999
1.490478515625
1.506591796875
1.5839355468749998
1.7039794921875
1.4493896484375
1.48564453125
1.4606689453125
1.38896484375
1.353515625
1.2455566406249998
1.348681640625
1.432470703125
1.4880615234374999
1.5082031249999999
1.5009521484375
1.529150390625
1.538818359375
1.5267333984375
1.5436523437499998
1.5444580078124999
1.545263671875
1.5436523437499998
1.5194824218749998
1.0658935546875
1.329345703125
1.622607421875
1.5275390624999998
1.561376953125
1.651611328125
1.6878662109375
1.9907958984374998
1.654833984375
1.5315673828124998
1.5033691406249998
1.4671142578124998
1.4888671875
1.4832275390624998
1.5082031249999999
1.4912841796874998
1.4928955078125
1.4993408203124998
1.4977294921875
1.493701171875
1.4961181640624999
1.5645996093749999
1.9190917968749999
1.4477783203124999
1.50498046875
1.4759765624999999
1.4147460937499998
1.3341796874999998
1.3059814453124998
1.3390136718749999
1.448583984375
1.4783935546875
1.50498046875
1.5194824218749998
1.5412353515625
1.5315673828124998
1.533984375
1.56298828125
1.542041015625
1.5347900390625
1.5267333984375
1.5331787109375
1.4397216796874999
1.3261230468749998
1.635498046875
1.5476806640624998
1.558154296875
1.6306640625
1.654833984375
2.0036865234375
1.6250244140624999
1.5235107421874998
1.4961181640624999
1.5041748046874999
1.4977294921875
1.506591796875
1.5073974609374998
1.5025634765625
1.477587890625
1.4888671875
1.5001464843749999
1.5090087890625
1.4961181640624999
1.5541259765625
1.9070068359374999
1.4542236328125
1.4896728515625
1.4920898437499999
1.43408203125
1.38896484375
1.248779296875
1.3365966796875
1.4058837890625
1.477587890625
1.5073974609374998
1.5162597656249999
1.52109375
1.5275390624999998
1.5404296874999999
1.542041015625
1.5557373046874998
1.5283447265624999
1.5347900390625
1.533984375
1.4219970703125
1.11181640625
1.611328125
1.55009765625
1.5573486328125
1.5960205078124998
1.6765869140624998
1.9988525390624998
1.6943115234375
1.538818359375
1.509814453125
1.50498046875
1.4953124999999998
1.53720703125
1.5106201171875
1.5001464843749999
1.4791992187499998
1.4800048828124999
1.5017578125
1.496923828125
1.5114257812499998
1.5017578125
2.0052978515624997
1.4655029296875
1.474365234375
1.5033691406249998
1.409912109375
1.3905761718749998
1.2238037109375
1.329345703125
1.4091064453125
1.4687255859375
1.5001464843749999
1.533984375
1.5186767578125
1.5460693359375
1.53076171875
1.538818359375
1.5436523437499998
1.5323730468749999
1.5331787109375
1.5347900390625
1.525927734375
1.0981201171875
1.5911865234375
1.5686279296874999
1.5517089843749998
1.6048828124999999
1.6475830078125
1.7942138671874999
1.7442626953125
1.558154296875
1.5154541015624998
1.506591796875
1.4896728515625
1.5033691406249998
1.51787109375
1.5057861328125
1.4783935546875
1.4840332031249999
1.5073974609374998
1.5001464843749999
1.5122314453124999
1.5017578125
2.012548828125
1.5404296874999999
1.482421875
1.5082031249999999
1.456640625
1.377685546875
1.2423339843749999
1.3301513671874998
1.377685546875
1.4896728515625
1.4840332031249999
1.52109375
1.5170654296875
1.546875
1.529150390625
1.5090087890625
1.5654052734375
1.525927734375
1.5412353515625
1.5323730468749999
1.5251220703125
0.9893554687499999
1.5815185546875
1.5863525390625
1.5484863281249999
1.5992431640625
1.6290527343749999
1.9190917968749999
1.815966796875
1.5565429687499999
1.5090087890625
1.490478515625
1.4977294921875
1.5090087890625
1.4953124999999998
1.50498046875
1.48564453125
1.4977294921875
1.5025634765625
1.5073974609374998
1.493701171875
1.5033691406249998
2.00771484375
1.5662109375
1.445361328125
1.5033691406249998
1.461474609375
1.3946044921874998
1.3172607421875
1.3317626953125
1.3897705078125
1.4598632812499999
1.4896728515625
1.5283447265624999
1.5009521484375
1.545263671875
1.5251220703125
1.5323730468749999
1.5509033203125
1.538818359375
1.5492919921875
1.542041015625
1.5106201171875
0.9966064453125
1.5017578125
1.5637939453124998
1.5428466796875
1.5702392578125
1.651611328125
1.8216064453124998
1.8498046874999998
1.6000488281249998
1.5202880859374999
1.5073974609374998
1.5001464843749999
1.5090087890625
1.529150390625
1.496923828125
1.4848388671875
1.4783935546875
1.4953124999999998
1.5057861328125
1.4816162109375
1.4993408203124998
1.8151611328125
1.5533203125
1.46630859375
1.4920898437499999
1.4791992187499998
1.3857421875
1.287451171875
1.3398193359375
1.3768798828125
1.4542236328125
1.4848388671875
1.5106201171875
1.49853515625
1.545263671875
1.53076171875
1.554931640625
1.542041015625
1.5315673828124998
1.538818359375
1.5267333984375
1.525927734375
1.018359375
1.493701171875
1.5831298828125
1.5436523437499998
1.5645996093749999
1.6612792968749999
1.6830322265625
1.8796142578125
1.5919921874999998
1.53076171875
1.49853515625
1.4977294921875
1.5025634765625
1.496923828125
1.509814453125
1.5033691406249998
1.4719482421874999
1.5025634765625
1.4945068359375
1.5057861328125
1.4961181640624999
1.7990478515625
1.716064453125
1.4437499999999999
1.506591796875
1.4751708984374998
1.393798828125
1.2866455078124999
1.3237060546875
1.3559326171875
1.4518066406249999
1.5033691406249998
1.5154541015624998
1.5194824218749998
1.53720703125
1.529150390625
1.5267333984375
1.5509033203125
1.5686279296874999
1.5235107421874998
1.5355957031249998
1.5331787109375
1.164990234375
1.297119140625
1.6040771484374998
1.542041015625
1.546875
1.6620849609375
1.7096191406249999
1.925537109375
1.5879638671874998
1.5364013671874999
1.5017578125
1.4888671875
1.5194824218749998
1.5146484375
1.522705078125
1.4783935546875
1.4928955078125
1.4953124999999998
1.5017578125
1.4896728515625
1.4945068359375
1.5033691406249998
1.740234375
1.4550292968749998
1.4920898437499999
1.4751708984374998
1.397021484375
1.36962890625
1.3092041015625
1.351904296875
1.426025390625
1.4800048828124999
1.5057861328125
1.5106201171875
1.5331787109375
1.5283447265624999
1.5396240234374998
1.546875
1.5460693359375
1.5299560546875
1.533984375
1.5347900390625
1.1867431640625
1.2834228515625
1.6395263671875
1.53720703125
1.5621826171875
1.6218017578125
1.6854492187499999
1.9440673828125
1.651611328125
1.5484863281249999
1.5033691406249998
1.4928955078125
1.4880615234374999
1.4945068359375
1.5170654296875
1.5033691406249998
1.48564453125
1.4920898437499999
1.5025634765625
1.5001464843749999
1.5057861328125
1.5041748046874999
1.909423828125
1.4445556640625
1.4912841796874998
1.4993408203124998
1.4026611328124998
1.3817138671875
1.2777832031249998
1.3341796874999998
1.429248046875
1.4759765624999999
1.5057861328125
1.5090087890625
1.5428466796875
1.5436523437499998
1.5533203125
1.5484863281249999
1.538818359375
1.5299560546875
1.5283447265624999
1.533984375
1.5017578125
1.287451171875
1.62744140625
1.5412353515625
1.554931640625
1.6306640625
1.6403320312499998
1.9327880859375
1.6475830078125
1.5267333984375
1.5057861328125
1.5009521484375
1.5033691406249998
1.5114257812499998
1.4953124999999998
1.5073974609374998
1.5033691406249998
1.4888671875
1.4945068359375
1.50498046875
1.5017578125
1.5146484375
1.920703125
1.4864501953125
1.48564453125
1.4993408203124998
1.43408203125
1.3881591796875
1.252001953125
1.3502929687499998
1.3986328124999998
1.4888671875
1.5073974609374998
1.52109375
1.5235107421874998
1.5509033203125
1.533984375
1.5202880859374999
1.554931640625
1.533984375
1.5364013671874999
1.5267333984375
1.50498046875
1.0828125
1.6306640625
1.5573486328125
1.53076171875
1.593603515625
1.6403320312499998
1.9634033203124999
1.714453125
1.5106201171875
1.513037109375
1.4993408203124998
1.4920898437499999
1.5114257812499998
1.506591796875
1.4993408203124998
1.456640625
1.5154541015624998
1.5017578125
1.5009521484375
1.49853515625
1.49853515625
1.92392578125
1.490478515625
1.4848388671875
1.5009521484375
1.4389160156249998
1.40185546875
1.2334716796875
1.3510986328124999
1.4010498046875
1.4671142578124998
1.5082031249999999
1.513037109375
1.5073974609374998
1.5460693359375
1.5355957031249998
1.5380126953125
1.5525146484374999
1.533984375
1.5460693359375
1.5525146484374999
1.525927734375
1.0755615234375
1.5863525390625
1.5734619140625
1.5492919921875
1.6024658203125
1.6322753906249998
1.8860595703124998
1.7692382812499998
1.5654052734375
1.5090087890625
1.5001464843749999
1.5017578125
1.5202880859374999
1.4888671875
1.5057861328125
1.4945068359375
1.480810546875
1.4977294921875
1.4896728515625
1.5090087890625
1.5090087890625
1.9666259765624998
1.5782958984375
1.4783935546875
1.5122314453124999
1.458251953125
1.4026611328124998
1.2640869140625
1.33740234375
1.3849365234375
1.46630859375
1.4953124999999998
1.51787109375
1.5082031249999999
1.5428466796875
1.5283447265624999
1.533984375
1.545263671875
1.5412353515625
1.5364013671874999
1.53720703125
1.5186767578125
1.0248046874999999
1.5831298828125
1.5662109375
1.5355957031249998
1.5911865234375
1.622607421875
1.7909912109375
1.8739746093749998
1.554931640625
1.496923828125
1.50498046875
1.482421875
1.5154541015624998
1.4920898437499999
1.50498046875
1.4953124999999998
1.480810546875
1.506591796875
1.4920898437499999
1.4912841796874998
1.496923828125
1.948095703125
1.5984375
1.4679199218749999
1.4945068359375
1.4687255859375
1.3881591796875
1.3317626953125
1.348681640625
1.3768798828125
1.4622802734375
1.5033691406249998
1.522705078125
1.5090087890625
1.5323730468749999
1.5347900390625
1.5283447265624999
1.5557373046874998
1.5364013671874999
1.5275390624999998
1.525927734375
1.533984375
1.0304443359375
1.4550292968749998
1.5766845703124999
1.5404296874999999
1.5750732421875
1.6451660156249999
1.803076171875
1.8498046874999998
1.5895751953125
1.53076171875
1.5170654296875
1.4848388671875
1.5106201171875
1.4993408203124998
1.5122314453124999
1.4945068359375
1.5106201171875
1.49853515625
1.50498046875
1.496923828125
1.4912841796874998
1.722509765625
1.5895751953125
1.4606689453125
1.5033691406249998
1.4896728515625
1.4074951171874999
1.3172607421875
1.3075927734375
1.368017578125
1.445361328125
1.48564453125
1.5090087890625
1.5122314453124999
1.5251220703125
1.5251220703125
1.55009765625
1.5460693359375
1.545263671875
1.5323730468749999
1.5436523437499998
1.5243164062499999
1.03447265625
1.4389160156249998
1.6000488281249998
1.5299560546875
1.5637939453124998
1.6556396484375
1.67578125
1.8876708984375
1.60166015625
1.53720703125
1.513037109375
1.493701171875
1.5146484375
1.5041748046874999
1.5090087890625
1.4961181640624999
1.477587890625
1.5017578125
1.5082031249999999
1.49853515625
1.5073974609374998
1.7088134765624998
1.7611816406249998
1.4598632812499999
1.493701171875
1.4791992187499998
1.41796875
1.32451171875
1.3188720703124999
1.377685546875
1.4332763671875
1.4735595703125
1.5057861328125
1.5114257812499998
1.5315673828124998
1.529150390625
1.5162597656249999
1.5484863281249999
1.5404296874999999
1.5380126953125
1.5396240234374998
1.5484863281249999
1.2753662109375
1.2503906249999999
1.6000488281249998
1.554931640625
1.55009765625
1.6306640625
1.66611328125
1.9625976562499998
1.6564453124999998
1.5323730468749999
1.5009521484375
1.5001464843749999
1.5041748046874999
1.5001464843749999
1.5033691406249998
1.509814453125
1.482421875
1.4928955078125
1.4961181640624999
1.5017578125
1.4953124999999998
1.5017578125
1.7748779296875
1.458251953125
1.496923828125
1.5001464843749999
1.405078125
1.3913818359374999
1.2350830078125
1.3583496093749998
1.4252197265625
1.48564453125
1.5194824218749998
1.5154541015624998
1.522705078125
1.5428466796875
1.5364013671874999
1.542041015625
1.5605712890624999
1.5323730468749999
1.5347900390625
1.5347900390625
1.2802001953125
1.24072265625
1.6201904296874998
1.5460693359375
1.5541259765625
1.6266357421875
1.6443603515624998
1.9392333984374999
1.654833984375
1.5509033203125
1.5017578125
1.4928955078125
1.5001464843749999
1.5243164062499999
1.506591796875
1.5017578125
1.4920898437499999
1.522705078125
1.4800048828124999
1.4928955078125
1.506591796875
1.506591796875
1.9440673828125
1.4928955078125
1.490478515625
1.4977294921875
1.4389160156249998
1.3752685546874999
1.2826171874999999
1.3494873046875
1.4042724609375
1.4848388671875
1.5017578125
1.5162597656249999
1.5299560546875
1.542041015625
1.533984375
1.546875
1.533984375
1.5444580078124999
1.5396240234374998
1.5323730468749999
1.525927734375
1.0594482421875
1.6121337890624998
1.5428466796875
1.5444580078124999
1.6290527343749999
1.6346923828125
1.861083984375
1.6814208984374999
1.5444580078124999
1.5154541015624998
1.5001464843749999
1.4945068359375
1.5106201171875
1.506591796875
1.4993408203124998
1.490478515625
1.4767822265625
1.49853515625
1.5057861328125
1.5017578125
1.5017578125
1.9513183593749999
1.4928955078125
1.4687255859375
1.509814453125
1.4501953125
1.4042724609375
1.276171875
1.3422363281249998
1.4034667968749999
1.4751708984374998
1.509814453125
1.5243164062499999
1.52109375
1.5194824218749998
1.522705078125
1.5323730468749999
1.5533203125
1.53076171875
1.533984375
1.5355957031249998
1.5637939453124998
1.0449462890624999
1.5565429687499999
1.5460693359375
1.546875
1.5782958984375
1.635498046875
1.928759765625
1.7281494140625
1.5654052734375
1.5114257812499998
1.509814453125
1.4920898437499999
1.5001464843749999
1.51787109375
1.51787109375
1.490478515625
1.4864501953125
1.4977294921875
1.4872558593749998
1.4993408203124998
1.5009521484375
1.915869140625
1.4977294921875
1.482421875
1.5001464843749999
1.4493896484375
1.4139404296875
1.2697265624999998
1.3382080078124998
1.40185546875
1.4679199218749999
1.496923828125
1.506591796875
1.5057861328125
1.546875
1.538818359375
1.538818359375
1.554931640625
1.5396240234374998
1.538818359375
1.53720703125
1.522705078125
1.0610595703124999
1.55009765625
1.585546875
1.55009765625
1.5782958984375
1.6371093749999999
1.7257324218749999
1.7571533203124998
1.56298828125
1.5251220703125
1.5001464843749999
1.482421875
1.5162597656249999
1.5009521484375
1.506591796875
1.496923828125
1.4816162109375
1.5170654296875
1.490478515625
1.5009521484375
1.493701171875
1.925537109375
1.6250244140624999
1.4719482421874999
1.5154541015624998
1.4550292968749998
1.3954101562499999
1.264892578125
1.329345703125
1.3946044921874998
1.4840332031249999
1.48564453125
1.5146484375
1.5033691406249998
1.5355957031249998
1.5283447265624999
1.5243164062499999
1.561376953125
1.5444580078124999
1.5364013671874999
1.5347900390625
1.525927734375
1.0731445312499999
1.3865478515624998
1.585546875
1.5476806640624998
1.5718505859374998
1.6314697265625
1.6910888671875
1.9021728515624998
1.5766845703124999
1.5202880859374999
1.49853515625
1.5082031249999999
1.5170654296875
1.4920898437499999
1.5082031249999999
1.4977294921875
1.4759765624999999
1.4945068359375
1.5106201171875
1.5009521484375
1.5033691406249998
1.8900878906249998
1.63388671875
1.4630859374999998
1.50498046875
1.4630859374999998
1.40185546875
1.3478759765625
1.3478759765625
1.3784912109374998
1.4437499999999999
1.4928955078125
1.5162597656249999
1.5122314453124999
1.5251220703125
1.5323730468749999
1.5315673828124998
1.5436523437499998
1.53076171875
1.5396240234374998
1.5331787109375
1.52109375
1.094091796875
1.4042724609375
1.61455078125
1.5323730468749999
1.558154296875
1.6322753906249998
1.7635986328125
1.851416015625
1.5839355468749998
1.5146484375
1.4977294921875
1.5033691406249998
1.5041748046874999
1.5122314453124999
1.5001464843749999
1.496923828125
1.4977294921875
1.4832275390624998
1.513037109375
1.4800048828124999
1.5017578125
1.6089111328124999
1.812744140625
1.4518066406249999
1.5041748046874999
1.493701171875
1.3921875
1.361572265625
1.3172607421875
1.3736572265625
1.46630859375
1.4928955078125
1.5082031249999999
1.5170654296875
1.5355957031249998
1.5315673828124998
1.53076171875
1.5412353515625
1.529150390625
1.5355957031249998
1.533984375
1.53076171875
1.3527099609375
1.4058837890625
1.609716796875
1.5436523437499998
1.5686279296874999
1.6266357421875
1.662890625
1.893310546875
1.611328125
1.53076171875
1.5114257812499998
1.5073974609374998
1.493701171875
1.509814453125
1.51787109375
1.5073974609374998
1.493701171875
1.5009521484375
1.5001464843749999
1.5082031249999999
1.4961181640624999
1.5976318359375
1.8143554687499999
1.4638916015624999
1.5025634765625
1.490478515625
1.4236083984374999
1.3414306640625
1.3301513671874998
1.3583496093749998
1.4252197265625
1.5162597656249999
1.4912841796874998
1.506591796875
1.5347900390625
1.5396240234374998
1.5315673828124998
1.5186767578125
1.53720703125
1.5380126953125
1.5412353515625
1.5396240234374998
1.397021484375
1.1754638671875
1.5927978515624999
1.5436523437499998
1.546875
1.63388671875
1.6451660156249999
1.9303710937499998
1.6959228515625
1.5355957031249998
1.506591796875
1.5009521484375
1.49853515625
1.4977294921875
1.51787109375
1.493701171875
1.48564453125
1.5009521484375
1.5186767578125
1.4953124999999998
1.4912841796874998
1.4832275390624998
1.8240234375
1.4598632812499999
1.4840332031249999
1.4961181640624999
1.41796875
1.3962158203125
1.2511962890625
1.3591552734374999
1.426025390625
1.48564453125
1.5041748046874999
1.5235107421874998
1.5154541015624998
1.53076171875
1.5170654296875
1.546875
1.5605712890624999
1.5444580078124999
1.5355957031249998
1.5364013671874999
1.4010498046875
1.1802978515625
1.5992431640625
1.5533203125
1.5444580078124999
1.606494140625
1.6177734375
1.9593749999999999
1.6564453124999998
1.546875
1.5170654296875
1.5017578125
1.4961181640624999
1.5025634765625
1.538818359375
1.4840332031249999
1.4896728515625
1.4928955078125
1.5001464843749999
1.5009521484375
1.506591796875
1.4961181640624999
1.941650390625
1.4759765624999999
1.480810546875
1.4993408203124998
1.4638916015624999
1.397021484375
1.2608642578125
1.3672119140624999
1.41796875
1.4816162109375
1.4993408203124998
1.509814453125
1.5194824218749998
1.5484863281249999
1.525927734375
1.5315673828124998
1.5476806640624998
1.5331787109375
1.5283447265624999
1.5323730468749999
1.5170654296875
1.184326171875
1.5895751953125
1.5605712890624999
1.5396240234374998
1.606494140625
