1.5033691406249998
1.513037109375
1.5750732421875
1.6024658203125
1.7313720703125
1.6153564453125
1.5654052734375
1.5782958984375
1.53720703125
1.5194824218749998
1.5106201171875
1.5323730468749999
1.5412353515625
1.5267333984375
1.522705078125
1.5186767578125
1.5162597656249999
1.525927734375
1.683837890625
1.67900390625
1.5597656249999998
1.5355957031249998
1.542041015625
1.509814453125
1.474365234375
1.4066894531249998
1.3784912109374998
1.4187744140624998
1.429248046875
1.5025634765625
1.5025634765625
1.5162597656249999
1.5380126953125
1.49853515625
1.53720703125
1.5218994140625
1.5170654296875
1.5283447265624999
1.5186767578125
1.3108154296874999
1.3285400390625
1.4832275390624998
1.4945068359375
1.493701171875
1.5444580078124999
1.6000488281249998
1.7426513671875
1.6685302734374998
1.5645996093749999
1.554931640625
1.5267333984375
1.5645996093749999
1.506591796875
1.53076171875
1.5114257812499998
1.522705078125
1.5444580078124999
1.5202880859374999
1.506591796875
1.5412353515625
1.5299560546875
1.699951171875
1.5919921874999998
1.5686279296874999
1.561376953125
1.4518066406249999
1.4711425781249998
1.4091064453125
1.3954101562499999
1.4171630859375
1.45341796875
1.4735595703125
1.4703369140625
1.4848388671875
1.533984375
1.513037109375
1.52109375
1.525927734375
1.5090087890625
1.5162597656249999
1.5122314453124999
1.3398193359375
1.33740234375
1.4953124999999998
1.477587890625
1.490478515625
1.5444580078124999
1.5597656249999998
1.7394287109375
1.6532226562499999
1.5831298828125
1.558154296875
1.542041015625
1.5323730468749999
1.546875
1.5299560546875
1.5235107421874998
1.5162597656249999
1.4928955078125
1.5202880859374999
1.5218994140625
1.5114257812499998
1.525927734375
1.7499023437499999
1.5782958984375
1.5573486328125
1.5202880859374999
1.493701171875
1.4679199218749999
1.4236083984374999
1.413134765625
1.43408203125
1.4711425781249998
1.474365234375
1.493701171875
1.493701171875
1.5138427734375
1.509814453125
1.5146484375
1.5380126953125
1.522705078125
1.51787109375
1.5283447265624999
1.4719482421874999
1.2777832031249998
1.477587890625
1.4630859374999998
1.4800048828124999
1.5533203125
1.585546875
1.7410400390624998
1.6604736328124998
1.574267578125
1.5662109375
1.5484863281249999
1.5331787109375
1.5315673828124998
1.4993408203124998
1.5106201171875
1.538818359375
1.5275390624999998
1.525927734375
1.5017578125
1.5194824218749998
1.477587890625
1.7772949218749998
1.6177734375
1.5791015625
1.546875
1.5299560546875
1.4977294921875
1.3849365234375
1.3865478515624998
1.44052734375
1.4461669921875
1.48564453125
1.4687255859375
1.4928955078125
1.4977294921875
1.5025634765625
1.496923828125
1.51787109375
1.5347900390625
1.5355957031249998
1.5154541015624998
1.5122314453124999
1.26005859375
1.4187744140624998
1.49853515625
1.496923828125
1.5299560546875
1.5589599609375
1.735400390625
1.6749755859375
1.6072998046875
1.5541259765625
1.5662109375
1.5364013671874999
1.5194824218749998
1.542041015625
1.5315673828124998
1.5170654296875
1.525927734375
1.5202880859374999
1.5364013671874999
1.5017578125
1.50498046875
1.7781005859374999
1.5702392578125
1.577490234375
1.5597656249999998
1.5082031249999999
1.4945068359375
1.4139404296875
1.4091064453125
1.413134765625
1.4501953125
1.448583984375
1.4872558593749998
1.4977294921875
1.5106201171875
1.5025634765625
1.5186767578125
1.542041015625
1.52109375
1.525927734375
1.5323730468749999
1.5275390624999998
1.2415283203124998
1.4469726562499998
1.4630859374999998
1.4864501953125
1.5194824218749998
1.5267333984375
1.6282470703124998
1.699951171875
1.6129394531249999
1.5750732421875
1.5654052734375
1.533984375
1.5645996093749999
1.5323730468749999
1.4977294921875
1.5082031249999999
1.5017578125
1.506591796875
1.5082031249999999
1.5170654296875
1.5364013671874999
1.7684326171875
1.6403320312499998
1.5621826171875
1.5654052734375
1.5621826171875
1.490478515625
1.3857421875
1.4276367187499999
1.384130859375
1.4510009765624998
1.4687255859375
1.4848388671875
1.474365234375
1.5251220703125
1.529150390625
1.5106201171875
1.5218994140625
1.5283447265624999
1.4912841796874998
1.5323730468749999
1.5243164062499999
1.26328125
1.4252197265625
1.47275390625
1.4896728515625
1.5347900390625
1.5428466796875
1.6209960937499999
1.7450683593749998
1.62744140625
1.5702392578125
1.5702392578125
1.5299560546875
1.5355957031249998
1.5114257812499998
1.5194824218749998
1.5073974609374998
1.513037109375
1.5090087890625
1.522705078125
1.52109375
1.5122314453124999
1.7635986328125
1.6459716796875
1.5766845703124999
1.5589599609375
1.5033691406249998
1.4840332031249999
1.4687255859375
1.4300537109375
1.3873535156249999
1.4389160156249998
1.46953125
1.4711425781249998
1.4872558593749998
1.5009521484375
1.4920898437499999
1.5025634765625
1.5114257812499998
1.5380126953125
1.53076171875
1.5444580078124999
1.5251220703125
1.2495849609374998
1.37607421875
1.4928955078125
1.46953125
1.533984375
1.5831298828125
1.6209960937499999
1.7507080078125
1.638720703125
1.5766845703124999
1.5702392578125
1.542041015625
1.5106201171875
1.5154541015624998
1.52109375
1.5009521484375
1.5283447265624999
1.5436523437499998
1.5283447265624999
1.513037109375
1.5090087890625
1.5670166015625
1.69833984375
1.5968261718749999
1.574267578125
1.545263671875
1.47275390625
1.4791992187499998
1.405078125
1.4010498046875
1.4284423828125
1.4767822265625
1.4711425781249998
1.47275390625
1.490478515625
1.5114257812499998
1.5275390624999998
1.5243164062499999
1.5380126953125
1.5154541015624998
1.53076171875
1.513037109375
1.3921875
1.3744628906249998
1.496923828125
1.4719482421874999
1.493701171875
1.5541259765625
1.5919921874999998
1.7426513671875
1.6411376953124999
1.5678222656249998
1.554931640625
1.5525146484374999
1.5404296874999999
1.5412353515625
1.4945068359375
1.529150390625
1.5017578125
1.522705078125
1.5283447265624999
1.5041748046874999
1.5146484375
1.5895751953125
1.7289550781249998
1.5678222656249998
1.5831298828125
1.546875
1.48564453125
1.4598632812499999
1.4091064453125
1.3986328124999998
1.4348876953124998
1.4510009765624998
1.482421875
1.509814453125
1.493701171875
1.5267333984375
1.5267333984375
1.51787109375
1.5114257812499998
1.5186767578125
1.5170654296875
1.5009521484375
1.4469726562499998
1.27294921875
1.4977294921875
1.4735595703125
1.5186767578125
1.56298828125
1.5557373046874998
1.7531249999999998
1.6693359374999999
1.5968261718749999
1.558154296875
1.5235107421874998
1.5218994140625
1.52109375
1.5678222656249998
1.5251220703125
1.5243164062499999
1.5251220703125
1.5283447265624999
1.509814453125
1.5001464843749999
1.5090087890625
1.732177734375
1.603271484375
1.5766845703124999
1.5654052734375
1.5170654296875
1.4655029296875
1.37607421875
1.3954101562499999
1.416357421875
1.4791992187499998
1.442138671875
1.4928955078125
1.4630859374999998
1.52109375
1.51787109375
1.533984375
1.5170654296875
1.5323730468749999
1.53720703125
1.538818359375
1.416357421875
1.27939453125
1.4501953125
1.4719482421874999
1.5009521484375
1.5235107421874998
1.5799072265624998
1.7370117187499998
1.6725585937499998
1.5678222656249998
1.5831298828125
1.5533203125
1.554931640625
1.53076171875
1.5033691406249998
1.5041748046874999
1.5476806640624998
1.4840332031249999
1.50498046875
1.5122314453124999
1.5267333984375
1.5025634765625
1.7692382812499998
1.5734619140625
1.5541259765625
1.5815185546875
1.5380126953125
1.4510009765624998
1.3792968749999999
1.429248046875
1.4381103515625
1.4348876953124998
1.4993408203124998
1.480810546875
1.474365234375
1.5025634765625
1.5218994140625
1.5057861328125
1.5243164062499999
1.5428466796875
1.4840332031249999
1.5001464843749999
1.5146484375
1.3067871093749999
1.4751708984374998
1.506591796875
1.4896728515625
1.529150390625
1.545263671875
1.683837890625
1.6435546875
1.6201904296874998
1.5807128906249999
1.5412353515625
1.5492919921875
1.5525146484374999
1.5235107421874998
1.5154541015624998
1.5162597656249999
1.5380126953125
1.5017578125
1.542041015625
1.5218994140625
1.5243164062499999
1.7692382812499998
1.5968261718749999
1.5654052734375
1.5396240234374998
1.533984375
1.4848388671875
1.348681640625
1.400244140625
1.432470703125
1.4703369140625
1.48564453125
1.461474609375
1.4993408203124998
1.5218994140625
1.5251220703125
1.5114257812499998
1.5090087890625
1.5235107421874998
1.513037109375
1.51787109375
1.5073974609374998
1.2262207031249999
1.413134765625
1.480810546875
1.480810546875
1.5162597656249999
1.55009765625
1.6572509765624999
1.7418457031249999
1.5927978515624999
1.5879638671874998
1.5645996093749999
1.5331787109375
1.522705078125
1.5331787109375
1.5033691406249998
1.5243164062499999
1.5283447265624999
1.4993408203124998
1.5323730468749999
1.5251220703125
1.506591796875
1.7297607421874999
1.6371093749999999
1.5509033203125
1.5589599609375
1.5355957031249998
1.4840332031249999
1.4437499999999999
1.4123291015625
1.3962158203125
1.4630859374999998
1.46953125
1.4928955078125
1.4655029296875
1.5146484375
1.5114257812499998
1.5017578125
1.5235107421874998
1.522705078125
1.5218994140625
1.52109375
1.513037109375
1.219775390625
1.4187744140624998
1.477587890625
1.496923828125
1.52109375
1.5517089843749998
1.6306640625
1.76279296875
1.6169677734374999
1.6056884765625
1.53076171875
1.5525146484374999
1.53720703125
1.5017578125
1.4896728515625
1.5025634765625
1.542041015625
1.5476806640624998
1.48564453125
1.5251220703125
1.5243164062499999
1.7104248046875
1.6773925781249999
1.5686279296874999
1.5621826171875
1.5436523437499998
1.4655029296875
1.4308593749999998
1.4139404296875
1.4074951171874999
1.4316650390624999
1.4711425781249998
1.4783935546875
1.4953124999999998
1.5057861328125
1.5202880859374999
1.5243164062499999
1.5243164062499999
1.5251220703125
1.52109375
1.5186767578125
1.5017578125
1.3124267578125
1.3913818359374999
1.4864501953125
1.4501953125
1.5001464843749999
1.5597656249999998
1.574267578125
1.72734375
1.622607421875
1.56298828125
1.5412353515625
1.5919921874999998
1.52109375
1.5355957031249998
1.522705078125
1.5275390624999998
1.55009765625
1.5194824218749998
1.5154541015624998
1.5436523437499998
1.545263671875
1.6701416015625
1.6798095703125
1.5678222656249998
1.5621826171875
1.561376953125
1.5025634765625
1.4518066406249999
1.3994384765624999
1.3865478515624998
1.3978271484375
1.4574462890625
1.4816162109375
1.4816162109375
1.5082031249999999
1.51787109375
1.4872558593749998
1.4928955078125
1.5355957031249998
1.5170654296875
1.53720703125
1.5082031249999999
1.3261230468749998
1.3390136718749999
1.46630859375
1.4719482421874999
1.4993408203124998
1.5509033203125
1.60166015625
1.7619873046874999
1.6886718749999998
1.5637939453124998
1.5509033203125
1.545263671875
1.5275390624999998
1.5364013671874999
1.5533203125
1.5460693359375
1.4920898437499999
1.529150390625
1.5525146484374999
1.5186767578125
1.5436523437499998
1.5492919921875
1.6725585937499998
1.5718505859374998
1.5476806640624998
1.5750732421875
1.4920898437499999
1.4493896484375
1.380908203125
1.3494873046875
1.426025390625
1.4735595703125
1.4518066406249999
1.4735595703125
1.513037109375
1.5315673828124998
1.5138427734375
1.5001464843749999
1.5275390624999998
1.5090087890625
1.50498046875
1.4920898437499999
1.3229003906249999
1.3414306640625
1.4308593749999998
1.4671142578124998
1.5057861328125
1.55009765625
1.5758789062499998
1.7281494140625
1.6524169921874998
1.61455078125
1.5678222656249998
1.5146484375
1.49853515625
1.5654052734375
1.5557373046874998
1.5331787109375
1.4945068359375
1.482421875
1.5082031249999999
1.522705078125
1.554931640625
1.561376953125
1.7845458984375
1.622607421875
1.561376953125
1.5492919921875
1.51787109375
1.4630859374999998
1.3849365234375
1.384130859375
1.409912109375
1.4896728515625
1.4920898437499999
1.4759765624999999
1.480810546875
1.538818359375
1.5267333984375
1.5315673828124998
1.5041748046874999
1.5162597656249999
1.5106201171875
1.5170654296875
1.5114257812499998
1.2310546875
1.4687255859375
1.493701171875
1.496923828125
1.5533203125
1.5492919921875
1.7088134765624998
1.6636962890625
1.5879638671874998
1.5670166015625
1.558154296875
1.5380126953125
1.546875
1.5162597656249999
1.53720703125
1.5396240234374998
1.4977294921875
1.49853515625
1.5275390624999998
1.5275390624999998
1.5106201171875
1.78857421875
1.6048828124999999
1.5670166015625
1.5597656249999998
1.546875
1.4896728515625
1.3631835937499999
1.4010498046875
1.4364990234375
1.445361328125
1.461474609375
1.4477783203124999
1.4711425781249998
1.5114257812499998
1.5057861328125
1.506591796875
1.5243164062499999
1.5106201171875
1.5170654296875
1.5202880859374999
1.4928955078125
1.2173583984375
1.4066894531249998
1.47275390625
1.4655029296875
1.5299560546875
1.55009765625
1.7265380859375
1.6967285156249998
1.6282470703124998
1.5984375
1.5436523437499998
1.5380126953125
1.5235107421874998
1.5251220703125
1.5436523437499998
1.5525146484374999
1.4993408203124998
1.5460693359375
1.5355957031249998
1.5331787109375
1.522705078125
1.80791015625
1.6089111328124999
1.5927978515624999
1.5726562499999999
1.4832275390624998
1.4542236328125
1.3551269531249999
1.3865478515624998
1.37607421875
1.4429443359374998
1.4638916015624999
1.4284423828125
1.4574462890625
1.509814453125
1.5283447265624999
1.5355957031249998
1.5275390624999998
1.53076171875
1.5170654296875
1.5017578125
1.522705078125
1.187548828125
1.4155517578124999
1.4751708984374998
1.5146484375
1.4896728515625
1.5718505859374998
1.6081054687499998
1.7362060546875
1.6403320312499998
1.6056884765625
1.5750732421875
1.525927734375
1.5637939453124998
1.545263671875
1.5484863281249999
1.493701171875
1.5009521484375
1.5194824218749998
1.525927734375
1.533984375
1.5154541015624998
1.8441650390625
1.6572509765624999
1.5807128906249999
1.5750732421875
1.545263671875
1.4945068359375
1.368017578125
1.3583496093749998
1.3857421875
1.4107177734374998
1.416357421875
1.4518066406249999
1.458251953125
1.5323730468749999
1.5355957031249998
1.5355957031249998
1.513037109375
1.5154541015624998
1.5267333984375
1.493701171875
1.5218994140625
1.135986328125
1.413134765625
1.480810546875
1.4477783203124999
1.4711425781249998
1.5621826171875
1.6717529296875
1.799853515625
1.6427490234375
1.5678222656249998
1.5476806640624998
1.5621826171875
1.5589599609375
1.5396240234374998
1.5476806640624998
1.5146484375
1.490478515625
1.477587890625
1.5557373046874998
1.5114257812499998
1.55009765625
1.85947265625
1.7104248046875
1.6137451171875
1.590380859375
1.5766845703124999
1.4896728515625
1.3817138671875
1.3857421875
1.3583496093749998
1.3720458984375
1.3752685546874999
1.3986328124999998
1.4493896484375
1.4574462890625
1.5267333984375
1.4703369140625
1.5106201171875
1.5218994140625
1.542041015625
1.51787109375
1.5347900390625
1.1053710937499999
1.2955078125
1.45341796875
1.4252197265625
1.53076171875
1.5750732421875
1.6765869140624998
1.915869140625
1.7652099609374998
1.611328125
1.577490234375
1.525927734375
1.577490234375
1.5597656249999998
1.538818359375
1.5380126953125
1.558154296875
1.513037109375
1.5380126953125
1.533984375
1.554931640625
1.7587646484375
1.8667236328124999
1.690283203125
1.5791015625
1.506591796875
1.4542236328125
1.4058837890625
1.2802001953125
1.271337890625
1.3510986328124999
1.3478759765625
1.3897705078125
1.458251953125
1.49853515625
1.5001464843749999
1.4671142578124998
1.558154296875
1.513037109375
1.5565429687499999
1.5460693359375
1.5017578125
1.1923828125
1.1786865234375
1.3664062499999998
1.3736572265625
1.4461669921875
1.561376953125
1.6943115234375
1.977099609375
1.89169921875
1.7450683593749998
1.674169921875
1.5082031249999999
1.5170654296875
1.5251220703125
1.4751708984374998
1.480810546875
1.5001464843749999
1.522705078125
1.482421875
1.4308593749999998
1.5025634765625
1.751513671875
2.0326904296875
1.861083984375
1.6322753906249998
1.6129394531249999
1.509814453125
1.416357421875
1.18916015625
1.1013427734374999
1.1706298828125
1.2656982421874998
1.3365966796875
1.3172607421875
1.397021484375
1.4252197265625
1.4558349609374999
1.4864501953125
1.4719482421874999
1.58232421875
1.6072998046875
1.4332763671875
0.631640625
0.0281982421875
0.0298095703125
0.0346435546875
0.0298095703125
0.030615234374999998
0.033032226562499996
1.400244140625
2.135009765625
2.4927246093749997
2.6546630859375
2.7835693359375
2.6885009765624996
2.689306640625
2.6780273437499997
2.534619140625
2.4774169921875
2.3477050781249997
2.2582763671875
2.238134765625
2.1301757812499997
2.135009765625
2.9946533203124996
3.0010986328125
3.0043212890624997
3.0002929687499997
3.0043212890624997
2.8899169921874996
2.131787109375
1.5758789062499998
0.8564208984374999
0.5736328125
0.3746337890625
0.16838378906249998
0.143408203125
0.25217285156249997
0.29245605468749997
0.3673828125
0.48259277343749996
0.572021484375
0.68642578125
0.7661865234374999
0.7887451171875
0.0314208984375
0.030615234374999998
0.02578125
0.02900390625
0.0281982421875
0.02578125
0.8201660156249999
1.7168701171874998
2.3549560546875
2.521728515625
2.6103515625
2.7706787109374997
2.6836669921875
2.6079345703124996
2.5789306640625
2.431494140625
2.2268554687499997
2.1519287109375
2.1760986328125
2.0826416015625
2.0415527343749997
3.0010986328125
3.0010986328125
3.001904296875
3.0010986328125
3.003515625
2.9181152343749996
2.2614990234375
1.5807128906249999
1.0828125
0.6767578125
0.3794677734375
0.1740234375
0.0314208984375
0.169189453125
0.249755859375
0.41572265625
0.5599365234375
0.501123046875
0.6292236328124999
0.6968994140625
0.8104980468749999
0.02900390625
0.02900390625
0.0298095703125
0.02900390625
0.02900390625
0.033032226562499996
0.2811767578125
1.6121337890624998
2.2590820312499997
2.69091796875
2.7642333984375
2.8383544921875
2.872998046875
2.8536621093749996
2.6337158203124997
2.512060546875
2.4298828125
2.4298828125
2.31064453125
2.2550537109374997
2.1180908203124997
3.001904296875
3.001904296875
3.0010986328125
3.0010986328125
3.0010986328125
3.0010986328125
2.769873046875
1.8570556640625
1.135986328125
0.7436279296874999
0.3907470703125
0.1232666015625
0.059619140625
0.059619140625
0.1345458984375
0.32145996093749996
0.45761718749999997
0.491455078125
0.5349609375
0.61552734375
0.6662841796875
0.0298095703125
0.027392578124999997
0.0298095703125
0.0281982421875
0.027392578124999997
0.0249755859375
0.0298095703125
1.1367919921875
2.047998046875
2.43955078125
2.6723876953124996
2.7892089843749996
2.85205078125
2.776318359375
2.6353271484375
2.5757080078124996
2.4806396484374997
2.4419677734375
2.376708984375
2.276806640625
2.1543457031249997
2.7730957031249996
3.0027099609374996
2.9978759765625
3.0002929687499997
2.9986816406249996
3.0059326171875
2.9688720703125
2.2598876953125
1.6008544921874999
1.1778808593749999
0.8854248046875
0.7412109375
0.49306640625
0.2771484375
0.3665771484375
0.3262939453125
0.37302246093749997
0.44553222656249997
0.4326416015625
0.55751953125
0.7162353515625
0.02900390625
0.0314208984375
0.0322265625
0.026586914062499998
0.02900390625
0.02900390625
0.0298095703125
1.2093017578125
2.00771484375
2.5241455078125
2.578125
2.6200195312499996
2.7021972656249997
2.747314453125
2.578125
2.57490234375
2.5692626953124997
2.5467041015625
2.5458984375
2.42666015625
2.2026855468749997
2.0665283203125
3.001904296875
3.001904296875
2.9906249999999996
2.9970703125
3.001904296875
2.9720947265624997
2.2969482421875
1.7611816406249998
1.200439453125
0.8967041015624999
0.5929687499999999
0.3158203125
0.15629882812499998
0.1740234375
0.3101806640625
0.40122070312499997
0.4229736328125
0.48984374999999997
0.5551025390625
0.6598388671875
0.7968017578125
0.0322265625
0.02900390625
0.0249755859375
0.027392578124999997
0.027392578124999997
0.0298095703125
0.710595703125
1.6346923828125
2.07861328125
2.5201171875
2.6458007812499997
2.6619140624999997
2.6296874999999997
2.5869873046875
2.5877929687499996
2.5313964843749996
2.462109375
2.3517333984374997
2.31708984375
2.255859375
2.131787109375
2.9970703125
3.0027099609374996
3.003515625
3.0027099609374996
3.0010986328125
3.0059326171875
2.4854736328125
1.8489990234375
1.0691162109374999
0.784716796875
0.5019287109375
0.36416015625
0.16677246093749998
0.2779541015625
0.35690917968749997
0.310986328125
0.2989013671875
0.4729248046875
0.580078125
0.6912597656249999
0.7162353515625
0.02900390625
0.02900390625
0.02578125
0.0298095703125
0.0298095703125
0.030615234374999998
0.167578125
1.3261230468749998
1.9972412109375
2.325146484375
2.441162109375
2.5612060546874997
2.6490234375
2.486279296875
2.534619140625
2.4741943359375
2.425048828125
2.3154785156249997
2.2921142578125
2.1970458984375
2.1744873046874997
2.7908203124999997
3.001904296875
3.0002929687499997
3.001904296875
3.005126953125
3.001904296875
2.900390625
2.263916015625
1.4373046875
1.039306640625
0.78955078125
0.5671875
0.3988037109375
0.35771484374999996
0.4842041015625
0.6034423828125
0.6429199218749999
0.7613525390625
0.7677978515624999
0.8201660156249999
0.8419189453125
0.02900390625
0.033837890625
0.02900390625
0.02900390625
0.0314208984375
0.030615234374999998
0.0298095703125
1.0433349609375
1.9118408203125
2.1793212890625
2.39765625
2.4806396484374997
2.6385498046875
2.6449951171875
2.5563720703125
2.5015869140625
2.50400390625
2.4242431640624997
2.27841796875
2.205908203125
2.1060058593749997
2.1052001953125
3.0059326171875
3.0010986328125
3.0010986328125
3.0043212890624997
3.0067382812499996
2.9302001953124996
2.180126953125
1.6008544921874999
1.1408203125
0.8161376953124999
0.35690917968749997
0.404443359375
0.278759765625
0.281982421875
0.26103515625
0.307763671875
0.36174316406249996
0.6010253906249999
0.6380859375
0.760546875
0.8846191406249999
0.0281982421875
0.02900390625
0.02900390625
0.0322265625
0.0281982421875
0.018530273437499998
0.4793701171875
1.7571533203124998
2.1438720703125
2.367041015625
2.5966552734375
2.6860839843749997
2.7867919921874997
2.744091796875
2.6353271484375
2.634521484375
2.4355224609375
2.3275634765624997
2.1470947265625
2.1551513671875
2.0375244140624997
3.0002929687499997
3.0027099609374996
3.001904296875
3.0067382812499996
3.0002929687499997
3.0002929687499997
2.32998046875
1.7539306640624999
1.1778808593749999
0.7395996093749999
0.4962890625
0.3633544921875
0.19497070312499998
0.40927734374999997
0.4245849609375
0.4568115234375
0.533349609375
0.5841064453125
0.7001220703125
0.829833984375
0.816943359375
0.0298095703125
0.033032226562499996
0.0281982421875
0.02900390625
0.024169921875
0.0281982421875
0.17885742187499998
1.5718505859374998
2.077001953125
2.3404541015625
2.434716796875
2.5088378906249997
2.5418701171875
2.5112548828124996
2.6055175781249997
2.6014892578124997
2.4822509765625
2.3678466796874997
2.2751953124999997
2.238134765625
2.173681640625
2.9986816406249996
3.001904296875
3.0027099609374996
3.0002929687499997
3.001904296875
3.0027099609374996
2.5885986328125
2.1035888671875
1.4066894531249998
0.9724365234375
0.607470703125
0.5422119140625
0.33273925781249997
0.4165283203125
0.38188476562499996
0.45439453124999996
0.46970214843749997
0.5373779296875
0.623583984375
0.7154296874999999
0.78955078125
0.0298095703125
0.02578125
0.0298095703125
0.0314208984375
0.033032226562499996
0.0298095703125
0.0249755859375
1.09892578125
1.9924072265625
2.32998046875
2.4435791015625
2.634521484375
2.586181640625
2.518505859375
2.421826171875
2.39443359375
2.3275634765624997
2.3452880859375
2.27197265625
2.1438720703125
1.9924072265625
2.36865234375
3.0002929687499997
3.0010986328125
3.001904296875
2.9978759765625
2.9978759765625
3.001904296875
2.3533447265625
1.735400390625
1.287451171875
0.9394042968749999
0.607470703125
0.45358886718749997
0.36899414062499997
0.4390869140625
0.43022460937499996
0.4318359375
0.565576171875
0.6743408203125
0.6832031249999999
0.6888427734375
0.330322265625
0.0249755859375
0.0249755859375
0.024169921875
0.0281982421875
0.0249755859375
0.033032226562499996
1.00546875
1.7265380859375
2.1946289062499997
2.4016845703125
2.4846679687499997
2.5531494140624997
2.570068359375
2.5636230468749996
2.5958496093749996
2.4983642578125
2.4000732421874997
2.2711669921874997
2.2582763671875
2.144677734375
2.0423583984375
3.0027099609374996
3.0002929687499997
3.003515625
3.001904296875
3.001904296875
2.9970703125
2.4097412109375
1.8659179687499998
1.1666015625
0.7387939453125
0.48581542968749997
0.3343505859375
0.2280029296875
0.1957763671875
0.34160156249999996
0.3681884765625
0.41008300781249996
0.6163330078125
0.6227783203124999
0.65419921875
0.8024414062499999
0.02900390625
0.0298095703125
0.0298095703125
0.0281982421875
0.02900390625
0.02900390625
0.597802734375
1.5637939453124998
2.1140624999999997
2.4234375
2.6176025390624997
2.7030029296875
2.8157958984375
2.769873046875
2.650634765625
2.592626953125
2.47822265625
2.318701171875
2.1777099609375
2.0117431640625
1.92392578125
3.0010986328125
3.001904296875
2.9986816406249996
3.0010986328125
3.001904296875
3.0027099609374996
2.7569824218749996
2.131787109375
1.4510009765624998
0.9466552734375
0.720263671875
0.4833984375
0.37302246093749997
0.31904296875
0.33515625
0.394775390625
0.485009765625
0.5841064453125
0.6598388671875
0.6566162109375
0.733154296875
0.02900390625
0.023364257812499997
0.033837890625
0.0281982421875
0.027392578124999997
0.0281982421875
0.0281982421875
1.2665039062499999
1.9585693359374998
2.2534423828125
2.5434814453124996
2.60068359375
2.60712890625
2.578125
2.6441894531249996
2.6216308593749997
2.4927246093749997
2.4758056640625
2.4435791015625
2.3871826171875
2.2647216796875
2.2469970703124997
3.0067382812499996
3.001904296875
3.0002929687499997
3.003515625
3.001904296875
2.977734375
2.3517333984374997
1.815966796875
1.1899658203124999
0.8741455078125
0.5921630859375
0.31743164062499996
0.169189453125
0.2747314453125
0.275537109375
0.37302246093749997
0.5091796875
0.549462890625
0.5994140625
0.7194580078124999
0.5663818359375
0.033837890625
0.02900390625
0.0281982421875
0.026586914062499998
0.030615234374999998
0.0281982421875
0.8435302734375
1.6636962890625
2.101171875
2.4306884765625
2.56845703125
2.6820556640624997
2.6780273437499997
2.6031005859375
2.4339111328125
2.415380859375
2.4242431640624997
2.3871826171875
2.3323974609375
2.2663330078125
2.18173828125
3.003515625
2.9978759765625
3.0010986328125
3.0010986328125
3.001904296875
3.003515625
2.4355224609375
2.022216796875
1.2850341796875
0.9595458984374999
0.6268066406249999
0.4471435546875
0.270703125
0.3391845703125
0.4842041015625
0.488232421875
0.5526855468749999
0.5260986328125
0.6090820312499999
0.5921630859375
0.6703125
0.0281982421875
0.02900390625
0.0298095703125
0.02900390625
0.030615234374999998
0.02900390625
0.34079589843749997
1.40185546875
2.015771484375
2.350927734375
2.4403564453124997
2.6369384765625
2.6095458984374997
2.6047119140625
2.4838623046875
2.5660400390625
2.4814453125
2.4911132812499996
2.3420654296875
2.1624023437499997
2.1583740234374997
3.0043212890624997
3.0010986328125
3.001904296875
3.0010986328125
2.9994873046875
3.001904296875
2.8190185546874997
2.20751953125
1.480810546875
1.1931884765625
0.9394042968749999
0.7903564453124999
0.37382812499999996
0.339990234375
0.31743164062499996
0.468896484375
0.4874267578125
0.52529296875
0.5768554687499999
0.555908203125
0.71220703125
0.027392578124999997
0.033032226562499996
0.0298095703125
0.0281982421875
0.02900390625
0.0281982421875
0.027392578124999997
1.061865234375
1.65
2.215576171875
2.4129638671875
2.470166015625
2.6240478515624996
2.4661376953125
2.3912109375
2.386376953125
2.4427734375
2.434716796875
2.33642578125
2.1615966796875
2.080224609375
1.993212890625
3.0002929687499997
3.001904296875
3.001904296875
3.001904296875
3.0027099609374996
2.9253662109375
2.3436767578124997
1.5782958984375
1.0570312499999999
0.887841796875
0.7839111328124999
0.5422119140625
0.43425292968749996
0.38913574218749997
0.451171875
0.578466796875
0.6324462890625
0.66064453125
0.7935791015625
0.863671875
0.8846191406249999
0.0314208984375
0.0281982421875
0.02900390625
0.033837890625
0.0322265625
0.0281982421875
0.8741455078125
1.6564453124999998
2.0665283203125
2.26875
2.273583984375
2.4298828125
2.3775146484375
2.3074218749999997
2.1068115234375
2.1865722656249997
2.1180908203124997
2.1309814453125
2.10439453125
2.1535400390625
2.1325927734375
3.0002929687499997
3.0027099609374996
3.0010986328125
3.0010986328125
3.0067382812499996
3.003515625
2.5789306640625
1.843359375
1.3994384765624999
1.026416015625
0.7541015624999999
0.517236328125
0.407666015625
0.3585205078125
0.4471435546875
0.46647949218749996
0.510791015625
0.5115966796875
0.6429199218749999
0.726708984375
0.8056640625
0.02578125
0.030615234374999998
0.02900390625
0.02900390625
0.0281982421875
0.0281982421875
0.064453125
1.36962890625
2.1245361328125
2.3404541015625
2.4983642578125
2.6232421875
2.7722900390625
2.6522460937499996
2.5587890625
2.437939453125
2.3662353515625
2.255859375
2.1487060546875
2.1793212890625
2.1470947265625
3.0075439453125
3.0002929687499997
2.9978759765625
3.0010986328125
2.9986816406249996
3.001904296875
2.9358398437499997
2.1591796875
1.5533203125
1.1206787109375
0.7637695312499999
0.5438232421875
0.38591308593749996
0.2376708984375
0.3440185546875
0.3230712890625
0.262646484375
0.330322265625
0.4648681640625
0.510791015625
0.5857177734375
0.02900390625
0.02900390625
0.0322265625
0.024169921875
0.027392578124999997
0.0281982421875
0.0281982421875
1.0828125
1.9907958984374998
2.25263671875
2.4041015624999997
2.5257568359375
2.698974609375
2.6603027343749996
2.5805419921875
2.537841796875
2.4943359375
2.4645263671874997
2.4355224609375
2.4500244140625
2.3718749999999997
2.286474609375
3.001904296875
2.9970703125
3.005126953125
3.001904296875
3.001904296875
3.001904296875
2.344482421875
1.8949218749999999
1.327734375
0.974853515625
0.5631591796875
0.43828124999999996
0.33515625
0.343212890625
0.30454101562499997
0.2102783203125
0.281982421875
0.45439453124999996
0.4632568359375
0.51884765625
0.02578125
0.0281982421875
0.02900390625
0.02900390625
0.02900390625
0.0298095703125
0.0298095703125
0.6066650390625
1.67900390625
2.1076171875
2.360595703125
2.392822265625
2.47177734375
2.6232421875
2.54267578125
2.5370361328124997
2.4097412109375
2.3211181640625
2.2268554687499997
2.1567626953125
2.10439453125
2.0044921875
3.0002929687499997
3.0010986328125
3.0027099609374996
2.9986816406249996
3.0043212890624997
3.0010986328125
2.5434814453124996
2.0302734375
1.5017578125
1.2890625
0.984521484375
0.8306396484374999
0.5446289062499999
0.5124023437499999
0.517236328125
0.5099853515625
0.5663818359375
0.62841796875
0.6751464843749999
0.67998046875
0.7532958984375
0.026586914062499998
0.030615234374999998
0.027392578124999997
0.030615234374999998
0.0281982421875
0.0281982421875
0.08620605468749999
1.4550292968749998
1.9835449218749999
2.2598876953125
2.513671875
2.7287841796874996
2.7384521484374997
2.6699707031249997
2.744091796875
2.6997802734375
2.553955078125
2.5080322265625
2.454052734375
2.3694580078125
2.3066162109375
3.0010986328125
3.003515625
3.0043212890624997
3.0010986328125
3.0002929687499997
3.001904296875
2.5708740234375
2.0343017578125
1.4735595703125
1.03447265625
0.6131103515624999
0.533349609375
0.4004150390625
0.2860107421875
0.25458984375
0.2618408203125
0.28359375
0.4471435546875
0.5244873046874999
0.5736328125
0.6654785156249999
0.0281982421875
0.0281982421875
0.0298095703125
0.02900390625
0.0281982421875
0.0281982421875
0.0298095703125
1.3212890625
1.9674316406249999
2.3033935546874997
2.4580810546875
2.6417724609374997
2.5732910156249997
2.6272705078125
2.5966552734375
2.5177001953125
2.49755859375
2.3017822265625
2.357373046875
2.328369140625
2.2421630859375
2.4846679687499997
3.0002929687499997
3.0002929687499997
3.0002929687499997
3.0043212890624997
3.005126953125
3.001904296875
2.4169921875
1.7877685546875
1.2673095703125
0.952294921875
0.6211669921874999
0.4729248046875
0.43344726562499997
0.44633789062499996
0.3923583984375
0.48662109374999996
0.41008300781249996
0.40605468749999996
0.5865234375
0.6936767578124999
0.14824218749999998
0.02900390625
0.0298095703125
0.0249755859375
0.02900390625
0.0281982421875
0.024169921875
0.726708984375
1.5347900390625
1.8989501953124999
2.0294677734374997
2.2969482421875
2.5322021484375
2.5950439453125
2.544287109375
2.505615234375
2.3912109375
2.383154296875
2.2824462890625
2.160791015625
2.1462890624999997
2.2107421874999997
3.0027099609374996
3.0043212890624997
2.9994873046875
3.0002929687499997
3.0002929687499997
3.0002929687499997
2.534619140625
2.051220703125
1.49853515625
0.961962890625
0.6936767578124999
0.572021484375
0.2876220703125
0.2513671875
0.3029296875
0.2892333984375
0.3923583984375
0.5099853515625
0.546240234375
0.7581298828124999
0.7919677734374999
0.02900390625
0.0281982421875
0.0249755859375
0.02900390625
0.0249755859375
0.0322265625
0.42861328125
1.5476806640624998
2.13984375
2.41376953125
2.6458007812499997
2.7207275390624996
2.7513427734375
2.5789306640625
2.5402587890625
2.5837646484374996
2.4927246093749997
2.4000732421874997
2.3404541015625
2.4016845703125
2.2389404296874997
3.001904296875
3.0002929687499997
3.003515625
3.0067382812499996
2.9978759765625
3.001904296875
2.85849609375
2.2832519531249997
1.7289550781249998
1.2101074218749999
0.974853515625
0.6920654296875
0.33676757812499997
0.26425781249999997
0.2666748046875
0.32145996093749996
0.43505859375
0.44553222656249997
0.45842285156249996
0.52529296875
0.575244140625
0.030615234374999998
0.0298095703125
0.024169921875
0.02900390625
0.02900390625
0.033032226562499996
0.0249755859375
1.2109130859375
1.767626953125
2.2429687499999997
2.4983642578125
2.6353271484375
2.7021972656249997
2.6176025390624997
2.608740234375
2.4758056640625
2.4629150390625
2.302587890625
2.1728759765625
2.102783203125
2.0294677734374997
2.126953125
3.0067382812499996
3.0002929687499997
3.0002929687499997
3.0002929687499997
2.9994873046875
3.001904296875
2.5370361328124997
1.9440673828125
1.2528076171875
0.9369873046874999
0.7242919921875
0.5824951171875
0.443115234375
0.3544921875
0.35771484374999996
0.45358886718749997
0.5244873046874999
0.580078125
0.8290283203125
0.8499755859375
0.5422119140625
0.0281982421875
0.0322265625
0.02900390625
0.0249755859375
0.0281982421875
0.0281982421875
0.855615234375
1.6951171875
2.03671875
2.2590820312499997
2.3662353515625
2.318701171875
2.489501953125
2.39765625
2.4000732421874997
2.3654296875
2.34931640625
2.31064453125
2.2260498046875
2.1293701171875
2.1720703125
2.9986816406249996
2.9962646484374997
3.003515625
3.0027099609374996
2.9970703125
2.9978759765625
2.5313964843749996
2.051220703125
1.3551269531249999
1.029638671875
0.717041015625
0.44150390624999997
0.18369140625
0.20866699218749998
0.141796875
0.223974609375
0.42861328125
0.5599365234375
0.6260009765625
0.510791015625
0.51884765625
0.02578125
0.0281982421875
0.0281982421875
0.0298095703125
0.02900390625
0.0322265625
0.17482910156249998
1.4236083984374999
1.9787109374999998
2.3138671875
2.434716796875
2.53623046875
2.5982666015625
2.7247558593749996
2.6925292968749996
2.5821533203125
2.463720703125
2.325146484375
2.3114501953124997
2.3050048828125
2.183349609375
3.003515625
2.9978759765625
3.001904296875
3.003515625
3.001904296875
3.0010986328125
2.9455078125
2.193017578125
1.3712402343749999
0.97646484375
0.6968994140625
0.388330078125
0.29970703125
0.30937499999999996
0.33837890625
0.43828124999999996
0.4519775390625
0.5309326171875
0.6952880859374999
0.7130126953125
0.823388671875
0.027392578124999997
0.027392578124999997
0.0298095703125
0.02900390625
0.02900390625
0.033032226562499996
0.026586914062499998
1.0433349609375
1.783740234375
2.29775390625
2.487890625
2.5467041015625
2.6820556640624997
2.7674560546875
2.6965576171874996
2.5652343749999997
2.40732421875
2.3549560546875
2.386376953125
2.2663330078125
2.2196044921875
2.1060058593749997
3.0043212890624997
3.0002929687499997
3.0027099609374996
3.0010986328125
2.9994873046875
2.9906249999999996
2.3791259765625
1.482421875
1.11826171875
0.7710205078125
0.6904541015625
0.517236328125
0.42619628906249996
0.5228759765625
0.533349609375
0.459228515625
0.4962890625
0.5260986328125
0.5986083984375
0.5736328125
0.5849121093749999
0.0346435546875
0.033032226562499996
0.027392578124999997
0.033837890625
0.02900390625
0.027392578124999997
0.825
1.8199951171875
2.3799316406249997
2.44921875
2.5241455078125
2.5757080078124996
2.6707763671875
2.59423828125
2.4677490234375
2.4854736328125
2.466943359375
2.3130615234375
2.0657226562499997
2.1583740234374997
2.101171875
2.9946533203124996
3.0027099609374996
3.0043212890624997
3.0027099609374996
3.005126953125
3.001904296875
2.5644287109375
1.912646484375
1.4276367187499999
1.20849609375
0.75087890625
0.5180419921875
0.33837890625
0.33273925781249997
0.32548828124999996
0.3158203125
0.23283691406249998
0.31904296875
0.39799804687499996
0.5406005859374999
0.581689453125
0.0298095703125
0.02900390625
0.030615234374999998
0.02578125
0.0281982421875
0.026586914062499998
0.07412109374999999
1.4574462890625
2.0842529296875
2.2695556640625
2.4234375
2.534619140625
2.57490234375
2.5821533203125
2.5168945312499997
2.5676513671874996
2.44921875
2.4677490234375
2.2469970703124997
2.2743896484375
2.19140625
3.0002929687499997
3.0027099609374996
3.0010986328125
3.003515625
3.0059326171875
3.0010986328125
2.9672607421875
2.1857666015625
1.6411376953124999
1.3172607421875
0.9514892578124999
0.7387939453125
0.57041015625
0.501123046875
0.47775878906249997
0.5470458984375
0.49951171875
0.46164550781249997
0.6243896484375
0.530126953125
0.6147216796875
0.02900390625
0.02900390625
0.033837890625
0.0322265625
0.030615234374999998
0.027392578124999997
0.0249755859375
1.1303466796875
1.9150634765624999
2.1342041015624997
2.2365234375
2.39765625
2.5048095703124997
2.52978515625
2.45888671875
2.39443359375
2.4169921875
2.3614013671875
2.2034912109375
2.1978515625
2.1197021484375
3.0059326171875
3.0010986328125
2.9994873046875
3.0010986328125
3.0067382812499996
3.001904296875
3.001904296875
2.399267578125
1.65
1.1496826171874999
0.6582275390625
0.44553222656249997
0.4036376953125
0.1619384765625
0.167578125
0.2715087890625
0.314208984375
0.38349609375
0.5937744140625
0.6123046875
0.6405029296875
0.0281982421875
0.0281982421875
0.030615234374999998
0.033032226562499996
0.02900390625
0.033032226562499996
0.02900390625
0.6920654296875
1.75634765625
2.002880859375
2.2437744140625
2.5225341796875
2.56201171875
2.6095458984374997
2.5974609374999997
2.487890625
2.502392578125
2.4242431640624997
2.447607421875
2.3807373046875
2.328369140625
2.273583984375
3.0010986328125
3.001904296875
2.9986816406249996
3.005126953125
3.0010986328125
3.001904296875
2.5483154296875
2.01416015625
1.4115234374999999
0.9345703125
0.7299316406249999
0.47050781249999996
0.36899414062499997
0.423779296875
0.591357421875
0.5921630859375
0.636474609375
0.6348632812499999
0.7863281249999999
0.7726318359375
0.6912597656249999
0.0298095703125
0.0298095703125
0.030615234374999998
0.033837890625
0.02900390625
0.0298095703125
0.030615234374999998
1.482421875
1.9400390625
2.1704589843749997
2.4427734375
2.5692626953124997
2.6417724609374997
2.5265625
2.4443847656249997
2.50400390625
2.560400390625
2.4016845703125
2.4041015624999997
2.33642578125
2.157568359375
3.0002929687499997
3.0010986328125
3.0002929687499997
3.0010986328125
2.9986816406249996
3.001904296875
2.7303955078124997
2.38154296875
1.72734375
1.1722412109375
0.942626953125
0.7476562499999999
0.47050781249999996
0.37060546875
0.407666015625
0.43425292968749996
0.45036621093749996
0.43344726562499997
0.5019287109375
0.6131103515624999
0.6856201171874999
0.02900390625
0.02900390625
0.0322265625
0.024169921875
0.026586914062499998
0.0281982421875
0.0281982421875
1.3027587890624999
1.92392578125
2.2429687499999997
2.5612060546874997
2.56845703125
2.5708740234375
2.6707763671875
2.5330078124999997
2.5394531249999996
2.5757080078124996
2.4524414062499997
2.341259765625
2.2671386718749997
2.077001953125
2.65546875
3.0010986328125
3.001904296875
3.0002929687499997
2.9978759765625
3.0010986328125
3.0010986328125
2.3074218749999997
1.7595703125
1.24072265625
0.9498779296875
0.6413085937499999
0.543017578125
0.30937499999999996
0.314208984375
0.47856445312499996
0.45439453124999996
0.4229736328125
0.533349609375
0.485009765625
0.6292236328124999
0.030615234374999998
0.0281982421875
0.0298095703125
0.033837890625
0.0298095703125
0.033837890625
0.013696289062499999
0.8846191406249999
1.7490966796874998
2.1035888671875
2.3646240234375
2.43310546875
2.4516357421875
2.5894042968749997
2.657080078125
2.592626953125
2.5201171875
2.4435791015625
2.4645263671874997
2.3791259765625
2.2824462890625
2.2018798828125
2.9978759765625
3.0010986328125
3.005126953125
3.0027099609374996
3.0002929687499997
3.001904296875
2.4935302734375
1.9891845703125
1.264892578125
0.9385986328125
0.6638671875
0.4970947265625
0.294873046875
0.3198486328125
0.46567382812499997
0.4084716796875
0.47453613281249996
0.47856445312499996
0.6469482421874999
0.7742431640624999
0.7194580078124999
0.02900390625
0.027392578124999997
0.0322265625
0.02900390625
0.0281982421875
0.02900390625
0.2747314453125
1.4228027343749998
1.9634033203124999
2.2888916015625
2.4822509765625
2.582958984375
2.6876953125
2.59423828125
2.5853759765624997
2.6095458984374997
2.578125
2.5434814453124996
2.4838623046875
2.289697265625
2.1567626953125
3.001904296875
2.9970703125
3.0010986328125
3.0002929687499997
3.0010986328125
3.0010986328125
2.7489257812499996
2.1825439453124997
1.4413330078125
1.084423828125
0.8370849609375
0.6590332031249999
0.4149169921875
0.4358642578125
0.46970214843749997
0.4962890625
0.3955810546875
0.5260986328125
0.50595703125
0.6485595703125
0.5631591796875
0.026586914062499998
0.0322265625
0.02900390625
0.02578125
0.0281982421875
0.0281982421875
0.042700195312499994
1.27294921875
1.9327880859375
2.357373046875
2.5080322265625
2.5982666015625
2.6288818359375
2.53623046875
2.5587890625
2.437939453125
2.2373291015625
2.152734375
2.1325927734375
2.1197021484375
2.0117431640625
2.1785156249999997
3.0010986328125
2.9994873046875
3.001904296875
3.005126953125
3.001904296875
3.005126953125
2.3904052734375
1.6121337890624998
1.110205078125
0.8403076171874999
0.7291259765625
0.45439453124999996
0.36496582031249997
0.37060546875
0.2280029296875
0.2827880859375
0.35771484374999996
0.3359619140625
0.51884765625
0.6018310546875
0.46728515625
0.0314208984375
0.0322265625
0.0281982421875
0.030615234374999998
0.02900390625
0.030615234374999998
0.7065673828125
1.6459716796875
2.1777099609375
2.3968505859375
2.6095458984374997
2.7392578125
2.7747070312499997
2.843994140625
2.7980712890625
2.6949462890625
2.6538574218749997
2.473388671875
2.3066162109375
2.2389404296874997
2.1946289062499997
3.001904296875
3.0010986328125
3.0043212890624997
3.0027099609374996
3.001904296875
3.0002929687499997
2.495947265625
1.8240234375
1.2366943359375
0.958740234375
0.829833984375
0.5357666015625
0.4189453125
0.35288085937499997
0.42216796874999996
0.4600341796875
0.5083740234374999
0.4874267578125
0.523681640625
0.562353515625
0.64453125
0.0298095703125
0.02900390625
0.0322265625
0.0281982421875
0.030615234374999998
0.0298095703125
0.36979980468749996
1.448583984375
2.0818359374999997
2.199462890625
2.4838623046875
2.5773193359374997
2.65869140625
2.5757080078124996
2.550732421875
2.5740966796875
2.5555664062499996
2.4903076171875
2.3879882812499997
2.3372314453125
2.2453857421875
3.001904296875
2.9978759765625
3.0059326171875
3.0027099609374996
3.001904296875
3.001904296875
2.9108642578125
2.1551513671875
1.654833984375
1.2955078125
0.942626953125
0.6662841796875
0.3552978515625
0.285205078125
0.3440185546875
0.39799804687499996
0.5647705078124999
0.5373779296875
0.517236328125
0.6002197265625
0.6324462890625
0.027392578124999997
0.0298095703125
0.0298095703125
0.0298095703125
0.02900390625
0.02900390625
0.02578125
1.0634765625
1.8578613281249998
2.165625
2.425048828125
2.521728515625
2.553955078125
2.6643310546874996
2.6337158203124997
2.705419921875
2.6699707031249997
2.56201171875
2.4967529296874997
2.4435791015625
2.3211181640625
3.0027099609374996
3.001904296875
3.0002929687499997
3.0010986328125
3.001904296875
3.0010986328125
3.0027099609374996
2.2502197265625
1.6072998046875
1.1964111328125
0.863671875
0.67998046875
0.57041015625
0.49387207031249997
0.46245117187499996
0.4922607421875
0.575244140625
0.6098876953125
0.7081787109375
0.6332519531249999
0.7323486328125
0.02900390625
0.026586914062499998
0.0281982421875
0.02900390625
0.02578125
0.030615234374999998
0.0298095703125
0.7130126953125
1.828857421875
2.1865722656249997
2.3291748046875
2.5467041015625
2.5845703125
2.59423828125
2.5902099609375
2.6361328124999996
2.4443847656249997
2.4363281249999997
2.3420654296875
2.2260498046875
2.21396484375
2.16884765625
2.9978759765625
3.0043212890624997
3.001904296875
3.001904296875
2.9986816406249996
3.001904296875
2.354150390625
1.893310546875
1.287451171875
0.825
0.539794921875
0.2618408203125
0.15146484375
0.38994140624999996
0.485009765625
0.4318359375
0.5470458984375
0.5865234375
0.6775634765624999
0.7718261718749999
0.9305419921875
0.02900390625
0.0298095703125
0.026586914062499998
0.0322265625
0.0314208984375
0.027392578124999997
0.684814453125
1.6008544921874999
2.0093261718749997
2.281640625
2.5048095703124997
2.5974609374999997
2.5966552734375
2.5313964843749996
2.5555664062499996
2.466943359375
2.25263671875
2.1648193359375
2.1205078125
2.0729736328125
1.9787109374999998
3.001904296875
3.0010986328125
3.003515625
3.0002929687499997
3.0027099609374996
2.9978759765625
2.5692626953124997
2.144677734375
1.482421875
0.9998291015624999
0.6952880859374999
0.5365722656249999
0.30937499999999996
0.3923583984375
0.31259765624999997
0.410888671875
0.5712158203125
0.655810546875
0.60263671875
0.630029296875
0.639697265625
0.02900390625
0.02900390625
0.027392578124999997
0.0298095703125
0.027392578124999997
0.02900390625
0.0990966796875
1.4397216796874999
2.1164794921875
2.5483154296875
2.7497314453125
2.8141845703125
2.9761230468749997
3.0010986328125
2.9438964843749997
3.0010986328125
3.0010986328125
3.0027099609374996
3.0010986328125
3.0043212890624997
3.0043212890624997
3.001904296875
3.0010986328125
3.0010986328125
3.0002929687499997
2.9898193359375
3.001904296875
2.9978759765625
3.005126953125
2.9994873046875
3.001904296875
3.001904296875
3.003515625
3.005126953125
3.003515625
2.9326171875
2.5515380859374996
2.3009765625
2.0302734375
1.69833984375
1.50498046875
1.3688232421875
0.5244873046874999
0.4842041015625
0.710595703125
0.8121093749999999
0.913623046875
1.0014404296875
1.0932861328124999
1.6483886718749998
1.4977294921875
1.219775390625
1.07958984375
0.990966796875
1.0030517578125
0.9788818359375
1.026416015625
1.0892578124999999
1.0046630859374999
1.042529296875
1.0449462890624999
1.09892578125
1.0836181640625
1.2866455078124999
1.590380859375
1.4115234374999999
1.3075927734375
1.2173583984375
1.1778808593749999
1.16015625
0.9353759765624999
0.9192626953124999
0.9418212890625
1.0642822265625
1.1351806640625
1.181103515625
1.2125244140625
1.2769775390625
1.26005859375
1.2076904296875
1.2777832031249998
1.33740234375
1.340625
1.33740234375
1.147265625
0.8209716796875
1.13115234375
1.2181640624999999
1.30517578125
1.3752685546874999
1.44052734375
1.7877685546875
1.74345703125
1.5509033203125
1.5090087890625
1.4791992187499998
1.4832275390624998
1.45341796875
1.4356933593749999
1.4461669921875
1.46953125
1.4268310546874998
1.4219970703125
1.477587890625
1.4397216796874999
1.4687255859375
1.8973388671875
1.6935058593749999
1.5678222656249998
1.51787109375
1.4679199218749999
1.3817138671875
1.2463623046874999
1.3092041015625
1.2544189453124999
1.3301513671874998
1.4034667968749999
1.3825195312499998
1.4115234374999999
1.4767822265625
1.538818359375
1.477587890625
1.4816162109375
1.4791992187499998
1.4332763671875
1.5009521484375
1.49853515625
1.0836181640625
1.3349853515624999
1.4356933593749999
1.3986328124999998
1.4252197265625
1.542041015625
1.651611328125
1.7724609375
1.6089111328124999
1.5686279296874999
1.5146484375
1.5428466796875
1.5444580078124999
1.496923828125
1.5396240234374998
1.4759765624999999
1.506591796875
1.4928955078125
1.4953124999999998
1.5218994140625
1.525927734375
1.8707519531249999
1.674169921875
1.546875
1.56298828125
1.50498046875
1.4622802734375
1.4381103515625
1.377685546875
1.3502929687499998
1.397021484375
1.41796875
1.4477783203124999
1.4526123046875
1.5331787109375
1.4864501953125
1.5251220703125
1.5380126953125
1.509814453125
1.4703369140625
1.5436523437499998
1.5476806640624998
1.1464599609375
1.3559326171875
1.4501953125
1.432470703125
1.46953125
1.5476806640624998
1.6701416015625
1.80791015625
1.6854492187499999
1.5919921874999998
1.56943359375
1.56943359375
1.5476806640624998
1.5194824218749998
1.5194824218749998
1.474365234375
1.5082031249999999
1.52109375
1.4872558593749998
1.4767822265625
1.4840332031249999
1.732177734375
1.735400390625
1.606494140625
1.5799072265624998
1.5283447265624999
1.4461669921875
1.41796875
1.38896484375
1.405078125
1.4147460937499998
1.4429443359374998
1.480810546875
1.4598632812499999
1.5323730468749999
1.506591796875
1.5033691406249998
1.496923828125
1.4920898437499999
1.5033691406249998
1.53076171875
1.53720703125
1.300341796875
1.3929931640625
1.5009521484375
1.5114257812499998
1.4961181640624999
1.52109375
1.5702392578125
1.767626953125
1.6459716796875
1.635498046875
1.546875
1.56298828125
1.5565429687499999
1.513037109375
1.490478515625
1.529150390625
1.5235107421874998
1.5299560546875
1.525927734375
1.5299560546875
1.4993408203124998
1.72734375
1.6967285156249998
1.5726562499999999
1.546875
1.5364013671874999
1.4791992187499998
1.4493896484375
1.4115234374999999
1.3954101562499999
1.432470703125
1.4397216796874999
1.4711425781249998
1.4896728515625
1.4953124999999998
1.50498046875
1.5218994140625
1.5275390624999998
1.5380126953125
1.5162597656249999
1.5347900390625
1.5355957031249998
1.2866455078124999
1.31162109375
1.4735595703125
1.4711425781249998
1.4945068359375
1.5283447265624999
1.5791015625
1.7531249999999998
1.6773925781249999
1.58232421875
1.5565429687499999
1.55009765625
1.5637939453124998
1.5364013671874999
1.5057861328125
1.4993408203124998
1.5114257812499998
1.5154541015624998
1.5323730468749999
1.5194824218749998
1.509814453125
1.5186767578125
1.703173828125
1.5662109375
1.5573486328125
1.5331787109375
1.4961181640624999
1.445361328125
1.3623779296874998
1.426025390625
1.4332763671875
1.4518066406249999
1.49853515625
1.5090087890625
1.4630859374999998
1.5323730468749999
1.47275390625
1.5202880859374999
1.509814453125
1.5009521484375
1.546875
1.525927734375
1.340625
1.29228515625
1.4751708984374998
1.480810546875
1.5025634765625
1.5299560546875
1.5734619140625
1.7362060546875
1.6435546875
1.63388671875
1.5637939453124998
1.5323730468749999
1.5186767578125
1.5154541015624998
1.525927734375
1.5323730468749999
1.5670166015625
1.5122314453124999
1.490478515625
1.52109375
1.4880615234374999
1.5106201171875
1.7958251953125
1.5839355468749998
1.5565429687499999
1.5565429687499999
1.5283447265624999
1.4622802734375
1.3849365234375
1.400244140625
1.4622802734375
1.4590576171874998
1.4429443359374998
1.5001464843749999
1.5106201171875
1.4679199218749999
1.533984375
1.52109375
1.5162597656249999
1.53076171875
1.513037109375
1.482421875
1.4816162109375
1.32451171875
1.4800048828124999
1.46953125
1.5138427734375
1.525927734375
1.5686279296874999
1.6935058593749999
1.67578125
1.5960205078124998
1.558154296875
1.5573486328125
1.5323730468749999
1.5517089843749998
1.513037109375
1.5106201171875
1.5355957031249998
1.5315673828124998
1.5331787109375
1.525927734375
1.5122314453124999
1.5267333984375
1.7507080078125
1.5911865234375
1.5686279296874999
1.546875
1.5380126953125
1.47275390625
1.3897705078125
1.3792968749999999
1.4187744140624998
1.4687255859375
1.480810546875
1.5025634765625
1.4896728515625
1.522705078125
1.522705078125
1.5299560546875
1.5106201171875
1.5122314453124999
1.5009521484375
1.5106201171875
1.5082031249999999
1.24072265625
1.4711425781249998
1.4848388671875
1.4800048828124999
1.48564453125
1.5621826171875
1.667724609375
1.7080078125
1.59521484375
1.5565429687499999
1.5412353515625
1.5484863281249999
1.5637939453124998
1.5460693359375
1.52109375
1.5009521484375
1.5202880859374999
1.5202880859374999
1.5106201171875
1.5541259765625
1.5162597656249999
1.7345947265625
1.587158203125
1.5791015625
1.5678222656249998
1.493701171875
1.4888671875
1.3954101562499999
1.38896484375
1.4268310546874998
1.4622802734375
1.456640625
1.5267333984375
1.5017578125
1.525927734375
1.529150390625
1.477587890625
1.4928955078125
1.5122314453124999
1.5251220703125
1.5162597656249999
1.5202880859374999
1.26005859375
1.4389160156249998
1.4630859374999998
1.4711425781249998
1.496923828125
1.5766845703124999
1.6701416015625
1.7007568359374998
1.6371093749999999
1.5597656249999998
1.5436523437499998
1.5484863281249999
1.5557373046874998
1.5154541015624998
1.5090087890625
1.522705078125
1.5251220703125
1.51787109375
1.5154541015624998
1.542041015625
1.5202880859374999
1.7579589843749999
1.6556396484375
1.5847412109374999
1.5678222656249998
1.558154296875
1.464697265625
1.397021484375
1.3857421875
1.40185546875
1.4348876953124998
1.445361328125
1.4928955078125
1.4783935546875
1.53720703125
1.5138427734375
1.50498046875
1.5347900390625
1.5057861328125
1.5073974609374998
1.5283447265624999
1.52109375
1.2640869140625
1.4115234374999999
1.4920898437499999
1.46630859375
1.5146484375
1.5678222656249998
1.5919921874999998
1.7660156249999999
1.625830078125
1.5589599609375
1.5702392578125
1.5444580078124999
1.5557373046874998
1.55009765625
1.5243164062499999
1.533984375
1.522705078125
1.4928955078125
1.52109375
1.5235107421874998
1.5243164062499999
1.73056640625
1.6435546875
1.5621826171875
1.5517089843749998
1.5275390624999998
1.4719482421874999
1.4671142578124998
1.4364990234375
1.40830078125
1.4332763671875
1.4719482421874999
1.4872558593749998
1.4848388671875
1.5106201171875
1.5122314453124999
1.509814453125
1.5364013671874999
1.4945068359375
1.5202880859374999
1.525927734375
1.5009521484375
1.2818115234374998
1.36962890625
1.4912841796874998
1.490478515625
1.5041748046874999
1.5436523437499998
1.593603515625
1.7474853515625
1.6475830078125
1.6048828124999999
1.5573486328125
1.5347900390625
1.5235107421874998
1.5154541015624998
1.5170654296875
1.554931640625
1.5041748046874999
1.5267333984375
1.5106201171875
1.522705078125
1.5033691406249998
1.5927978515624999
1.6636962890625
1.5670166015625
1.55009765625
1.554931640625
1.5057861328125
1.4477783203124999
1.4026611328124998
1.429248046875
1.4413330078125
1.4622802734375
1.4606689453125
1.493701171875
1.4993408203124998
1.4848388671875
1.5235107421874998
1.5114257812499998
1.4872558593749998
1.51787109375
1.5057861328125
1.5251220703125
1.3083984375
1.3664062499999998
1.490478515625
1.4791992187499998
1.4880615234374999
1.55009765625
1.5758789062499998
1.7531249999999998
1.6169677734374999
1.6072998046875
1.5533203125
1.5509033203125
1.5428466796875
1.5428466796875
1.529150390625
1.5557373046874998
1.5267333984375
1.53720703125
1.506591796875
1.5162597656249999
1.509814453125
1.59521484375
1.7104248046875
1.5750732421875
1.5799072265624998
1.5323730468749999
1.538818359375
1.4630859374999998
1.4316650390624999
1.4155517578124999
1.4107177734374998
1.4493896484375
1.4542236328125
1.4840332031249999
1.52109375
1.522705078125
1.5025634765625
1.5299560546875
1.5009521484375
1.4953124999999998
1.55009765625
1.5017578125
1.40830078125
1.3092041015625
1.474365234375
1.4816162109375
1.493701171875
1.5589599609375
1.5517089843749998
1.7466796875
1.6564453124999998
1.5726562499999999
1.561376953125
1.55009765625
1.5364013671874999
1.53720703125
1.5057861328125
1.5436523437499998
1.5412353515625
1.5138427734375
1.4888671875
1.5428466796875
1.5323730468749999
1.509814453125
1.7394287109375
1.5766845703124999
1.5726562499999999
1.53720703125
1.4872558593749998
1.4864501953125
1.41796875
1.3986328124999998
1.4010498046875
1.4445556640625
1.5017578125
1.4896728515625
1.4928955078125
1.5235107421874998
1.525927734375
1.5170654296875
1.477587890625
1.4977294921875
1.542041015625
1.5267333984375
1.4429443359374998
1.2955078125
1.477587890625
1.4630859374999998
1.4945068359375
1.522705078125
1.5766845703124999
1.7490966796874998
1.670947265625
1.5911865234375
1.5565429687499999
1.5605712890624999
1.538818359375
1.52109375
1.5323730468749999
1.5243164062499999
1.5347900390625
1.51787109375
1.4832275390624998
1.5315673828124998
1.5090087890625
1.5106201171875
1.77568359375
1.5831298828125
1.5686279296874999
1.587158203125
1.4912841796874998
1.480810546875
1.4034667968749999
1.4107177734374998
1.41796875
1.442138671875
1.4461669921875
1.4767822265625
1.5154541015624998
1.5146484375
1.5114257812499998
1.533984375
1.522705078125
1.53720703125
1.5243164062499999
1.5082031249999999
1.5186767578125
1.2995361328125
1.4373046875
1.4711425781249998
1.4896728515625
1.53720703125
1.5637939453124998
1.6508056640625
1.6854492187499999
1.590380859375
1.5621826171875
1.5782958984375
1.49853515625
1.5364013671874999
1.5404296874999999
1.513037109375
1.4953124999999998
1.5299560546875
1.5106201171875
1.5218994140625
1.5275390624999998
1.5186767578125
1.7813232421874998
1.6250244140624999
1.5509033203125
1.5605712890624999
1.5218994140625
1.4848388671875
1.4091064453125
1.4373046875
1.4171630859375
1.4550292968749998
1.464697265625
1.4848388671875
1.4630859374999998
1.5106201171875
1.5315673828124998
1.5114257812499998
1.5331787109375
1.4961181640624999
1.529150390625
1.5355957031249998
1.5162597656249999
1.2342773437499999
1.4413330078125
1.477587890625
1.4783935546875
1.5073974609374998
1.5678222656249998
1.6177734375
1.7370117187499998
1.5847412109374999
1.542041015625
1.5782958984375
1.5484863281249999
1.546875
1.5154541015624998
1.5057861328125
1.5162597656249999
1.53076171875
1.509814453125
1.5428466796875
1.5138427734375
1.5299560546875
1.783740234375
1.6282470703124998
1.561376953125
1.546875
1.55009765625
1.506591796875
1.4461669921875
1.4058837890625
1.3946044921874998
1.46953125
1.4501953125
1.4896728515625
1.4501953125
1.5146484375
1.4848388671875
1.5082031249999999
1.5347900390625
1.533984375
1.48564453125
1.53076171875
1.5017578125
1.2350830078125
1.4147460937499998
1.4816162109375
1.4912841796874998
1.509814453125
1.5589599609375
1.6209960937499999
1.7370117187499998
1.6298583984375
1.55009765625
1.55009765625
1.5380126953125
1.542041015625
1.5412353515625
1.5275390624999998
1.5331787109375
1.5404296874999999
1.50498046875
1.4896728515625
1.5428466796875
1.533984375
1.6798095703125
1.667724609375
1.561376953125
1.5750732421875
1.5428466796875
1.482421875
1.4574462890625
1.4252197265625
1.4091064453125
1.4461669921875
1.477587890625
1.4920898437499999
1.496923828125
1.5122314453124999
1.5251220703125
1.4977294921875
1.5114257812499998
1.4977294921875
1.529150390625
1.5090087890625
1.5323730468749999
1.34384765625
1.4219970703125
1.4767822265625
1.4622802734375
1.522705078125
1.5573486328125
1.5807128906249999
1.7313720703125
1.5992431640625
1.5879638671874998
1.5766845703124999
1.5525146484374999
1.554931640625
1.5033691406249998
1.5355957031249998
1.5017578125
1.5533203125
1.5114257812499998
1.513037109375
1.51787109375
1.5412353515625
1.6701416015625
1.6951171875
1.5726562499999999
1.5436523437499998
1.525927734375
1.5154541015624998
1.4461669921875
1.4042724609375
1.38896484375
1.4268310546874998
1.4622802734375
1.4832275390624998
1.4840332031249999
1.5347900390625
1.5380126953125
1.4864501953125
1.53076171875
1.51787109375
1.5138427734375
1.529150390625
1.533984375
1.3559326171875
1.3422363281249998
1.442138671875
1.4373046875
1.490478515625
1.5541259765625
1.5605712890624999
1.7531249999999998
1.6967285156249998
1.5766845703124999
1.5621826171875
1.5186767578125
1.5476806640624998
1.554931640625
1.51787109375
1.5267333984375
1.52109375
1.5267333984375
1.5033691406249998
1.5323730468749999
1.538818359375
1.506591796875
1.69189453125
1.5533203125
1.5678222656249998
1.571044921875
1.496923828125
1.4719482421874999
1.400244140625
1.4066894531249998
1.4115234374999999
1.4783935546875
1.4735595703125
1.474365234375
1.4912841796874998
1.5355957031249998
1.529150390625
1.5073974609374998
1.538818359375
1.5146484375
1.509814453125
1.5267333984375
1.38896484375
1.3543212890624998
1.4840332031249999
1.4550292968749998
1.4598632812499999
1.4977294921875
1.5283447265624999
1.7499023437499999
1.67578125
1.6218017578125
1.5597656249999998
1.53720703125
1.52109375
1.5404296874999999
1.5033691406249998
1.5138427734375
1.5323730468749999
1.538818359375
1.509814453125
1.525927734375
1.4953124999999998
1.482421875
1.7724609375
1.571044921875
1.5621826171875
1.5525146484374999
1.525927734375
1.4598632812499999
1.3825195312499998
1.4115234374999999
1.442138671875
1.45341796875
1.4655029296875
1.5017578125
1.525927734375
1.5090087890625
1.50498046875
1.5251220703125
1.542041015625
1.5218994140625
1.4791992187499998
1.51787109375
1.5073974609374998
1.3011474609375
1.4606689453125
1.4574462890625
1.5009521484375
1.5517089843749998
1.577490234375
1.6636962890625
1.667724609375
1.6105224609375
1.5517089843749998
1.5525146484374999
1.5364013671874999
1.5492919921875
1.5331787109375
1.52109375
1.50498046875
1.5275390624999998
1.5299560546875
1.5396240234374998
1.5331787109375
1.5146484375
1.7458740234374999
1.60166015625
1.5662109375
1.533984375
1.51787109375
1.4791992187499998
1.4026611328124998
1.3954101562499999
1.4010498046875
1.4195800781249999
1.4671142578124998
1.4751708984374998
1.5025634765625
1.53720703125
1.5412353515625
1.5299560546875
1.522705078125
1.509814453125
1.5122314453124999
1.5315673828124998
1.5243164062499999
1.2503906249999999
1.3994384765624999
1.461474609375
1.5057861328125
1.5251220703125
1.5484863281249999
1.622607421875
1.6854492187499999
1.6209960937499999
1.571044921875
1.53720703125
1.5428466796875
1.5557373046874998
1.5355957031249998
1.5323730468749999
1.5243164062499999
1.525927734375
1.5186767578125
1.5138427734375
1.55009765625
1.5396240234374998
1.7337890624999999
1.611328125
1.5992431640625
1.5218994140625
1.51787109375
1.5033691406249998
1.4373046875
1.4276367187499999
1.3905761718749998
1.4518066406249999
1.464697265625
1.46630859375
1.4888671875
1.5267333984375
1.5202880859374999
1.5114257812499998
1.5146484375
1.5194824218749998
1.5154541015624998
1.5114257812499998
1.53076171875
1.2536132812499998
1.4074951171874999
1.474365234375
1.4783935546875
1.522705078125
1.5686279296874999
1.6298583984375
1.7523193359375
1.6298583984375
1.5847412109374999
1.5702392578125
1.5791015625
1.542041015625
1.5235107421874998
1.5122314453124999
1.5355957031249998
1.506591796875
1.5186767578125
1.525927734375
1.5331787109375
1.53076171875
1.7362060546875
1.6411376953124999
1.5573486328125
1.56943359375
1.538818359375
1.4864501953125
1.4236083984374999
1.405078125
1.429248046875
1.4219970703125
1.456640625
1.4961181640624999
1.4791992187499998
1.49853515625
1.4977294921875
1.5122314453124999
1.5323730468749999
1.5162597656249999
1.53720703125
1.50498046875
1.5186767578125
1.2503906249999999
1.4356933593749999
1.4896728515625
1.464697265625
1.5267333984375
1.5541259765625
1.593603515625
1.7450683593749998
1.635498046875
1.5726562499999999
1.5355957031249998
1.55009765625
1.5436523437499998
1.5380126953125
1.5170654296875
1.5162597656249999
1.525927734375
1.5364013671874999
1.5194824218749998
1.5146484375
1.5073974609374998
1.7466796875
1.674169921875
1.561376953125
1.5460693359375
1.5678222656249998
1.5009521484375
1.4501953125
1.3768798828125
1.38896484375
1.4437499999999999
1.480810546875
1.4920898437499999
1.4848388671875
1.4896728515625
1.5331787109375
1.4961181640624999
1.5138427734375
1.533984375
1.5299560546875
1.5267333984375
1.5138427734375
1.2890625
1.3390136718749999
1.5073974609374998
1.46630859375
1.464697265625
1.5283447265624999
1.6089111328124999
1.7499023437499999
1.667724609375
1.6056884765625
1.5887695312499999
1.53720703125
1.53076171875
1.52109375
1.5509033203125
1.5315673828124998
1.5396240234374998
1.5170654296875
1.5347900390625
1.5299560546875
1.513037109375
1.56943359375
1.6653076171874999
1.5984375
1.5670166015625
1.5283447265624999
1.4848388671875
1.4703369140625
1.3752685546874999
1.3801025390625
1.4058837890625
1.4518066406249999
1.4912841796874998
1.4816162109375
1.5218994140625
1.5251220703125
1.5090087890625
1.4993408203124998
1.490478515625
1.5162597656249999
1.5090087890625
1.5412353515625
1.2858398437499998
1.3285400390625
1.464697265625
1.4816162109375
1.4840332031249999
1.5565429687499999
1.554931640625
1.8054931640624998
1.6943115234375
1.6129394531249999
1.5654052734375
1.545263671875
1.529150390625
1.525927734375
1.5251220703125
1.533984375
1.5275390624999998
1.5122314453124999
1.5267333984375
1.5517089843749998
1.5267333984375
1.5791015625
1.7652099609374998
1.6072998046875
1.5702392578125
1.545263671875
1.509814453125
1.4461669921875
1.3897705078125
1.4034667968749999
1.40830078125
1.4437499999999999
1.4630859374999998
1.48564453125
1.5033691406249998
1.5146484375
1.52109375
1.5162597656249999
1.5323730468749999
1.5275390624999998
1.5082031249999999
1.5283447265624999
1.4606689453125
1.2238037109375
1.4928955078125
1.4638916015624999
1.4945068359375
1.5267333984375
1.585546875
1.7539306640624999
1.6975341796874999
1.577490234375
1.5718505859374998
1.561376953125
1.5573486328125
1.558154296875
1.5186767578125
1.525927734375
1.5267333984375
1.5412353515625
1.51787109375
1.53076171875
1.5275390624999998
1.5355957031249998
1.764404296875
1.5839355468749998
1.5734619140625
1.53076171875
1.5275390624999998
1.4445556640625
1.37607421875
1.3639892578125
1.4115234374999999
1.4364990234375
1.448583984375
1.46953125
1.4832275390624998
1.52109375
1.5009521484375
1.5017578125
1.5243164062499999
1.5106201171875
1.4961181640624999
1.5412353515625
1.4896728515625
1.21494140625
1.429248046875
1.4397216796874999
1.456640625
1.52109375
1.6056884765625
1.7345947265625
1.7531249999999998
1.6556396484375
1.5678222656249998
1.5791015625
1.5428466796875
1.5396240234374998
1.5186767578125
1.5202880859374999
1.5001464843749999
1.5170654296875
1.490478515625
1.525927734375
1.5194824218749998
1.5283447265624999
1.8892822265625
1.6209960937499999
1.5782958984375
1.5807128906249999
1.533984375
1.4759765624999999
1.3470703124999999
1.351904296875
1.3946044921874998
1.4115234374999999
1.4606689453125
1.4550292968749998
1.4864501953125
1.5162597656249999
1.5138427734375
1.525927734375
1.5114257812499998
1.5106201171875
1.5380126953125
1.5380126953125
1.4920898437499999
1.1529052734375
1.3986328124999998
1.4671142578124998
1.46953125
1.5202880859374999
1.6040771484374998
1.670947265625
1.7781005859374999
1.6371093749999999
1.5960205078124998
1.5525146484374999
1.5589599609375
1.5444580078124999
1.49853515625
1.5057861328125
1.5025634765625
1.56298828125
1.529150390625
1.5138427734375
1.533984375
1.5186767578125
1.8957275390625
1.6604736328124998
1.585546875
1.5404296874999999
1.5033691406249998
1.4888671875
1.3583496093749998
1.3494873046875
1.3583496093749998
1.4364990234375
1.4550292968749998
1.4767822265625
1.4832275390624998
1.4864501953125
1.522705078125
1.525927734375
1.506591796875
1.53720703125
1.5355957031249998
1.5428466796875
1.5283447265624999
1.1110107421875
1.40185546875
1.4308593749999998
1.4510009765624998
1.4961181640624999
1.5839355468749998
1.6822265625
