1.5218994140625
1.4896728515625
1.3317626953125
1.264892578125
1.0771728515624999
1.1045654296875
1.3092041015625
1.4268310546874998
1.464697265625
1.4840332031249999
1.4791992187499998
1.5541259765625
1.5436523437499998
1.5315673828124998
1.5404296874999999
1.53076171875
1.5428466796875
1.509814453125
0.9337646484375
0.7798828124999999
1.6798095703125
1.5033691406249998
1.5275390624999998
1.674169921875
1.7797119140625
2.6095458984374997
1.8336914062499998
1.6024658203125
1.522705078125
1.49853515625
1.4961181640624999
1.50498046875
1.4945068359375
1.496923828125
1.4848388671875
1.4880615234374999
1.5009521484375
1.4896728515625
1.4832275390624998
1.4864501953125
2.7247558593749996
1.4356933593749999
1.4872558593749998
1.529150390625
1.3341796874999998
1.2737548828124998
0.881396484375
1.1093994140624999
1.3043701171875
1.4300537109375
1.4356933593749999
1.4832275390624998
1.4832275390624998
1.5637939453124998
1.55009765625
1.5565429687499999
1.546875
1.5299560546875
1.5235107421874998
1.52109375
1.52109375
0.22316894531249998
1.6806152343749998
1.50498046875
1.4961181640624999
1.6765869140624998
1.7176757812499999
2.582958984375
2.0455810546874997
1.5831298828125
1.509814453125
1.4993408203124998
1.4977294921875
1.5412353515625
1.4832275390624998
1.493701171875
1.4783935546875
1.48564453125
1.4945068359375
1.493701171875
1.4872558593749998
1.4880615234374999
2.7626220703124997
1.5235107421874998
1.4840332031249999
1.5444580078124999
1.4316650390624999
1.3229003906249999
0.9305419921875
1.09248046875
1.2270263671875
1.393798828125
1.4268310546874998
1.4767822265625
1.4348876953124998
1.5557373046874998
1.5154541015624998
1.5525146484374999
1.5323730468749999
1.55009765625
1.5283447265624999
1.5412353515625
1.5275390624999998
0.22478027343749998
1.5678222656249998
1.6177734375
1.5114257812499998
1.6129394531249999
1.7426513671875
2.135009765625
2.0214111328124997
1.622607421875
1.5202880859374999
1.5073974609374998
1.5017578125
1.5218994140625
1.4864501953125
1.4848388671875
1.4920898437499999
1.480810546875
1.4920898437499999
1.4920898437499999
1.5009521484375
1.4880615234374999
2.3912109375
1.920703125
1.4550292968749998
1.53720703125
1.4767822265625
1.2938964843749998
1.039306640625
1.1239013671875
1.155322265625
1.4026611328124998
1.44052734375
1.4477783203124999
1.4598632812499999
1.5557373046874998
1.5428466796875
1.5323730468749999
1.5476806640624998
1.5315673828124998
1.5380126953125
1.53720703125
1.5331787109375
0.4970947265625
1.0731445312499999
1.6105224609375
1.4912841796874998
1.5484863281249999
1.716064453125
1.8216064453124998
2.5652343749999997
1.7595703125
1.53720703125
1.506591796875
1.4928955078125
1.5170654296875
1.46953125
1.4920898437499999
1.4896728515625
1.4783935546875
1.5017578125
1.4953124999999998
1.4880615234374999
1.4816162109375
1.5186767578125
2.0044921875
1.4252197265625
1.5090087890625
1.52109375
1.2890625
1.2479736328125
0.97646484375
1.15693359375
1.332568359375
1.4228027343749998
1.4542236328125
1.461474609375
1.5243164062499999
1.5525146484374999
1.53720703125
1.5380126953125
1.538818359375
1.529150390625
1.53076171875
1.522705078125
1.4759765624999999
0.958740234375
1.687060546875
1.5218994140625
1.5001464843749999
1.7055908203124999
1.7490966796874998
2.4290771484375
1.796630859375
1.5718505859374998
1.5186767578125
1.4912841796874998
1.493701171875
1.5243164062499999
1.48564453125
1.482421875
1.4864501953125
1.4912841796874998
1.5041748046874999
1.4880615234374999
1.4848388671875
1.4912841796874998
2.6143798828125
1.4526123046875
1.4912841796874998
1.5364013671874999
1.397021484375
1.3510986328124999
1.0046630859374999
1.0892578124999999
1.2576416015624998
1.4010498046875
1.456640625
1.490478515625
1.456640625
1.554931640625
1.5355957031249998
1.538818359375
1.5323730468749999
1.5323730468749999
1.5347900390625
1.5355957031249998
1.51787109375
0.36979980468749996
1.6209960937499999
1.5525146484374999
1.5243164062499999
1.6427490234375
1.7096191406249999
2.4927246093749997
2.0093261718749997
1.6185791015625
1.513037109375
1.506591796875
1.4945068359375
1.5283447265624999
1.490478515625
1.4912841796874998
1.48564453125
1.4912841796874998
1.4920898437499999
1.4872558593749998
1.490478515625
1.5025634765625
2.6433837890625
1.7088134765624998
1.4896728515625
1.5251220703125
1.4477783203124999
1.3430419921874999
0.9168457031249999
1.1400146484375
1.181103515625
1.4139404296875
1.4469726562499998
1.4928955078125
1.4413330078125
1.5678222656249998
1.5565429687499999
1.538818359375
1.529150390625
1.5299560546875
1.5331787109375
1.5347900390625
1.5170654296875
0.27231445312499997
1.329345703125
1.6008544921874999
1.4888671875
1.6040771484374998
1.706396484375
1.9521240234375
2.4355224609375
1.6153564453125
1.5138427734375
1.509814453125
1.4993408203124998
1.5243164062499999
1.4711425781249998
1.4896728515625
1.4864501953125
1.4888671875
1.49853515625
1.4977294921875
1.4961181640624999
1.490478515625
1.7700439453124999
1.79501953125
1.397021484375
1.5082031249999999
1.4590576171874998
1.27939453125
1.22138671875
1.0820068359375
1.1754638671875
1.3672119140624999
1.4364990234375
1.4687255859375
1.458251953125
1.5299560546875
1.558154296875
1.5444580078124999
1.5355957031249998
1.5460693359375
1.5396240234374998
1.5283447265624999
1.5243164062499999
1.1964111328125
1.2141357421874999
1.6669189453125
1.5194824218749998
1.5678222656249998
1.7313720703125
1.7595703125
2.486279296875
1.7257324218749999
1.5299560546875
1.5154541015624998
1.490478515625
1.4888671875
1.4993408203124998
1.4848388671875
1.4864501953125
1.4928955078125
1.5073974609374998
1.496923828125
1.4961181640624999
1.48564453125
1.6451660156249999
2.370263671875
1.4244140625
1.5017578125
1.52109375
1.364794921875
1.229443359375
0.9861328125
1.1271240234375
1.30517578125
1.4381103515625
1.4759765624999999
1.4711425781249998
1.480810546875
1.5492919921875
1.5436523437499998
1.5323730468749999
1.53720703125
1.5267333984375
1.538818359375
1.522705078125
1.3148437499999999
0.594580078125
1.6564453124999998
1.50498046875
1.5025634765625
1.6693359374999999
1.751513671875
2.4645263671874997
1.9472900390624999
1.5976318359375
1.5146484375
1.4953124999999998
1.5025634765625
1.506591796875
1.4783935546875
1.4880615234374999
1.4888671875
1.490478515625
1.5009521484375
1.4864501953125
1.4864501953125
1.4872558593749998
2.721533203125
1.4389160156249998
1.4912841796874998
1.5331787109375
1.377685546875
1.3100097656249998
0.894287109375
1.1367919921875
1.2947021484374999
1.4195800781249999
1.461474609375
1.4864501953125
1.4655029296875
1.5702392578125
1.5412353515625
1.5347900390625
1.5364013671874999
1.542041015625
1.533984375
1.53076171875
1.5162597656249999
0.23928222656249998
1.65966796875
1.5678222656249998
1.513037109375
1.6282470703124998
1.6846435546874998
2.051220703125
2.3138671875
1.6008544921874999
1.525927734375
1.506591796875
1.506591796875
1.53076171875
1.482421875
1.493701171875
1.490478515625
1.48564453125
1.4945068359375
1.4896728515625
1.4896728515625
1.4920898437499999
2.6852783203125
1.61455078125
1.429248046875
1.5460693359375
1.4477783203124999
1.30517578125
1.1674072265625
1.15048828125
1.2189697265625
1.38896484375
1.46953125
1.4872558593749998
1.4332763671875
1.5460693359375
1.55009765625
1.5525146484374999
1.5404296874999999
1.5267333984375
1.53076171875
1.529150390625
1.5114257812499998
0.265869140625
1.4252197265625
1.6298583984375
1.49853515625
1.6048828124999999
1.7531249999999998
1.7877685546875
2.3694580078125
1.6717529296875
1.525927734375
1.5041748046874999
1.4953124999999998
1.49853515625
1.4945068359375
1.493701171875
1.4848388671875
1.4920898437499999
1.4961181640624999
1.490478515625
1.4872558593749998
1.4872558593749998
1.980322265625
2.109228515625
1.4348876953124998
1.5154541015624998
1.4759765624999999
1.3390136718749999
1.2109130859375
1.0755615234375
1.1496826171874999
1.3027587890624999
1.43408203125
1.4735595703125
1.4751708984374998
1.5412353515625
1.5509033203125
1.5380126953125
1.5404296874999999
1.53720703125
1.5444580078124999
1.5364013671874999
1.5202880859374999
0.9788818359375
0.8362792968749999
1.6403320312499998
1.5162597656249999
1.533984375
1.6733642578124999
1.77890625
2.486279296875
1.8602783203125
1.5364013671874999
1.522705078125
1.5001464843749999
1.5057861328125
1.4993408203124998
1.4872558593749998
1.4993408203124998
1.4872558593749998
1.490478515625
1.4977294921875
1.496923828125
1.4896728515625
1.4888671875
2.2099365234375
1.40185546875
1.4759765624999999
1.538818359375
1.340625
1.2826171874999999
0.9063720703125
1.1537109374999999
1.3180664062499998
1.4437499999999999
1.4703369140625
1.4961181640624999
1.4832275390624998
1.5686279296874999
1.5380126953125
1.529150390625
1.5331787109375
1.53720703125
1.538818359375
1.5283447265624999
1.5186767578125
0.75732421875
1.6636962890625
1.533984375
1.5162597656249999
1.6604736328124998
1.6814208984374999
2.2026855468749997
1.8747802734374999
1.577490234375
1.5202880859374999
1.4977294921875
1.4993408203124998
1.5267333984375
1.4832275390624998
1.493701171875
1.4832275390624998
1.48564453125
1.4864501953125
1.4961181640624999
1.4872558593749998
1.509814453125
2.666748046875
1.5138427734375
1.4598632812499999
1.5315673828124998
1.442138671875
1.332568359375
0.9168457031249999
1.1496826171874999
1.2592529296875
1.4139404296875
1.461474609375
1.4816162109375
1.4437499999999999
1.5621826171875
1.5404296874999999
1.5412353515625
1.5484863281249999
1.53076171875
1.53720703125
1.533984375
1.52109375
0.28681640625
1.5323730468749999
1.6121337890624998
1.522705078125
1.6048828124999999
1.7507080078125
2.0552490234375
2.2429687499999997
1.64677734375
1.5114257812499998
1.48564453125
1.5001464843749999
1.5106201171875
1.4791992187499998
1.4880615234374999
1.5017578125
1.5025634765625
1.4928955078125
1.4896728515625
1.4864501953125
1.4928955078125
2.3098388671875
1.8820312499999998
1.4348876953124998
1.5275390624999998
1.4574462890625
1.3301513671874998
1.1295410156249999
1.11826171875
1.1835205078125
1.4066894531249998
1.4493896484375
1.490478515625
1.4501953125
1.5517089843749998
1.55009765625
1.5428466796875
1.5557373046874998
1.5364013671874999
1.53076171875
1.5323730468749999
1.522705078125
0.620361328125
1.094091796875
1.6201904296874998
1.5186767578125
1.5573486328125
1.740234375
1.8103271484374999
2.4806396484374997
1.6645019531249998
1.525927734375
1.5194824218749998
1.4920898437499999
1.5170654296875
1.47275390625
1.4977294921875
1.477587890625
1.4816162109375
1.4993408203124998
1.490478515625
1.4864501953125
1.48564453125
1.5315673828124998
1.9730712890625
1.40830078125
1.4840332031249999
1.4550292968749998
1.3148437499999999
1.2689208984375
1.0868408203125
1.1754638671875
1.3543212890624998
1.448583984375
1.4735595703125
1.4751708984374998
1.5267333984375
1.5565429687499999
1.533984375
1.5396240234374998
1.5404296874999999
1.5315673828124998
1.5315673828124998
1.529150390625
0.7710205078125
0.9893554687499999
1.6886718749999998
1.529150390625
1.545263671875
1.6967285156249998
1.7257324218749999
2.489501953125
1.786962890625
1.5670166015625
1.506591796875
1.5041748046874999
1.5122314453124999
1.5106201171875
1.4896728515625
1.4848388671875
1.482421875
1.4945068359375
1.493701171875
1.4880615234374999
1.5001464843749999
1.496923828125
2.5313964843749996
1.4300537109375
1.4759765624999999
1.5138427734375
1.40830078125
1.27939453125
1.0803955078125
1.11181640625
1.2906738281249999
1.445361328125
1.4622802734375
1.4864501953125
1.4501953125
1.5597656249999998
1.5428466796875
1.5404296874999999
1.5299560546875
1.533984375
1.53720703125
1.5243164062499999
1.5162597656249999
0.420556640625
1.6443603515624998
1.5218994140625
1.52109375
1.609716796875
1.7128417968749998
2.4371337890625
1.972265625
1.5887695312499999
1.5090087890625
1.5001464843749999
1.50498046875
1.5194824218749998
1.4840332031249999
1.4920898437499999
1.4928955078125
1.493701171875
1.482421875
1.4945068359375
1.4896728515625
1.4888671875
2.5547607421875
1.4550292968749998
1.477587890625
1.5186767578125
1.4308593749999998
1.34384765625
0.9418212890625
1.1899658203124999
1.2689208984375
1.429248046875
1.4542236328125
1.4840332031249999
1.4477783203124999
1.5750732421875
1.5525146484374999
1.5380126953125
1.5347900390625
1.529150390625
1.5347900390625
1.5331787109375
1.5275390624999998
0.372216796875
1.6072998046875
1.6000488281249998
1.5235107421874998
1.6089111328124999
1.706396484375
1.8699462890624998
2.3879882812499997
1.606494140625
1.5251220703125
1.49853515625
1.4848388671875
1.5162597656249999
1.47275390625
1.4848388671875
1.4872558593749998
1.48564453125
1.4961181640624999
1.50498046875
1.5009521484375
1.490478515625
2.466943359375
1.75634765625
1.38896484375
1.522705078125
1.4574462890625
1.3100097656249998
1.229443359375
1.1706298828125
1.197216796875
1.3857421875
1.36962890625
1.4880615234374999
1.4622802734375
1.5412353515625
1.5412353515625
1.545263671875
1.5484863281249999
1.5202880859374999
1.5323730468749999
1.5364013671874999
1.5267333984375
0.49467773437499996
1.2399169921875
1.6620849609375
1.50498046875
1.554931640625
1.72734375
1.751513671875
2.43955078125
1.7265380859375
1.5412353515625
1.4993408203124998
1.4840332031249999
1.5001464843749999
1.4703369140625
1.4928955078125
1.48564453125
1.4848388671875
1.5001464843749999
1.493701171875
1.5001464843749999
1.4896728515625
1.6322753906249998
2.3203125
1.4010498046875
1.509814453125
1.5001464843749999
1.36962890625
1.264892578125
1.0530029296874999
1.1480712890625
1.2955078125
1.445361328125
1.4679199218749999
1.4864501953125
1.52109375
1.5565429687499999
1.5347900390625
1.5323730468749999
1.5331787109375
1.5299560546875
1.542041015625
1.522705078125
1.351904296875
0.636474609375
1.6701416015625
1.5243164062499999
1.5251220703125
1.6282470703124998
1.72734375
2.3879882812499997
1.93359375
1.5436523437499998
1.5090087890625
1.4961181640624999
1.5025634765625
1.50498046875
1.4896728515625
1.490478515625
1.482421875
1.4896728515625
1.4920898437499999
1.4872558593749998
1.4880615234374999
1.4888671875
2.392822265625
1.4074951171874999
1.4791992187499998
1.5170654296875
1.38896484375
1.316455078125
0.9418212890625
1.14404296875
1.3067871093749999
1.4469726562499998
1.464697265625
1.493701171875
1.4832275390624998
1.5791015625
1.53720703125
1.5492919921875
1.5605712890624999
1.5476806640624998
1.53720703125
1.5202880859374999
1.5082031249999999
0.5776611328125
1.6508056640625
1.5484863281249999
1.52109375
1.609716796875
1.6878662109375
2.0254394531249997
1.9634033203124999
1.5879638671874998
1.50498046875
1.4928955078125
1.4872558593749998
1.5355957031249998
1.4735595703125
1.4872558593749998
1.4872558593749998
1.480810546875
1.4920898437499999
1.4848388671875
1.4896728515625
1.4912841796874998
2.6127685546875
1.5919921874999998
1.4356933593749999
1.5154541015624998
1.4364990234375
1.3349853515624999
0.9482666015625
1.1625732421875
1.2310546875
1.4010498046875
1.4518066406249999
1.482421875
1.4655029296875
1.5670166015625
1.5565429687499999
1.533984375
1.5404296874999999
1.5267333984375
1.5235107421874998
1.5194824218749998
1.5186767578125
0.34965820312499996
1.416357421875
1.6290527343749999
1.5090087890625
1.609716796875
1.7571533203124998
1.9432617187499999
2.3227294921875
1.6459716796875
1.5364013671874999
1.506591796875
1.4832275390624998
1.4791992187499998
1.4550292968749998
1.49853515625
1.4832275390624998
1.49853515625
1.4920898437499999
1.4912841796874998
1.4888671875
1.4840332031249999
1.9714599609374999
2.077001953125
1.4074951171874999
1.5033691406249998
1.4759765624999999
1.3180664062499998
1.21494140625
1.1271240234375
1.1770751953125
1.3873535156249999
1.46630859375
1.4719482421874999
1.4501953125
1.5533203125
1.55009765625
1.53720703125
1.554931640625
1.5347900390625
1.53076171875
1.5315673828124998
1.5073974609374998
0.9490722656249999
0.9015380859375
1.6306640625
1.5218994140625
1.5331787109375
1.7362060546875
1.7684326171875
2.4741943359375
1.8240234375
1.5218994140625
1.5090087890625
1.4945068359375
1.5033691406249998
1.5009521484375
1.490478515625
1.4977294921875
1.493701171875
1.4872558593749998
1.4993408203124998
1.5017578125
1.4791992187499998
1.4872558593749998
2.193017578125
1.40185546875
1.477587890625
1.4800048828124999
1.353515625
1.303564453125
0.9313476562499999
1.16015625
1.3333740234375
1.4550292968749998
1.4687255859375
1.4832275390624998
1.4848388671875
1.5678222656249998
1.5557373046874998
1.546875
1.53076171875
1.5218994140625
1.525927734375
1.5476806640624998
1.1408203125
0.7774658203125
1.6765869140624998
1.5565429687499999
1.538818359375
1.6379150390625
1.6781982421875
2.4484130859374997
1.8820312499999998
1.5621826171875
1.5033691406249998
1.4961181640624999
1.4953124999999998
1.51787109375
1.4961181640624999
1.4896728515625
1.4840332031249999
1.490478515625
1.4848388671875
1.4840332031249999
1.4896728515625
1.4912841796874998
2.6433837890625
1.5114257812499998
1.4912841796874998
1.525927734375
1.4308593749999998
1.316455078125
0.9369873046874999
1.1778808593749999
1.2568359375
1.4356933593749999
1.458251953125
1.4912841796874998
1.4461669921875
1.5637939453124998
1.5315673828124998
1.529150390625
1.5267333984375
1.5323730468749999
1.5283447265624999
1.525927734375
1.5146484375
0.30937499999999996
1.5428466796875
1.561376953125
1.50498046875
1.59521484375
1.6862548828125
2.1132568359375
2.215576171875
1.622607421875
1.5122314453124999
1.4896728515625
1.4872558593749998
1.5323730468749999
1.4953124999999998
1.4993408203124998
1.4888671875
1.482421875
1.5106201171875
1.4953124999999998
1.4840332031249999
1.506591796875
2.30419921875
1.5444580078124999
1.4389160156249998
1.5251220703125
1.4542236328125
1.3446533203125
1.05380859375
1.1835205078125
1.2310546875
1.4195800781249999
1.4437499999999999
1.4848388671875
1.4316650390624999
1.5589599609375
1.542041015625
1.5355957031249998
1.5380126953125
1.5315673828124998
1.5509033203125
1.5218994140625
1.5186767578125
0.6227783203124999
1.4767822265625
1.6121337890624998
1.5082031249999999
1.6072998046875
1.7450683593749998
1.8014648437499998
2.4967529296874997
1.6290527343749999
1.5235107421874998
1.5082031249999999
1.4880615234374999
1.5170654296875
1.4703369140625
1.5073974609374998
1.4800048828124999
1.4832275390624998
1.4840332031249999
1.4993408203124998
1.4993408203124998
1.49853515625
2.1857666015625
1.9956298828124999
1.397021484375
1.5251220703125
1.4711425781249998
1.3148437499999999
1.2560302734375
1.119873046875
1.1416259765624999
1.3430419921874999
1.442138671875
1.4679199218749999
1.4961181640624999
1.5138427734375
1.5428466796875
1.542041015625
1.5267333984375
1.525927734375
1.5323730468749999
1.5364013671874999
1.5428466796875
0.6614501953124999
0.978076171875
1.6781982421875
1.4953124999999998
1.5492919921875
1.6967285156249998
1.7571533203124998
2.5813476562499997
1.7700439453124999
1.55009765625
1.4953124999999998
1.4800048828124999
1.4767822265625
1.490478515625
1.5041748046874999
1.513037109375
1.496923828125
1.50498046875
1.5082031249999999
1.5017578125
1.4840332031249999
1.4630859374999998
2.624853515625
1.3913818359374999
1.474365234375
1.5323730468749999
1.397021484375
1.2479736328125
0.8950927734374999
1.1021484375
1.3188720703124999
1.4381103515625
1.445361328125
1.4872558593749998
1.5041748046874999
1.5621826171875
1.5460693359375
1.5517089843749998
1.5428466796875
1.5364013671874999
1.5380126953125
1.5355957031249998
1.5090087890625
0.285205078125
1.6927001953124998
1.542041015625
1.52109375
1.6209960937499999
1.732177734375
2.3855712890625
2.141455078125
1.5750732421875
1.529150390625
1.4880615234374999
1.4928955078125
1.51787109375
1.4888671875
1.4872558593749998
1.474365234375
1.4767822265625
1.4993408203124998
1.4888671875
1.480810546875
1.46953125
2.73603515625
1.46630859375
1.4719482421874999
1.5267333984375
1.41796875
1.3341796874999998
0.9627685546875
1.0916748046875
1.2447509765625
1.3962158203125
1.445361328125
1.5162597656249999
1.4437499999999999
1.59521484375
1.5605712890624999
1.546875
1.561376953125
1.5444580078124999
1.5509033203125
1.5355957031249998
1.5154541015624998
0.1957763671875
1.5791015625
1.5750732421875
1.4953124999999998
1.5984375
1.7200927734375
1.9078125
2.2711669921874997
1.6411376953124999
1.5170654296875
1.4977294921875
1.5073974609374998
1.5235107421874998
1.46630859375
1.4993408203124998
1.490478515625
1.4703369140625
1.4953124999999998
1.4896728515625
1.4872558593749998
1.4832275390624998
2.6200195312499996
1.8216064453124998
1.3913818359374999
1.509814453125
1.448583984375
1.281005859375
1.007080078125
1.0852294921874999
1.148876953125
1.3470703124999999
1.4437499999999999
1.4671142578124998
1.46630859375
1.587158203125
1.5476806640624998
1.5541259765625
1.5484863281249999
1.53076171875
1.5283447265624999
1.5154541015624998
1.5517089843749998
0.3029296875
1.1609619140625
1.6701416015625
1.4993408203124998
1.5879638671874998
1.7362060546875
1.8602783203125
2.6055175781249997
1.7813232421874998
1.5718505859374998
1.5315673828124998
1.5138427734375
1.5323730468749999
1.4759765624999999
1.4864501953125
1.4759765624999999
1.482421875
1.5186767578125
1.4953124999999998
1.5082031249999999
1.4703369140625
1.6371093749999999
2.4854736328125
1.4058837890625
1.4928955078125
1.5146484375
1.2818115234374998
1.224609375
0.8934814453125
1.0320556640625
1.2987304687499999
1.41796875
1.4364990234375
1.45341796875
1.5057861328125
1.5436523437499998
1.5218994140625
1.5355957031249998
1.5122314453124999
1.5114257812499998
1.522705078125
1.5331787109375
1.30517578125
0.35771484374999996
1.6435546875
1.4912841796874998
1.513037109375
1.6153564453125
1.7499023437499999
2.608740234375
2.09150390625
1.5895751953125
1.5202880859374999
1.4735595703125
1.496923828125
1.5484863281249999
1.5073974609374998
1.5146484375
1.4928955078125
1.493701171875
1.5041748046874999
1.5162597656249999
1.5090087890625
1.50498046875
2.9914306640625
1.4493896484375
1.5364013671874999
1.5718505859374998
1.3559326171875
1.26005859375
0.710595703125
0.9933837890624999
1.2028564453125
1.3921875
1.4203857421875
1.4638916015624999
1.4332763671875
1.5815185546875
1.5565429687499999
1.5565429687499999
1.53076171875
1.5283447265624999
1.533984375
1.53720703125
1.51787109375
0.019335937499999997
1.52109375
1.4598632812499999
1.4147460937499998
1.529150390625
1.6653076171874999
2.1245361328125
2.7166992187499996
1.651611328125
1.5146484375
1.482421875
1.4622802734375
1.5347900390625
1.4630859374999998
1.5057861328125
1.4993408203124998
1.4735595703125
1.5122314453124999
1.5114257812499998
1.4953124999999998
1.482421875
2.42666015625
1.75634765625
1.480810546875
1.6008544921874999
1.47275390625
1.2431396484375
1.0304443359375
0.8604492187499999
1.036083984375
1.2987304687499999
1.3897705078125
1.4139404296875
1.3921875
1.56298828125
1.5686279296874999
1.5347900390625
1.538818359375
1.546875
1.5243164062499999
1.51787109375
1.5114257812499998
0.436669921875
1.2415283203124998
1.606494140625
1.4332763671875
1.4880615234374999
1.786962890625
1.90458984375
2.9882080078124997
2.03671875
1.590380859375
1.542041015625
1.5033691406249998
1.5275390624999998
1.5001464843749999
1.490478515625
1.4977294921875
1.5025634765625
1.53076171875
1.4993408203124998
1.5025634765625
1.533984375
1.496923828125
2.4564697265624997
1.4550292968749998
1.5154541015624998
1.5597656249999998
1.2979248046874998
1.1931884765625
0.6034423828125
0.8910644531249999
1.1666015625
1.348681640625
1.38896484375
1.4308593749999998
1.4437499999999999
1.5476806640624998
1.529150390625
1.5275390624999998
1.5444580078124999
1.513037109375
1.53076171875
1.5605712890624999
1.5275390624999998
0.0217529296875
1.683837890625
1.4655029296875
1.4711425781249998
1.722509765625
1.7901855468749999
2.6901123046874997
2.4911132812499996
1.6346923828125
1.5484863281249999
1.4816162109375
1.50498046875
1.5492919921875
1.490478515625
1.506591796875
1.5041748046874999
1.4945068359375
1.5154541015624998
1.4800048828124999
1.4920898437499999
1.4896728515625
2.995458984375
1.546875
1.533984375
1.5815185546875
1.442138671875
1.297119140625
0.7968017578125
0.9329589843749999
1.0828125
1.3285400390625
1.3664062499999998
1.4671142578124998
1.353515625
1.574267578125
1.5275390624999998
1.513037109375
1.5484863281249999
1.5364013671874999
1.525927734375
1.561376953125
1.5057861328125
0.022558593749999998
1.5533203125
1.5122314453124999
1.3905761718749998
1.5533203125
1.751513671875
2.012548828125
2.642578125
1.7821289062499999
1.5605712890624999
1.5243164062499999
1.5114257812499998
1.5396240234374998
1.4719482421874999
1.5106201171875
1.50498046875
1.4759765624999999
1.4703369140625
1.4767822265625
1.5001464843749999
1.4638916015624999
2.99384765625
2.0101318359375
1.461474609375
1.6056884765625
1.522705078125
1.2205810546875
1.0739501953125
0.9257080078125
0.984521484375
1.2262207031249999
1.3664062499999998
1.409912109375
1.3881591796875
1.53076171875
1.546875
1.538818359375
1.5557373046874998
1.5347900390625
1.5251220703125
1.5162597656249999
1.5025634765625
0.018530273437499998
0.9627685546875
1.6089111328124999
1.4147460937499998
1.4912841796874998
1.796630859375
1.8739746093749998
2.9962646484374997
1.9634033203124999
1.6000488281249998
1.5073974609374998
1.496923828125
1.5436523437499998
1.5605712890624999
1.5283447265624999
1.5275390624999998
1.5082031249999999
1.5251220703125
1.513037109375
1.5380126953125
1.5057861328125
1.7072021484375
2.86494140625
1.4171630859375
1.5436523437499998
1.5766845703124999
1.353515625
1.0417236328125
0.581689453125
0.8685058593749999
1.1367919921875
1.3954101562499999
1.409912109375
1.4276367187499999
1.4348876953124998
1.5533203125
1.5533203125
1.5702392578125
1.5347900390625
1.522705078125
1.509814453125
1.53076171875
1.21494140625
0.07009277343749999
1.658056640625
1.3857421875
1.4590576171874998
1.6161621093749998
1.72412109375
2.995458984375
2.3420654296875
1.6894775390624999
1.5533203125
1.4928955078125
1.4816162109375
1.561376953125
1.5009521484375
1.4920898437499999
1.5017578125
1.4888671875
1.4977294921875
1.493701171875
1.522705078125
1.4993408203124998
2.995458984375
1.622607421875
1.5799072265624998
1.6564453124999998
1.4840332031249999
1.2318603515625
0.510791015625
0.8765624999999999
0.9692138671874999
1.332568359375
1.3929931640625
1.4638916015624999
1.3849365234375
1.577490234375
1.5347900390625
1.5654052734375
1.5573486328125
1.542041015625
1.545263671875
1.5154541015624998
1.4993408203124998
0.022558593749999998
1.4236083984374999
1.493701171875
1.3857421875
1.5815185546875
1.7901855468749999
2.333203125
2.9390625
1.8296630859374998
1.554931640625
1.5041748046874999
1.4864501953125
1.5460693359375
1.4735595703125
1.49853515625
1.493701171875
1.5041748046874999
1.5355957031249998
1.51787109375
1.5251220703125
1.5194824218749998
2.78759765625
1.7152587890625
1.554931640625
1.65966796875
1.4800048828124999
1.21494140625
0.9394042968749999
0.7637695312499999
0.9410156249999999
1.2479736328125
1.3414306640625
1.41796875
1.3478759765625
1.538818359375
1.5364013671874999
1.5073974609374998
1.5267333984375
1.50498046875
1.5243164062499999
1.5404296874999999
1.53076171875
0.124072265625
0.5736328125
1.585546875
1.4244140625
1.506591796875
1.9062011718749998
1.964208984375
2.995458984375
2.1035888671875
1.60166015625
1.5364013671874999
1.4961181640624999
1.5170654296875
1.4840332031249999
1.4888671875
1.5001464843749999
1.4735595703125
1.4912841796874998
1.509814453125
1.5073974609374998
1.5001464843749999
1.4719482421874999
2.5152832031249996
1.4381103515625
1.5718505859374998
1.5597656249999998
1.232666015625
1.1367919921875
0.404443359375
0.8338623046875
1.1375976562499999
1.3253173828125
1.400244140625
1.4236083984374999
1.4228027343749998
1.5428466796875
1.5436523437499998
1.554931640625
1.5380126953125
1.5315673828124998
1.5541259765625
1.5509033203125
1.5299560546875
0.38913574218749997
1.7603759765625
1.4437499999999999
1.4469726562499998
1.738623046875
1.8087158203125
2.795654296875
2.1744873046874997
1.638720703125
1.5162597656249999
1.4800048828124999
1.5033691406249998
1.53720703125
1.477587890625
1.480810546875
1.4864501953125
1.5243164062499999
1.509814453125
1.4928955078125
1.4880615234374999
1.4735595703125
2.9946533203124996
1.474365234375
1.5525146484374999
1.6645019531249998
1.464697265625
1.281005859375
0.310986328125
0.8104980468749999
1.039306640625
1.2737548828124998
1.3817138671875
1.4437499999999999
1.3510986328124999
1.6371093749999999
1.5799072265624998
1.5484863281249999
1.53720703125
1.5299560546875
1.5251220703125
1.5444580078124999
1.5082031249999999
0.0217529296875
1.5879638671874998
1.5331787109375
1.405078125
1.571044921875
1.8216064453124998
2.1438720703125
2.76181640625
1.8199951171875
1.5807128906249999
1.5218994140625
1.4993408203124998
1.5565429687499999
1.4348876953124998
1.4888671875
1.480810546875
1.461474609375
1.4816162109375
1.4945068359375
1.461474609375
1.477587890625
3.0083496093749997
2.0334960937499997
1.4679199218749999
1.6717529296875
1.49853515625
1.1706298828125
0.69609375
0.8507812499999999
0.8854248046875
1.2141357421874999
1.3712402343749999
1.4252197265625
1.38896484375
1.6524169921874998
1.5621826171875
1.5645996093749999
1.5476806640624998
1.533984375
1.5082031249999999
1.5170654296875
1.48564453125
0.0217529296875
0.9885498046875
1.6459716796875
1.4066894531249998
1.5194824218749998
1.843359375
1.9231201171874999
2.9978759765625
1.832080078125
1.6040771484374998
1.5686279296874999
1.5404296874999999
1.5380126953125
1.4276367187499999
1.5154541015624998
1.4961181640624999
1.4953124999999998
1.5509033203125
1.5218994140625
1.477587890625
1.4735595703125
1.683837890625
2.9455078125
1.4550292968749998
1.561376953125
1.6105224609375
1.3414306640625
1.0368896484374999
0.49790039062499997
0.7718261718749999
1.1625732421875
1.3817138671875
1.413134765625
1.4630859374999998
1.5517089843749998
1.5863525390625
1.5678222656249998
1.5637939453124998
1.5807128906249999
1.5347900390625
1.5492919921875
1.4977294921875
1.22783203125
0.022558593749999998
1.7136474609374999
1.3913818359374999
1.405078125
1.638720703125
1.893310546875
2.99384765625
2.40087890625
1.7418457031249999
1.554931640625
1.5186767578125
1.5275390624999998
1.5194824218749998
1.4687255859375
1.46953125
1.4759765624999999
1.4783935546875
1.4800048828124999
1.4832275390624998
1.4928955078125
1.4791992187499998
2.9914306640625
1.456640625
1.62744140625
1.6427490234375
1.5202880859374999
1.222998046875
0.37060546875
0.816943359375
1.058642578125
1.3382080078124998
1.3752685546874999
1.4348876953124998
1.3897705078125
1.6000488281249998
1.5428466796875
1.545263671875
1.5323730468749999
1.513037109375
1.522705078125
1.5364013671874999
1.5154541015624998
0.0217529296875
1.345458984375
1.496923828125
1.3962158203125
1.5589599609375
1.7990478515625
2.386376953125
2.9930419921875
1.7523193359375
1.56943359375
1.545263671875
1.4912841796874998
1.53076171875
1.448583984375
1.4848388671875
1.4880615234374999
1.4590576171874998
1.5251220703125
1.5090087890625
1.4888671875
1.4791992187499998
2.70703125
1.7603759765625
1.52109375
1.638720703125
1.4977294921875
1.22783203125
0.9514892578124999
0.7130126953125
0.8950927734374999
1.222998046875
1.3559326171875
1.36962890625
1.3559326171875
1.5605712890624999
1.5597656249999998
1.5605712890624999
1.561376953125
1.5283447265624999
1.5412353515625
1.5605712890624999
1.529150390625
0.133740234375
1.264892578125
1.5944091796875
1.3591552734374999
1.4308593749999998
1.87236328125
1.9827392578124998
2.9986816406249996
2.1382324218749997
1.5831298828125
1.5637939453124998
1.513037109375
1.5380126953125
1.5114257812499998
1.53720703125
1.496923828125
1.4880615234374999
1.4896728515625
1.5017578125
1.4864501953125
1.4953124999999998
1.4735595703125
2.6256591796874997
1.4147460937499998
1.55009765625
1.6048828124999999
1.2592529296875
1.1150390625
0.32145996093749996
0.8064697265624999
1.132763671875
1.3510986328124999
1.3833251953124999
1.4389160156249998
1.4437499999999999
1.590380859375
1.5533203125
1.5484863281249999
1.5347900390625
1.533984375
1.5154541015624998
1.5057861328125
1.4735595703125
0.327099609375
1.71123046875
1.4091064453125
1.4316650390624999
1.7047851562499998
1.832080078125
2.9922363281249997
2.6135742187499997
1.6765869140624998
1.585546875
1.538818359375
1.5122314453124999
1.5355957031249998
1.4655029296875
1.5090087890625
1.4945068359375
1.513037109375
1.5162597656249999
1.496923828125
1.525927734375
1.5001464843749999
2.9962646484374997
1.5138427734375
1.5605712890624999
1.6314697265625
1.4832275390624998
1.2608642578125
0.5776611328125
0.7460449218749999
0.9611572265624999
1.2890625
1.3857421875
1.4469726562499998
1.3462646484374998
1.6129394531249999
1.56943359375
1.5686279296874999
1.5815185546875
1.5404296874999999
1.5654052734375
1.53720703125
1.533984375
0.020947265625
1.5662109375
1.529150390625
1.368017578125
1.5960205078124998
1.8256347656249998
2.1076171875
2.856884765625
1.8240234375
1.5654052734375
1.5170654296875
1.5122314453124999
1.5525146484374999
1.4493896484375
1.4920898437499999
1.4840332031249999
1.4687255859375
1.47275390625
1.5170654296875
1.5025634765625
1.490478515625
3.003515625
2.0761962890625
1.4751708984374998
1.6894775390624999
1.5404296874999999
1.1666015625
0.6936767578124999
0.8145263671874999
0.8266113281249999
1.168212890625
1.3639892578125
1.4219970703125
1.3954101562499999
1.558154296875
1.5919921874999998
1.5484863281249999
1.5251220703125
1.5380126953125
1.545263671875
1.538818359375
1.5243164062499999
0.0169189453125
0.8362792968749999
1.6798095703125
1.3929931640625
1.48564453125
1.82080078125
1.94970703125
2.9970703125
2.035107421875
1.5984375
1.52109375
1.5041748046874999
1.533984375
1.545263671875
1.5396240234374998
1.4953124999999998
1.5073974609374998
1.5082031249999999
1.5170654296875
1.5146484375
1.496923828125
1.6218017578125
2.9712890625
1.3954101562499999
1.590380859375
1.6250244140624999
1.3833251953124999
1.0449462890624999
0.375439453125
0.781494140625
1.0191650390625
1.3712402343749999
1.4276367187499999
1.4115234374999999
1.3720458984375
1.5396240234374998
1.53720703125
1.5380126953125
1.5428466796875
1.56943359375
1.5645996093749999
1.53720703125
1.3583496093749998
0.020947265625
1.7345947265625
1.5122314453124999
1.3994384765624999
1.5702392578125
1.7370117187499998
2.9946533203124996
2.4846679687499997
1.7128417968749998
1.5492919921875
1.5283447265624999
1.5154541015624998
1.56943359375
1.4840332031249999
1.4759765624999999
1.493701171875
1.4751708984374998
1.4888671875
1.4912841796874998
1.4767822265625
1.4872558593749998
2.99384765625
1.6620849609375
1.6185791015625
1.6290527343749999
1.506591796875
1.2447509765625
0.423779296875
0.8129150390625
0.9232910156249999
1.33740234375
1.3543212890624998
1.4203857421875
1.3929931640625
1.6395263671875
1.5509033203125
1.5396240234374998
1.522705078125
1.5347900390625
1.5573486328125
1.5460693359375
1.50498046875
0.0217529296875
1.3156494140625
1.5033691406249998
1.3591552734374999
1.542041015625
1.9400390625
2.2631103515624997
2.99384765625
1.9440673828125
1.546875
1.5162597656249999
1.5001464843749999
1.5597656249999998
1.482421875
1.5017578125
1.4993408203124998
1.4711425781249998
1.4912841796874998
1.5162597656249999
1.4880615234374999
1.4719482421874999
2.647412109375
2.537841796875
1.4872558593749998
1.6612792968749999
1.5766845703124999
1.1923828125
0.97001953125
0.623583984375
0.8322509765624999
1.22783203125
1.3575439453125
1.40185546875
1.3341796874999998
1.5484863281249999
1.53076171875
1.5444580078124999
1.5162597656249999
1.506591796875
1.538818359375
1.5517089843749998
1.5444580078124999
0.3117919921875
0.33193359375
1.5927978515624999
1.4348876953124998
1.4477783203124999
1.732177734375
2.0246337890625
2.9906249999999996
2.20107421875
1.5791015625
1.5492919921875
1.5138427734375
1.5428466796875
1.50498046875
1.52109375
1.513037109375
1.4848388671875
1.5009521484375
1.480810546875
1.5001464843749999
1.4961181640624999
1.4622802734375
2.6723876953124996
1.4091064453125
1.5847412109374999
1.635498046875
1.2697265624999998
1.126318359375
0.2956787109375
0.8056640625
1.068310546875
1.3092041015625
1.413134765625
1.4429443359374998
1.4630859374999998
1.5984375
1.5412353515625
1.5323730468749999
1.5436523437499998
1.5565429687499999
1.5460693359375
1.545263671875
1.490478515625
0.019335937499999997
1.703173828125
1.4115234374999999
1.3543212890624998
1.6878662109375
1.7990478515625
2.745703125
2.85849609375
1.683837890625
1.5879638671874998
1.545263671875
1.5073974609374998
1.5597656249999998
1.4783935546875
1.4953124999999998
1.5025634765625
1.49853515625
1.4896728515625
1.474365234375
1.4888671875
1.4880615234374999
2.9946533203124996
1.482421875
1.5645996093749999
1.674169921875
1.4606689453125
1.2528076171875
0.733154296875
0.797607421875
0.9369873046874999
1.268115234375
1.3704345703124998
1.4332763671875
1.3599609375
1.6298583984375
1.5791015625
1.5645996093749999
1.5605712890624999
1.5017578125
1.5492919921875
1.554931640625
1.5090087890625
0.0201416015625
1.5960205078124998
1.5605712890624999
1.3551269531249999
1.5525146484374999
1.896533203125
2.115673828125
2.9946533203124996
1.832080078125
1.5766845703124999
1.542041015625
1.5041748046874999
1.5557373046874998
1.4429443359374998
1.5082031249999999
1.4864501953125
1.4598632812499999
1.5218994140625
1.49853515625
1.5082031249999999
1.5090087890625
2.9946533203124996
2.13984375
1.44052734375
1.6524169921874998
1.4880615234374999
1.1609619140625
1.0239990234375
0.65419921875
0.8306396484374999
1.1480712890625
1.348681640625
1.405078125
1.3792968749999999
1.5218994140625
1.5678222656249998
1.55009765625
1.6072998046875
1.5565429687499999
1.545263671875
1.574267578125
1.5509033203125
0.024169921875
0.8451416015625
1.7128417968749998
1.3261230468749998
1.4244140625
1.7958251953125
1.9545410156249998
2.995458984375
2.0415527343749997
1.6290527343749999
1.5347900390625
1.5073974609374998
1.5283447265624999
1.5436523437499998
1.53720703125
1.533984375
1.49853515625
1.5009521484375
1.4888671875
1.538818359375
1.5041748046874999
1.622607421875
2.9970703125
1.4171630859375
1.571044921875
1.625830078125
1.393798828125
1.0376953125
0.3988037109375
0.74443359375
1.03447265625
1.3414306640625
1.3833251953124999
1.4236083984374999
1.36962890625
1.5750732421875
1.533984375
1.5380126953125
1.5380126953125
1.5444580078124999
1.5517089843749998
1.5678222656249998
1.4107177734374998
0.020947265625
1.7080078125
1.4655029296875
1.416357421875
1.593603515625
1.7595703125
2.995458984375
2.57490234375
1.7772949218749998
1.5355957031249998
1.5041748046874999
1.5541259765625
1.5968261718749999
1.48564453125
1.5073974609374998
1.4864501953125
1.47275390625
1.4816162109375
1.4872558593749998
1.5001464843749999
1.4961181640624999
2.9946533203124996
1.6669189453125
1.603271484375
1.6749755859375
1.522705078125
1.20849609375
0.38188476562499996
0.7798828124999999
0.894287109375
1.3229003906249999
1.340625
1.4203857421875
1.384130859375
1.6105224609375
1.5662109375
1.56298828125
1.5492919921875
1.5364013671874999
1.5605712890624999
1.5404296874999999
1.5186767578125
0.018530273437499998
1.3704345703124998
1.5033691406249998
1.380908203125
1.5807128906249999
1.8755859375
2.3452880859375
2.9962646484374997
1.8941162109374998
1.545263671875
1.5186767578125
1.4896728515625
1.533984375
1.4630859374999998
1.5235107421874998
1.5114257812499998
1.509814453125
1.5436523437499998
1.5114257812499998
1.490478515625
1.46953125
2.727978515625
2.566845703125
1.4437499999999999
1.65966796875
1.538818359375
1.1802978515625
0.910400390625
0.5454345703125
0.7734375
1.213330078125
1.329345703125
1.3873535156249999
1.3720458984375
1.5525146484374999
1.5525146484374999
1.5565429687499999
1.5686279296874999
1.5460693359375
1.5678222656249998
1.561376953125
1.5541259765625
0.1780517578125
0.3158203125
1.5791015625
1.3792968749999999
1.46630859375
1.6959228515625
1.9996582031249999
2.9922363281249997
2.20107421875
1.58232421875
1.5766845703124999
1.5275390624999998
1.5887695312499999
1.5267333984375
1.5162597656249999
1.477587890625
1.4872558593749998
1.4800048828124999
1.4953124999999998
1.5041748046874999
1.5001464843749999
1.4518066406249999
2.7408691406249996
1.3873535156249999
1.5879638671874998
1.6363037109374998
1.2665039062499999
1.0868408203125
0.16435546874999998
0.752490234375
1.0675048828125
1.327734375
1.380908203125
1.4364990234375
1.458251953125
1.5807128906249999
1.5541259765625
1.561376953125
1.5670166015625
1.5637939453124998
1.538818359375
1.538818359375
1.53076171875
0.02578125
1.76279296875
1.3768798828125
1.3873535156249999
1.7015624999999999
1.8151611328125
2.8858886718749996
2.89716796875
1.703173828125
1.5637939453124998
1.4945068359375
1.5243164062499999
1.571044921875
1.5122314453124999
1.4953124999999998
1.46953125
1.4832275390624998
1.50498046875
1.493701171875
1.4800048828124999
1.4912841796874998
2.9946533203124996
1.480810546875
1.56298828125
1.6935058593749999
1.4840332031249999
1.2576416015624998
0.631640625
0.69287109375
0.95390625
1.2769775390625
1.3825195312499998
1.4348876953124998
1.3551269531249999
1.6556396484375
1.5517089843749998
1.5565429687499999
1.5702392578125
1.5621826171875
1.5331787109375
1.5275390624999998
1.5106201171875
0.020947265625
1.5807128906249999
1.55009765625
1.3510986328124999
1.6056884765625
1.8868652343749999
2.1704589843749997
2.9970703125
1.8506103515624999
1.6072998046875
1.554931640625
1.538818359375
1.6008544921874999
1.4252197265625
1.4800048828124999
1.4518066406249999
1.4518066406249999
1.5033691406249998
1.5106201171875
1.4888671875
1.4703369140625
2.9922363281249997
2.1205078125
1.3954101562499999
1.7128417968749998
1.5154541015624998
1.1335693359374999
0.9821044921875
0.6832031249999999
0.8032470703125
1.139208984375
1.3341796874999998
1.4268310546874998
1.35673828125
1.533984375
1.5831298828125
1.56298828125
1.542041015625
1.5557373046874998
1.538818359375
1.554931640625
1.53076171875
0.0217529296875
0.7661865234374999
1.735400390625
1.393798828125
1.5202880859374999
1.8304687499999999
1.94970703125
2.995458984375
2.1293701171875
1.674169921875
1.55009765625
1.464697265625
1.4816162109375
1.51787109375
1.5009521484375
1.5025634765625
1.4920898437499999
1.506591796875
1.5243164062499999
1.5017578125
1.4880615234374999
1.6346923828125
2.9930419921875
1.40185546875
1.6072998046875
1.654833984375
1.361572265625
0.9490722656249999
0.201416015625
0.68642578125
1.0159423828125
1.345458984375
1.42119140625
1.432470703125
1.40185546875
1.5718505859374998
1.5509033203125
1.5525146484374999
1.5678222656249998
1.5726562499999999
1.5492919921875
1.5565429687499999
1.3905761718749998
0.022558593749999998
1.7531249999999998
1.4518066406249999
1.3849365234375
1.5944091796875
1.7660156249999999
2.9914306640625
2.673193359375
1.7619873046874999
1.571044921875
1.49853515625
1.5186767578125
1.60166015625
1.5057861328125
1.4945068359375
1.4791992187499998
1.529150390625
1.4735595703125
1.493701171875
1.4671142578124998
1.496923828125
2.9962646484374997
1.6612792968749999
1.6081054687499998
1.6733642578124999
1.5541259765625
1.2020507812499999
0.191748046875
0.6904541015625
0.8314453125
1.3059814453124998
1.348681640625
1.4155517578124999
1.3929931640625
1.6000488281249998
1.5791015625
1.56943359375
1.554931640625
1.546875
1.5686279296874999
1.5895751953125
1.5194824218749998
0.022558593749999998
1.316455078125
1.477587890625
1.3551269531249999
1.5589599609375
1.920703125
2.408935546875
2.9930419921875
1.9762939453125
1.5750732421875
1.5347900390625
1.51787109375
1.53720703125
1.4719482421874999
1.490478515625
1.490478515625
1.4896728515625
1.4912841796874998
1.4832275390624998
1.4832275390624998
1.4945068359375
2.7964599609375
2.6683593749999996
1.4356933593749999
1.7015624999999999
1.5911865234375
1.174658203125
0.881396484375
0.46083984375
0.69287109375
1.1706298828125
1.3446533203125
1.3962158203125
1.361572265625
1.6169677734374999
1.5726562499999999
1.538818359375
1.5605712890624999
1.5557373046874998
1.53076171875
1.529150390625
1.53720703125
0.16032714843749998
0.22316894531249998
1.65966796875
1.400244140625
1.4244140625
1.7595703125
2.0898925781249997
2.99384765625
2.3356201171874997
1.6475830078125
1.5484863281249999
1.5033691406249998
1.5509033203125
1.490478515625
1.4961181640624999
1.4977294921875
1.4920898437499999
1.4800048828124999
1.4832275390624998
1.4711425781249998
1.4896728515625
1.4558349609374999
2.8311035156249997
1.4026611328124998
1.5944091796875
1.6862548828125
1.2254150390625
1.061865234375
0.03544921875
0.69287109375
1.023193359375
1.3204833984375
1.3825195312499998
1.4332763671875
1.46953125
1.6234130859375
1.5589599609375
1.5654052734375
1.5637939453124998
1.5645996093749999
1.5863525390625
1.542041015625
1.5186767578125
0.0201416015625
1.764404296875
1.41796875
1.3954101562499999
1.7055908203124999
1.87236328125
2.9962646484374997
2.905224609375
1.6935058593749999
1.5525146484374999
1.5218994140625
1.5041748046874999
1.6089111328124999
1.5154541015624998
1.4945068359375
1.50498046875
1.5041748046874999
1.4840332031249999
1.4816162109375
1.496923828125
1.4840332031249999
2.9978759765625
1.4574462890625
1.5315673828124998
1.69189453125
1.4711425781249998
1.232666015625
0.61552734375
0.72509765625
0.9031494140624999
1.2576416015624998
1.3390136718749999
1.4550292968749998
1.3390136718749999
1.64677734375
1.5589599609375
1.5791015625
1.5927978515624999
1.5605712890624999
1.5533203125
1.5589599609375
1.53720703125
0.0217529296875
1.5839355468749998
1.5911865234375
1.3954101562499999
1.5927978515624999
1.8699462890624998
2.18818359375
2.9865966796874996
1.844970703125
1.5750732421875
1.5170654296875
1.513037109375
1.5589599609375
1.4139404296875
1.506591796875
1.4920898437499999
1.458251953125
1.4800048828124999
1.509814453125
1.5484863281249999
1.56943359375
2.9994873046875
2.11728515625
1.3817138671875
1.622607421875
1.5009521484375
1.1416259765624999
0.9821044921875
0.6775634765624999
0.77666015625
1.1625732421875
1.384130859375
1.4679199218749999
1.4155517578124999
1.55009765625
1.5436523437499998
1.5517089843749998
1.5758789062499998
1.5484863281249999
1.5670166015625
1.5484863281249999
1.5186767578125
0.019335937499999997
0.708984375
1.6749755859375
1.3728515625
1.493701171875
1.84013671875
1.909423828125
2.99384765625
2.1052001953125
1.6185791015625
1.5557373046874998
1.5597656249999998
1.538818359375
1.4655029296875
1.5267333984375
1.5251220703125
1.4550292968749998
1.5082031249999999
1.496923828125
1.5114257812499998
1.522705078125
1.5944091796875
2.9833740234375
1.3801025390625
1.5299560546875
1.5879638671874998
1.3462646484374998
1.071533203125
0.45761718749999997
0.8435302734375
1.2415283203124998
1.3986328124999998
1.4284423828125
1.4687255859375
1.5444580078124999
1.638720703125
1.6451660156249999
1.6765869140624998
1.703173828125
1.703173828125
1.6975341796874999
1.69833984375
1.590380859375
0.0845947265625
1.8498046874999998
1.5444580078124999
1.538818359375
1.6653076171874999
1.8441650390625
2.85205078125
2.360595703125
1.56943359375
1.5114257812499998
1.506591796875
1.5146484375
1.49853515625
1.47275390625
1.464697265625
1.4397216796874999
1.4590576171874998
1.4445556640625
1.4373046875
1.4228027343749998
1.41796875
2.89716796875
1.3817138671875
1.5017578125
1.5525146484374999
1.3502929687499998
1.2342773437499999
0.67998046875
0.9418212890625
1.1835205078125
1.416357421875
1.4655029296875
1.4671142578124998
1.4284423828125
1.5839355468749998
1.55009765625
1.5557373046874998
1.5597656249999998
1.5323730468749999
1.5557373046874998
1.5517089843749998
1.5218994140625
0.06767578125
1.61455078125
1.4840332031249999
1.4759765624999999
1.5807128906249999
1.6959228515625
2.0334960937499997
2.334814453125
1.6588623046875
1.5235107421874998
1.53076171875
1.5154541015624998
1.53720703125
1.4477783203124999
1.4896728515625
1.4840332031249999
1.4751708984374998
1.49853515625
1.4840332031249999
1.4832275390624998
1.4961181640624999
2.9841796874999997
1.67900390625
1.4115234374999999
1.525927734375
1.47275390625
1.2640869140625
1.1367919921875
1.0530029296874999
1.158544921875
1.3599609375
1.4219970703125
1.46630859375
1.4308593749999998
1.5517089843749998
1.53076171875
1.5355957031249998
1.55009765625
1.5364013671874999
1.5315673828124998
1.5476806640624998
1.5073974609374998
0.043505859375
1.2914794921875
1.64677734375
1.474365234375
1.5960205078124998
1.783740234375
1.8151611328125
2.5789306640625
1.764404296875
1.5541259765625
1.5082031249999999
1.48564453125
1.50498046875
1.4655029296875
1.4888671875
1.4993408203124998
1.493701171875
1.4920898437499999
1.4880615234374999
1.5033691406249998
1.490478515625
1.8812255859375
2.281640625
1.3994384765624999
1.5243164062499999
1.4832275390624998
1.3309570312499999
1.1915771484375
0.91845703125
1.1400146484375
1.2955078125
1.4389160156249998
1.4630859374999998
1.4679199218749999
1.5492919921875
1.545263671875
1.5323730468749999
1.533984375
1.5138427734375
1.522705078125
1.5323730468749999
1.5146484375
1.09248046875
0.6550048828124999
1.6854492187499999
1.5162597656249999
1.5396240234374998
1.6443603515624998
1.78857421875
2.537841796875
1.9634033203124999
1.5323730468749999
1.5162597656249999
1.4800048828124999
1.4953124999999998
1.496923828125
1.4888671875
1.4872558593749998
1.4912841796874998
1.4977294921875
1.4945068359375
1.496923828125
1.4961181640624999
1.4888671875
2.753759765625
1.3954101562499999
1.496923828125
1.538818359375
1.3607666015625
1.3059814453124998
0.8701171875
1.148876953125
1.3156494140625
1.44052734375
1.4550292968749998
1.474365234375
1.4735595703125
1.546875
1.525927734375
1.533984375
1.5404296874999999
1.5380126953125
1.5275390624999998
1.5283447265624999
1.525927734375
0.631640625
1.670947265625
1.533984375
1.5114257812499998
1.6306640625
1.6620849609375
2.0439697265625
1.977099609375
1.5863525390625
1.5218994140625
1.5073974609374998
1.5041748046874999
1.5243164062499999
1.482421875
1.4816162109375
1.4711425781249998
1.4791992187499998
1.48564453125
1.5001464843749999
1.5138427734375
1.4977294921875
2.7013916015625
1.4912841796874998
1.458251953125
1.525927734375
1.4477783203124999
1.3470703124999999
0.9434326171874999
1.1738525390624999
1.2584472656249999
1.4171630859375
1.4429443359374998
1.4800048828124999
1.429248046875
1.5734619140625
1.538818359375
1.5476806640624998
1.5525146484374999
1.5243164062499999
1.5275390624999998
1.5323730468749999
1.513037109375
0.2731201171875
1.5082031249999999
1.5895751953125
1.496923828125
1.5976318359375
1.738623046875
1.9634033203124999
2.29775390625
1.6508056640625
1.5299560546875
1.506591796875
1.4920898437499999
1.5162597656249999
1.493701171875
1.522705078125
1.5082031249999999
1.4848388671875
1.490478515625
1.480810546875
1.482421875
1.4920898437499999
2.2341064453125
1.9166748046875
1.4445556640625
1.542041015625
1.4679199218749999
1.3502929687499998
1.190771484375
1.0836181640625
1.206884765625
1.3978271484375
1.4445556640625
1.4590576171874998
1.4687255859375
1.571044921875
1.5380126953125
1.5396240234374998
1.542041015625
1.529150390625
1.5347900390625
1.5380126953125
1.5202880859374999
0.760546875
1.02158203125
1.6072998046875
1.5057861328125
1.5557373046874998
1.7394287109375
1.7934082031249998
2.4371337890625
1.8062988281249999
1.5251220703125
1.5122314453124999
1.4953124999999998
1.5114257812499998
1.4791992187499998
1.5017578125
1.5017578125
1.4848388671875
1.49853515625
1.5001464843749999
1.4961181640624999
1.4977294921875
1.4961181640624999
1.9811279296875
1.38896484375
1.4977294921875
1.480810546875
1.3229003906249999
1.281005859375
0.9450439453124999
1.1980224609374999
1.3502929687499998
1.445361328125
1.46630859375
1.4848388671875
1.5146484375
1.5428466796875
1.53076171875
1.5380126953125
1.525927734375
1.529150390625
1.52109375
1.5235107421874998
0.90556640625
0.9394042968749999
1.6798095703125
1.5404296874999999
1.5404296874999999
1.6620849609375
1.7072021484375
2.4097412109375
1.8465820312499999
1.5654052734375
1.51787109375
1.496923828125
1.5001464843749999
1.5154541015624998
1.4961181640624999
1.493701171875
1.4872558593749998
1.496923828125
1.4920898437499999
1.49853515625
1.49853515625
1.5009521484375
2.5144775390625
1.4308593749999998
1.5001464843749999
1.542041015625
1.44052734375
1.276171875
0.9353759765624999
1.1867431640625
1.2858398437499998
1.4469726562499998
1.4598632812499999
1.48564453125
1.4574462890625
1.5460693359375
1.5251220703125
1.5331787109375
1.5299560546875
1.5347900390625
1.5428466796875
1.5275390624999998
1.5106201171875
0.4125
1.6234130859375
1.5106201171875
1.5186767578125
1.58232421875
1.6806152343749998
2.1261474609374997
2.126953125
1.6290527343749999
1.5243164062499999
1.4928955078125
1.4953124999999998
1.5267333984375
1.4880615234374999
1.5001464843749999
1.4888671875
1.4896728515625
1.5025634765625
1.496923828125
1.5001464843749999
1.4840332031249999
2.4911132812499996
1.4606689453125
1.4832275390624998
1.529150390625
1.442138671875
1.3446533203125
1.11826171875
1.148876953125
1.2858398437499998
1.43408203125
1.45341796875
1.48564453125
1.4558349609374999
1.5847412109374999
1.5380126953125
1.5355957031249998
1.5355957031249998
1.5251220703125
1.5355957031249998
1.5315673828124998
1.5194824218749998
0.510791015625
1.5758789062499998
1.5887695312499999
1.5073974609374998
1.593603515625
1.690283203125
1.8232177734375
2.3775146484375
1.6298583984375
1.5235107421874998
1.506591796875
1.4993408203124998
1.5412353515625
1.4655029296875
1.50498046875
1.493701171875
1.4832275390624998
1.5033691406249998
1.5009521484375
1.4896728515625
1.4961181640624999
2.3887939453125
1.7603759765625
1.426025390625
1.522705078125
1.4510009765624998
1.3124267578125
1.268115234375
1.1641845703125
1.222998046875
1.377685546875
1.4501953125
1.474365234375
1.47275390625
1.5404296874999999
1.5283447265624999
1.5299560546875
1.5299560546875
1.5323730468749999
1.538818359375
1.5355957031249998
1.5122314453124999
0.5921630859375
1.200439453125
1.6508056640625
1.4993408203124998
1.574267578125
1.714453125
1.8054931640624998
2.373486328125
1.7442626953125
1.5347900390625
1.5138427734375
1.4993408203124998
1.513037109375
1.46630859375
1.4993408203124998
1.482421875
1.480810546875
1.4993408203124998
1.4953124999999998
1.4953124999999998
1.4880615234374999
1.590380859375
2.309033203125
1.4276367187499999
1.5025634765625
1.509814453125
1.3027587890624999
1.2705322265624999
0.990966796875
1.2157470703125
1.3792968749999999
1.4638916015624999
1.4510009765624998
1.4888671875
1.53720703125
1.5412353515625
1.529150390625
1.53076171875
1.5315673828124998
1.5315673828124998
1.53720703125
1.52109375
1.4219970703125
0.6171386718749999
1.6604736328124998
1.52109375
1.5364013671874999
1.690283203125
1.7080078125
2.2421630859375
1.9625976562499998
1.5509033203125
1.5347900390625
1.5114257812499998
1.5073974609374998
1.5202880859374999
1.4953124999999998
1.4848388671875
1.4864501953125
1.5073974609374998
1.4993408203124998
1.4880615234374999
1.4888671875
1.49853515625
2.3678466796874997
1.41796875
1.5009521484375
1.513037109375
1.4074951171874999
1.353515625
1.0223876953125
1.2093017578125
1.3301513671874998
1.4381103515625
1.458251953125
1.4880615234374999
1.4679199218749999
1.561376953125
1.545263671875
1.529150390625
1.5347900390625
1.53720703125
1.529150390625
1.5218994140625
1.4791992187499998
0.594580078125
1.6475830078125
1.5597656249999998
1.533984375
1.5944091796875
1.6653076171874999
2.1760986328125
2.0044921875
1.5927978515624999
1.5202880859374999
1.5001464843749999
1.490478515625
1.5235107421874998
1.5017578125
1.5001464843749999
1.4953124999999998
1.4920898437499999
1.4928955078125
1.4888671875
1.4953124999999998
1.5057861328125
2.53623046875
1.5799072265624998
1.506591796875
1.522705078125
1.4437499999999999
1.361572265625
1.0546142578125
1.1923828125
1.2640869140625
1.4381103515625
1.456640625
1.4928955078125
1.4703369140625
1.561376953125
1.5364013671874999
1.5404296874999999
1.53076171875
1.5283447265624999
1.5315673828124998
1.5396240234374998
1.5162597656249999
0.4318359375
1.4074951171874999
1.5734619140625
1.5267333984375
1.56943359375
1.67900390625
1.8473876953125
2.273583984375
1.590380859375
1.51787109375
1.4993408203124998
1.4928955078125
1.5275390624999998
1.477587890625
1.5033691406249998
1.493701171875
1.4896728515625
1.5009521484375
1.490478515625
1.4928955078125
1.4953124999999998
1.8981445312499998
1.6346923828125
1.4308593749999998
1.5275390624999998
1.4542236328125
1.3229003906249999
1.2528076171875
1.0787841796875
1.2568359375
1.3978271484375
1.4598632812499999
1.4880615234374999
1.4687255859375
1.5476806640624998
1.5404296874999999
1.5347900390625
1.5412353515625
1.53720703125
1.5267333984375
1.5283447265624999
1.5202880859374999
0.5051513671875
1.3446533203125
1.6250244140624999
1.5122314453124999
1.5815185546875
1.7088134765624998
1.72734375
2.2985595703125
1.6636962890625
1.53076171875
1.5106201171875
1.5009521484375
1.5106201171875
1.50498046875
1.5146484375
1.4993408203124998
1.49853515625
1.4993408203124998
1.4888671875
1.4864501953125
1.4920898437499999
1.7781005859374999
2.1132568359375
1.405078125
1.5162597656249999
1.5041748046874999
1.3801025390625
1.2592529296875
1.071533203125
1.2125244140625
1.3430419921874999
1.461474609375
1.4783935546875
1.48564453125
1.5364013671874999
1.5444580078124999
1.5299560546875
1.5299560546875
1.529150390625
1.5235107421874998
1.5202880859374999
1.522705078125
1.1947998046875
0.8572265625
1.6717529296875
1.5186767578125
1.5235107421874998
1.6306640625
1.7281494140625
2.3307861328125
1.8312744140625
1.51787109375
1.5170654296875
1.5001464843749999
1.5001464843749999
1.4993408203124998
1.5057861328125
1.5122314453124999
1.5009521484375
1.490478515625
1.4993408203124998
1.5082031249999999
1.4928955078125
1.4783935546875
2.512060546875
1.4107177734374998
1.4864501953125
1.522705078125
1.37607421875
1.3430419921874999
1.0127197265624999
1.2173583984375
1.340625
1.4413330078125
1.4655029296875
1.4864501953125
1.490478515625
1.5597656249999998
1.5315673828124998
1.5243164062499999
1.525927734375
1.5243164062499999
1.5323730468749999
1.51787109375
1.5218994140625
0.7774658203125
1.65966796875
1.533984375
1.5235107421874998
1.6242187499999998
1.6572509765624999
1.98193359375
1.8900878906249998
1.5782958984375
1.522705078125
1.5033691406249998
1.4953124999999998
1.53076171875
1.482421875
1.493701171875
1.4920898437499999
1.4816162109375
1.5009521484375
1.5138427734375
1.49853515625
1.5033691406249998
2.513671875
1.4953124999999998
1.461474609375
1.513037109375
1.4397216796874999
1.3543212890624998
1.026416015625
1.21171875
1.2906738281249999
1.4316650390624999
1.4671142578124998
1.4848388671875
1.458251953125
1.5533203125
1.529150390625
1.5364013671874999
1.542041015625
1.5347900390625
1.5251220703125
1.5251220703125
1.5146484375
0.4640625
1.5251220703125
1.5557373046874998
1.5138427734375
1.5791015625
1.7055908203124999
1.9037841796875
2.1785156249999997
1.6346923828125
1.5202880859374999
1.4977294921875
1.49853515625
1.5243164062499999
1.48564453125
1.4872558593749998
1.4961181640624999
1.4864501953125
1.5009521484375
1.4945068359375
1.49853515625
1.4953124999999998
2.126953125
1.538818359375
1.448583984375
1.5331787109375
1.4606689453125
1.351904296875
1.216552734375
1.1641845703125
1.2777832031249998
1.41796875
1.4598632812499999
1.4671142578124998
1.45341796875
1.5533203125
1.5404296874999999
1.5533203125
1.5444580078124999
1.5323730468749999
1.533984375
1.525927734375
1.5138427734375
0.8660888671875
1.4848388671875
1.603271484375
1.4993408203124998
1.5533203125
1.7184814453125
1.7531249999999998
2.3275634765624997
1.6363037109374998
1.5243164062499999
1.5090087890625
1.4896728515625
1.5162597656249999
1.4848388671875
1.496923828125
1.493701171875
1.493701171875
1.496923828125
1.4888671875
1.49853515625
1.4864501953125
2.0012695312499997
1.925537109375
1.4252197265625
1.4888671875
1.4735595703125
1.3462646484374998
1.313232421875
1.1271240234375
1.2463623046874999
1.3623779296874998
1.4638916015624999
1.4953124999999998
1.4880615234374999
1.50498046875
1.5444580078124999
1.53720703125
1.525927734375
1.522705078125
1.5283447265624999
1.5243164062499999
1.5194824218749998
0.9498779296875
1.04736328125
1.6830322265625
1.5106201171875
1.5428466796875
1.6749755859375
1.6862548828125
2.31708984375
1.7539306640624999
1.5460693359375
1.5170654296875
1.4961181640624999
1.5025634765625
1.4928955078125
1.490478515625
1.5033691406249998
1.5009521484375
1.5025634765625
1.49853515625
1.4912841796874998
1.493701171875
1.4928955078125
2.3920166015624997
1.4115234374999999
1.4928955078125
1.4961181640624999
1.4316650390624999
1.3172607421875
1.0159423828125
1.2270263671875
1.2938964843749998
1.461474609375
1.4679199218749999
1.4993408203124998
1.5146484375
1.55009765625
1.529150390625
1.5355957031249998
1.522705078125
1.5202880859374999
1.5275390624999998
1.529150390625
1.529150390625
0.5607421874999999
1.6645019531249998
1.5202880859374999
1.5162597656249999
1.638720703125
1.670947265625
2.0326904296875
2.0568603515625
1.574267578125
1.5267333984375
1.5033691406249998
1.50498046875
1.52109375
1.5001464843749999
1.4961181640624999
1.4961181640624999
1.490478515625
1.490478515625
1.4912841796874998
1.4961181640624999
1.4928955078125
2.43310546875
1.45341796875
1.480810546875
1.5194824218749998
1.4332763671875
1.3704345703124998
1.1561279296875
1.2270263671875
1.30517578125
1.44052734375
1.474365234375
1.4928955078125
1.46630859375
1.5726562499999999
1.5347900390625
1.5355957031249998
1.5364013671874999
1.533984375
1.5315673828124998
1.5396240234374998
1.5218994140625
0.5067626953125
1.5919921874999998
1.5839355468749998
1.5283447265624999
1.585546875
1.6878662109375
1.9875732421874999
2.09150390625
1.603271484375
1.51787109375
1.5025634765625
1.496923828125
1.5235107421874998
1.4880615234374999
1.4920898437499999
1.496923828125
1.49853515625
1.490478515625
1.4953124999999998
1.496923828125
1.496923828125
2.3001708984375
1.7208984374999998
1.477587890625
1.5299560546875
1.4590576171874998
1.3583496093749998
1.1923828125
1.184326171875
1.2640869140625
1.4308593749999998
1.4622802734375
1.490478515625
1.47275390625
1.5678222656249998
1.5331787109375
1.5299560546875
1.53076171875
1.53720703125
1.5412353515625
1.5347900390625
1.5073974609374998
0.6904541015625
1.2584472656249999
1.5734619140625
1.5033691406249998
1.5645996093749999
1.6951171875
1.764404296875
2.2888916015625
1.7184814453125
1.5251220703125
1.5162597656249999
1.4993408203124998
1.5073974609374998
1.4711425781249998
1.5122314453124999
1.4920898437499999
1.4872558593749998
1.4945068359375
1.4888671875
1.5033691406249998
1.4896728515625
1.5992431640625
1.7724609375
1.4203857421875
1.5041748046874999
1.4687255859375
1.3172607421875
1.29228515625
1.052197265625
1.26005859375
1.4042724609375
1.464697265625
1.490478515625
1.4711425781249998
1.5283447265624999
1.5476806640624998
1.5436523437499998
1.5315673828124998
1.5331787109375
1.5323730468749999
1.5251220703125
1.5162597656249999
0.791162109375
1.187548828125
1.6508056640625
1.5251220703125
1.5678222656249998
1.683837890625
1.7047851562499998
2.27841796875
1.7249267578124998
1.5412353515625
1.5082031249999999
1.506591796875
1.506591796875
1.5194824218749998
1.4953124999999998
1.4840332031249999
1.4953124999999998
1.4945068359375
1.490478515625
1.5001464843749999
1.5017578125
1.533984375
2.254248046875
1.4107177734374998
1.509814453125
1.5154541015624998
1.4115234374999999
1.3067871093749999
1.02802734375
1.229443359375
1.3494873046875
1.4630859374999998
1.482421875
1.4832275390624998
1.4711425781249998
1.56298828125
1.538818359375
1.5347900390625
1.5243164062499999
1.5347900390625
1.5251220703125
1.53076171875
1.477587890625
0.6775634765624999
1.6379150390625
1.513037109375
1.5243164062499999
1.6089111328124999
1.6943115234375
2.1325927734375
1.948095703125
1.574267578125
1.5146484375
1.5082031249999999
1.5017578125
1.5122314453124999
1.4993408203124998
1.496923828125
1.477587890625
1.493701171875
1.4920898437499999
1.4888671875
1.5082031249999999
1.4945068359375
2.4516357421875
1.4219970703125
1.493701171875
1.5283447265624999
1.4244140625
1.3623779296874998
1.0223876953125
1.2503906249999999
1.3261230468749998
1.46953125
1.45341796875
1.4961181640624999
1.456640625
1.561376953125
1.5299560546875
1.5364013671874999
1.5444580078124999
1.542041015625
1.529150390625
1.5251220703125
1.5033691406249998
0.6832031249999999
1.6411376953124999
1.5734619140625
1.5218994140625
1.6105224609375
1.65
2.13984375
1.7829345703125
1.5476806640624998
1.5162597656249999
1.5017578125
1.490478515625
1.5186767578125
1.480810546875
1.49853515625
1.4783935546875
1.482421875
1.490478515625
1.49853515625
1.5057861328125
1.4912841796874998
2.41376953125
1.5992431640625
1.4332763671875
1.513037109375
1.4735595703125
1.3559326171875
1.044140625
1.2270263671875
1.2584472656249999
1.409912109375
1.4590576171874998
1.49853515625
1.4703369140625
1.5662109375
1.5283447265624999
1.5331787109375
1.53076171875
1.5299560546875
1.5235107421874998
1.529150390625
1.513037109375
0.5438232421875
1.4187744140624998
1.6153564453125
1.5170654296875
1.5815185546875
1.7039794921875
1.8369140625
2.20751953125
1.635498046875
1.5202880859374999
1.50498046875
1.4945068359375
1.49853515625
1.4791992187499998
1.5082031249999999
1.5057861328125
1.4945068359375
1.4912841796874998
1.4872558593749998
1.4912841796874998
1.4920898437499999
1.8095214843749998
2.022216796875
1.4276367187499999
1.509814453125
1.4961181640624999
1.329345703125
1.2890625
1.15048828125
1.2374999999999998
1.4107177734374998
1.464697265625
1.46630859375
1.4671142578124998
1.545263671875
1.5380126953125
1.5315673828124998
1.53720703125
1.5355957031249998
1.5347900390625
1.5315673828124998
1.5146484375
1.1375976562499999
1.33740234375
1.6371093749999999
1.5194824218749998
1.542041015625
1.7007568359374998
1.7023681640625
2.3138671875
1.6435546875
1.5347900390625
1.5170654296875
1.493701171875
1.50498046875
1.50498046875
1.493701171875
1.4961181640624999
1.4864501953125
1.4800048828124999
1.496923828125
1.5025634765625
1.5122314453124999
1.6967285156249998
2.0979492187499997
1.416357421875
1.4912841796874998
1.4928955078125
1.3704345703124998
1.3430419921874999
1.1545166015625
1.229443359375
1.3575439453125
1.4655029296875
1.4767822265625
1.4961181640624999
1.490478515625
1.545263671875
1.53720703125
1.53720703125
1.5355957031249998
1.53076171875
1.5235107421874998
1.533984375
1.2495849609374998
0.8548095703124999
1.6717529296875
1.5275390624999998
1.545263671875
1.6201904296874998
1.6540283203125
2.2776123046875
1.8175781249999998
1.561376953125
1.5122314453124999
1.4928955078125
1.4953124999999998
1.5025634765625
1.496923828125
1.4912841796874998
1.5057861328125
1.482421875
1.477587890625
1.4953124999999998
1.5057861328125
1.4880615234374999
2.4548583984375
1.4252197265625
1.5073974609374998
1.50498046875
1.42119140625
1.3551269531249999
0.9893554687499999
1.2310546875
1.3422363281249998
1.4598632812499999
1.4671142578124998
1.5057861328125
1.490478515625
1.5734619140625
1.5509033203125
1.545263671875
1.529150390625
1.51787109375
1.5243164062499999
1.5331787109375
1.5202880859374999
0.4970947265625
1.6620849609375
1.53720703125
1.5170654296875
1.5968261718749999
1.6371093749999999
2.07861328125
2.035107421875
1.5509033203125
1.5243164062499999
1.5073974609374998
1.5194824218749998
1.53720703125
1.4872558593749998
1.51787109375
1.4542236328125
1.482421875
1.5090087890625
1.5090087890625
1.5146484375
1.4920898437499999
2.487890625
1.5001464843749999
1.429248046875
1.5283447265624999
1.48564453125
1.3333740234375
1.1512939453125
1.2318603515625
1.297119140625
1.445361328125
1.448583984375
1.4783935546875
1.4477783203124999
1.571044921875
1.5251220703125
1.5235107421874998
1.5436523437499998
1.5573486328125
1.5557373046874998
1.5347900390625
1.5017578125
0.49951171875
1.525927734375
1.6234130859375
1.5428466796875
1.5847412109374999
1.6886718749999998
1.7297607421874999
2.1325927734375
1.587158203125
1.5331787109375
1.5162597656249999
1.4800048828124999
1.474365234375
1.5025634765625
1.493701171875
1.4928955078125
1.461474609375
1.5275390624999998
1.4800048828124999
1.5073974609374998
1.4896728515625
2.0294677734374997
