1.3905761718749998
1.3792968749999999
1.377685546875
1.4058837890625
1.4518066406249999
1.413134765625
1.4074951171874999
1.3962158203125
1.3897705078125
1.36962890625
1.3527099609375
1.40185546875
1.400244140625
1.38896484375
1.3986328124999998
1.3954101562499999
1.3825195312499998
1.393798828125
1.42119140625
1.3736572265625
1.3559326171875
1.3502929687499998
1.340625
1.3365966796875
1.3365966796875
1.3059814453124998
1.2777832031249998
1.3285400390625
1.3333740234375
1.3204833984375
1.3317626953125
1.3551269531249999
1.32451171875
1.33740234375
1.3285400390625
1.332568359375
1.348681640625
1.3261230468749998
1.3301513671874998
1.3446533203125
1.3502929687499998
1.3728515625
1.3583496093749998
1.3857421875
1.405078125
1.409912109375
1.377685546875
1.4510009765624998
1.3792968749999999
1.3728515625
1.3817138671875
1.37607421875
1.3913818359374999
1.353515625
1.397021484375
1.4155517578124999
1.3728515625
1.3656005859375
1.361572265625
1.4042724609375
1.3784912109374998
1.364794921875
1.3551269531249999
1.34384765625
1.319677734375
1.32451171875
1.3229003906249999
1.3261230468749998
1.2737548828124998
1.335791015625
1.329345703125
1.3301513671874998
1.3188720703124999
1.3204833984375
1.3148437499999999
1.3253173828125
1.3446533203125
1.327734375
1.340625
1.3382080078124998
1.332568359375
1.32451171875
1.35673828125
1.3623779296874998
1.368017578125
1.3849365234375
1.3921875
1.3946044921874998
1.4228027343749998
1.4389160156249998
1.400244140625
1.4026611328124998
1.38896484375
1.3688232421875
1.3857421875
1.3817138671875
1.3962158203125
1.3881591796875
1.3994384765624999
1.3825195312499998
1.380908203125
1.3929931640625
1.3792968749999999
1.368017578125
1.35673828125
1.3631835937499999
1.3422363281249998
1.3261230468749998
1.3349853515624999
1.3237060546875
1.26328125
1.2979248046874998
1.3269287109374999
1.319677734375
1.3341796874999998
1.335791015625
1.3333740234375
1.34384765625
1.3382080078124998
1.353515625
1.3470703124999999
1.3341796874999998
1.3269287109374999
1.335791015625
1.3575439453125
1.3865478515624998
1.3744628906249998
1.377685546875
1.397021484375
1.3994384765624999
1.397021484375
1.45341796875
1.380908203125
1.3720458984375
1.3986328124999998
1.3833251953124999
1.3857421875
1.36962890625
1.405078125
1.4010498046875
1.3905761718749998
1.3768798828125
1.393798828125
1.3873535156249999
1.3986328124999998
1.3817138671875
1.3607666015625
1.3527099609375
1.34384765625
1.3422363281249998
1.3382080078124998
1.32451171875
1.2673095703125
1.3140380859374998
1.3237060546875
1.3220947265624998
1.3269287109374999
1.332568359375
1.3462646484374998
1.332568359375
1.33740234375
1.3478759765625
1.3575439453125
1.340625
1.3229003906249999
1.3341796874999998
1.353515625
1.3639892578125
1.3607666015625
1.3720458984375
1.384130859375
1.3913818359374999
1.3897705078125
1.448583984375
1.42119140625
1.397021484375
1.38896484375
1.3897705078125
1.3825195312499998
1.3527099609375
1.40185546875
1.3881591796875
1.384130859375
1.3825195312499998
1.3833251953124999
1.3986328124999998
1.3986328124999998
1.3712402343749999
1.3639892578125
1.3494873046875
1.3551269531249999
1.34384765625
1.3172607421875
1.3229003906249999
1.287451171875
1.2938964843749998
1.3220947265624998
1.3083984375
1.3744628906249998
1.345458984375
1.345458984375
1.2963134765625
1.3333740234375
1.3365966796875
1.3092041015625
1.3382080078124998
1.3414306640625
1.3333740234375
1.3543212890624998
1.35673828125
1.380908203125
1.3736572265625
1.3857421875
1.3962158203125
1.400244140625
1.429248046875
1.4147460937499998
1.3905761718749998
1.3881591796875
1.377685546875
1.40185546875
1.3543212890624998
1.3986328124999998
1.3962158203125
1.3905761718749998
1.397021484375
1.3905761718749998
1.3817138671875
1.4042724609375
1.3849365234375
1.345458984375
1.348681640625
1.3502929687499998
1.335791015625
1.332568359375
1.33740234375
1.3140380859374998
1.2963134765625
1.3269287109374999
1.316455078125
1.3317626953125
1.3382080078124998
1.3317626953125
1.3261230468749998
1.319677734375
1.3285400390625
1.348681640625
1.3430419921874999
1.3285400390625
1.3414306640625
1.335791015625
1.3736572265625
1.35673828125
1.37607421875
1.3881591796875
1.3792968749999999
1.3905761718749998
1.4147460937499998
1.4389160156249998
1.393798828125
1.400244140625
1.3817138671875
1.3768798828125
1.364794921875
1.3752685546874999
1.4091064453125
1.3913818359374999
1.3792968749999999
1.3833251953124999
1.3954101562499999
1.3962158203125
1.3833251953124999
1.3494873046875
1.3527099609375
1.3551269531249999
1.3365966796875
1.329345703125
1.332568359375
1.3204833984375
1.2745605468749999
1.3212890625
1.3204833984375
1.3140380859374998
1.3212890625
1.3204833984375
1.3317626953125
1.287451171875
1.31162109375
1.3269287109374999
1.3317626953125
1.345458984375
1.327734375
1.3430419921874999
1.3551269531249999
1.361572265625
1.3575439453125
1.400244140625
1.3857421875
1.40185546875
1.4091064453125
1.4364990234375
1.400244140625
1.3962158203125
1.3833251953124999
1.3792968749999999
1.3728515625
1.400244140625
1.400244140625
1.3994384765624999
1.3784912109374998
1.3792968749999999
1.4042724609375
1.384130859375
1.3833251953124999
1.3543212890624998
1.3446533203125
1.3462646484374998
1.3430419921874999
1.327734375
1.3317626953125
1.3124267578125
1.3204833984375
1.3261230468749998
1.3092041015625
1.327734375
1.327734375
1.313232421875
1.3301513671874998
1.327734375
1.3430419921874999
1.3349853515624999
1.3510986328124999
1.3430419921874999
1.3333740234375
1.3212890625
1.361572265625
1.3656005859375
1.3825195312499998
1.3881591796875
1.3986328124999998
1.4010498046875
1.3921875
1.4558349609374999
1.3865478515624998
1.4115234374999999
1.3801025390625
1.3873535156249999
1.3873535156249999
1.3744628906249998
1.40830078125
1.4010498046875
1.393798828125
1.3905761718749998
1.3736572265625
1.3954101562499999
1.3962158203125
1.3825195312499998
1.351904296875
1.3510986328124999
1.3309570312499999
1.329345703125
1.3220947265624998
1.3180664062499998
1.268115234375
1.3148437499999999
1.316455078125
1.3237060546875
1.3317626953125
1.3470703124999999
1.3341796874999998
1.3188720703124999
1.34384765625
1.335791015625
1.3349853515624999
1.329345703125
1.3559326171875
1.3229003906249999
1.348681640625
1.3623779296874998
1.393798828125
1.3817138671875
1.3801025390625
1.3921875
1.3881591796875
1.4606689453125
1.405078125
1.3857421875
1.397021484375
1.3744628906249998
1.4107177734374998
1.3575439453125
1.397021484375
1.3913818359374999
1.3897705078125
1.3978271484375
1.3784912109374998
1.38896484375
1.38896484375
1.3672119140624999
1.3607666015625
1.3623779296874998
1.3543212890624998
1.3462646484374998
1.32451171875
1.319677734375
1.3019531249999998
1.2979248046874998
1.329345703125
1.3212890625
1.335791015625
1.332568359375
1.32451171875
1.329345703125
1.3446533203125
1.3478759765625
1.3285400390625
1.329345703125
1.340625
1.3019531249999998
1.3446533203125
1.3639892578125
1.3744628906249998
1.3954101562499999
1.4066894531249998
1.3801025390625
1.3857421875
1.4332763671875
1.413134765625
1.3817138671875
1.3905761718749998
1.3881591796875
1.3833251953124999
1.3551269531249999
1.3784912109374998
1.3833251953124999
1.3881591796875
1.3897705078125
1.3865478515624998
1.400244140625
1.3865478515624998
1.3873535156249999
1.361572265625
1.3639892578125
1.3422363281249998
1.345458984375
1.316455078125
1.3204833984375
1.300341796875
1.2721435546875
1.332568359375
1.3172607421875
1.3269287109374999
1.3349853515624999
1.3478759765625
1.32451171875
1.3301513671874998
1.2866455078124999
1.348681640625
1.353515625
1.3180664062499998
1.3229003906249999
1.3067871093749999
1.36962890625
1.37607421875
1.380908203125
1.3430419921874999
1.38896484375
1.40185546875
1.4236083984374999
1.4195800781249999
1.353515625
1.4042724609375
1.377685546875
1.361572265625
1.3583496093749998
1.3913818359374999
1.4010498046875
1.397021484375
1.3897705078125
1.3946044921874998
1.38896484375
1.3849365234375
1.3744628906249998
1.3688232421875
1.351904296875
1.345458984375
1.3382080078124998
1.3124267578125
1.3188720703124999
1.3124267578125
1.27939453125
1.32451171875
1.3212890625
1.3309570312499999
1.3269287109374999
1.3212890625
1.3269287109374999
1.327734375
1.3261230468749998
1.3390136718749999
1.3382080078124998
1.345458984375
1.3148437499999999
1.3333740234375
1.3478759765625
1.3631835937499999
1.37607421875
1.3881591796875
1.3913818359374999
1.4147460937499998
1.4066894531249998
1.413134765625
1.368017578125
1.3833251953124999
1.3784912109374998
1.405078125
1.3784912109374998
1.3591552734374999
1.40185546875
1.3784912109374998
1.3929931640625
1.397021484375
1.38896484375
1.3905761718749998
1.3921875
1.3599609375
1.353515625
1.3446533203125
1.335791015625
1.3269287109374999
1.3261230468749998
1.3172607421875
1.27294921875
1.3365966796875
1.3341796874999998
1.3204833984375
1.3253173828125
1.332568359375
1.3285400390625
1.3414306640625
1.3390136718749999
1.3341796874999998
1.3140380859374998
1.3349853515624999
1.3317626953125
1.3341796874999998
1.3583496093749998
1.3784912109374998
1.368017578125
1.3792968749999999
1.4155517578124999
1.3825195312499998
1.405078125
1.4397216796874999
1.3986328124999998
1.397021484375
1.3873535156249999
1.3857421875
1.3736572265625
1.3688232421875
1.4026611328124998
1.4034667968749999
1.3913818359374999
1.3881591796875
1.3873535156249999
1.3817138671875
1.3962158203125
1.3664062499999998
1.3559326171875
1.348681640625
1.3333740234375
1.332568359375
1.3220947265624998
1.335791015625
1.287451171875
1.3011474609375
1.329345703125
1.3237060546875
1.3382080078124998
1.3333740234375
1.3414306640625
1.3309570312499999
1.3414306640625
1.340625
1.3430419921874999
1.3527099609375
1.3390136718749999
1.332568359375
1.3462646484374998
1.368017578125
1.3784912109374998
1.3825195312499998
1.3986328124999998
1.393798828125
1.4026611328124998
1.4791992187499998
1.3583496093749998
1.3833251953124999
1.3744628906249998
1.3865478515624998
1.3857421875
1.3559326171875
1.3994384765624999
1.3954101562499999
1.4034667968749999
1.384130859375
1.3736572265625
1.4034667968749999
1.3921875
1.3623779296874998
1.3575439453125
1.3502929687499998
1.353515625
1.3229003906249999
1.3261230468749998
1.3212890625
1.2930908203125
1.2866455078124999
1.3269287109374999
1.3237060546875
1.3253173828125
1.3229003906249999
1.3140380859374998
1.3349853515624999
1.3309570312499999
1.3543212890624998
1.3422363281249998
1.3333740234375
1.3390136718749999
1.3180664062499998
1.3551269531249999
1.364794921875
1.3607666015625
1.3849365234375
1.3921875
1.3921875
1.3897705078125
1.4276367187499999
1.4316650390624999
1.38896484375
1.3873535156249999
1.37607421875
1.3881591796875
1.3768798828125
1.3768798828125
1.3873535156249999
1.380908203125
1.3929931640625
1.3913818359374999
1.3470703124999999
1.3929931640625
1.3768798828125
1.3494873046875
1.3390136718749999
1.3502929687499998
1.3301513671874998
1.3180664062499998
1.319677734375
1.2963134765625
1.2802001953125
1.3156494140625
1.316455078125
1.319677734375
1.329345703125
1.3204833984375
1.3229003906249999
1.3285400390625
1.3349853515624999
1.3382080078124998
1.3317626953125
1.3365966796875
1.3237060546875
1.3510986328124999
1.3752685546874999
1.3664062499999998
1.3575439453125
1.40185546875
1.3897705078125
1.3913818359374999
1.4091064453125
1.4308593749999998
1.4058837890625
1.3849365234375
1.3946044921874998
1.3728515625
1.3664062499999998
1.3897705078125
1.3994384765624999
1.3905761718749998
1.3946044921874998
1.3849365234375
1.377685546875
1.397021484375
1.3905761718749998
1.348681640625
1.3607666015625
1.3623779296874998
1.3430419921874999
1.3261230468749998
1.316455078125
1.316455078125
1.2802001953125
1.32451171875
1.3237060546875
1.3083984375
1.3309570312499999
1.3398193359375
1.3172607421875
1.3382080078124998
1.3317626953125
1.3430419921874999
1.32451171875
1.3333740234375
1.3349853515624999
1.3349853515624999
1.3462646484374998
1.3599609375
1.3833251953124999
1.3728515625
1.4026611328124998
1.4066894531249998
1.4195800781249999
1.4501953125
1.3865478515624998
1.3833251953124999
1.3825195312499998
1.3849365234375
1.3929931640625
1.3712402343749999
1.3978271484375
1.40185546875
1.3817138671875
1.3929931640625
1.3913818359374999
1.3954101562499999
1.3833251953124999
1.3599609375
1.3446533203125
1.3527099609375
1.3430419921874999
1.335791015625
1.340625
1.3285400390625
1.2665039062499999
1.313232421875
1.3341796874999998
1.3220947265624998
1.3172607421875
1.3253173828125
1.3204833984375
1.3422363281249998
1.34384765625
1.348681640625
1.3349853515624999
1.335791015625
1.3253173828125
1.327734375
1.3639892578125
1.364794921875
1.3575439453125
1.3833251953124999
1.3978271484375
1.3994384765624999
1.4010498046875
1.4526123046875
1.3752685546874999
1.3905761718749998
1.3728515625
1.3921875
1.384130859375
1.3712402343749999
1.4026611328124998
1.3962158203125
1.3929931640625
1.3978271484375
1.3825195312499998
1.3929931640625
1.3954101562499999
1.368017578125
1.3470703124999999
1.34384765625
1.3422363281249998
1.33740234375
1.32451171875
1.3237060546875
1.2818115234374998
1.319677734375
1.3253173828125
1.3253173828125
1.319677734375
1.3349853515624999
1.32451171875
1.3414306640625
1.3333740234375
1.3446533203125
1.3382080078124998
1.3317626953125
1.332568359375
1.332568359375
1.3059814453124998
1.3664062499999998
1.3502929687499998
1.37607421875
1.4066894531249998
1.38896484375
1.4042724609375
1.4252197265625
1.4139404296875
1.3873535156249999
1.3921875
1.38896484375
1.38896484375
1.3672119140624999
1.4115234374999999
1.3897705078125
1.3865478515624998
1.397021484375
1.3736572265625
1.3817138671875
1.4042724609375
1.361572265625
1.3543212890624998
1.3857421875
1.368017578125
1.3341796874999998
1.3172607421875
1.3188720703124999
1.2938964843749998
1.2850341796875
1.2826171874999999
1.3261230468749998
1.3180664062499998
1.3341796874999998
1.3414306640625
1.3220947265624998
1.3269287109374999
1.3478759765625
1.3390136718749999
1.3510986328124999
1.3382080078124998
1.3309570312499999
1.3317626953125
1.3792968749999999
1.3623779296874998
1.35673828125
1.384130859375
1.38896484375
1.3962158203125
1.4364990234375
1.4389160156249998
1.4042724609375
1.393798828125
1.3792968749999999
1.377685546875
1.377685546875
1.3865478515624998
1.4123291015625
1.38896484375
1.3817138671875
1.3728515625
1.3792968749999999
1.380908203125
1.3801025390625
1.3672119140624999
1.3510986328124999
1.3349853515624999
1.3446533203125
1.327734375
1.3309570312499999
1.3100097656249998
1.3229003906249999
1.3261230468749998
1.3172607421875
1.3422363281249998
1.2955078125
1.361572265625
1.3333740234375
1.3390136718749999
1.340625
1.332568359375
1.3309570312499999
1.340625
1.3180664062499998
1.3285400390625
1.3728515625
1.351904296875
1.3768798828125
1.397021484375
1.3954101562499999
1.3954101562499999
1.4219970703125
1.426025390625
1.37607421875
1.38896484375
1.3921875
1.3720458984375
1.3744628906249998
1.3817138671875
1.3929931640625
1.3897705078125
1.400244140625
1.380908203125
1.3784912109374998
1.3768798828125
1.3849365234375
1.3559326171875
1.3664062499999998
1.3478759765625
1.3398193359375
1.3269287109374999
1.3317626953125
1.2947021484374999
1.2592529296875
1.3083984375
1.3261230468749998
1.3470703124999999
1.3309570312499999
1.3253173828125
1.3067871093749999
1.3333740234375
1.3341796874999998
1.3261230468749998
1.34384765625
1.3285400390625
1.3309570312499999
1.3382080078124998
1.361572265625
1.3623779296874998
1.37607421875
1.3728515625
1.3921875
1.3873535156249999
1.4034667968749999
1.4518066406249999
1.4026611328124998
1.384130859375
1.3801025390625
1.3801025390625
1.3873535156249999
1.3607666015625
1.3954101562499999
1.405078125
1.38896484375
1.3792968749999999
1.3921875
1.3865478515624998
1.384130859375
1.3591552734374999
1.3462646484374998
1.34384765625
1.353515625
1.3261230468749998
1.3341796874999998
1.3108154296874999
1.2495849609374998
1.3180664062499998
1.3229003906249999
1.3237060546875
1.3229003906249999
1.3261230468749998
1.3253173828125
1.3229003906249999
1.319677734375
1.3502929687499998
1.3349853515624999
1.3502929687499998
1.3309570312499999
1.3365966796875
1.35673828125
1.3631835937499999
1.3414306640625
1.3664062499999998
1.3865478515624998
1.4066894531249998
1.4074951171874999
1.4389160156249998
1.3873535156249999
1.37607421875
1.3865478515624998
1.384130859375
1.3825195312499998
1.3664062499999998
1.4066894531249998
1.3897705078125
1.3825195312499998
1.38896484375
1.3905761718749998
1.3833251953124999
1.3946044921874998
1.3583496093749998
1.3414306640625
1.3430419921874999
1.3446533203125
1.3414306640625
1.34384765625
1.3341796874999998
1.2890625
1.2979248046874998
1.3172607421875
1.3470703124999999
1.3341796874999998
1.3204833984375
1.3390136718749999
1.30517578125
1.3301513671874998
1.3333740234375
1.3349853515624999
1.3261230468749998
1.3365966796875
1.335791015625
1.3502929687499998
1.368017578125
1.3768798828125
1.377685546875
1.3801025390625
1.3921875
1.400244140625
1.445361328125
1.4026611328124998
1.3881591796875
1.3873535156249999
1.3768798828125
1.36962890625
1.3543212890624998
1.3954101562499999
1.3962158203125
1.3986328124999998
1.3833251953124999
1.3817138671875
1.3946044921874998
1.4010498046875
1.36962890625
1.3559326171875
1.3712402343749999
1.3502929687499998
1.3108154296874999
1.3382080078124998
1.316455078125
1.264892578125
1.2955078125
1.3285400390625
1.3220947265624998
1.319677734375
1.329345703125
1.3478759765625
1.31162109375
1.3446533203125
1.3382080078124998
1.340625
1.3462646484374998
1.3309570312499999
1.3204833984375
1.3462646484374998
1.3543212890624998
1.3631835937499999
1.380908203125
1.3623779296874998
1.4010498046875
1.3817138671875
1.43408203125
1.4413330078125
1.38896484375
1.3752685546874999
1.3817138671875
1.3792968749999999
1.384130859375
1.3768798828125
1.4026611328124998
1.3905761718749998
1.3583496093749998
1.3857421875
1.384130859375
1.40185546875
1.3833251953124999
1.3575439453125
1.3494873046875
1.3414306640625
1.335791015625
1.3309570312499999
1.3349853515624999
1.3067871093749999
1.2673095703125
1.313232421875
1.3317626953125
1.3172607421875
1.3365966796875
1.3301513671874998
1.3333740234375
1.3220947265624998
1.3470703124999999
1.3317626953125
1.327734375
1.3341796874999998
1.3349853515624999
1.3349853515624999
1.3639892578125
1.3752685546874999
1.35673828125
1.3825195312499998
1.384130859375
1.4034667968749999
1.4010498046875
1.4389160156249998
1.4058837890625
1.397021484375
1.3929931640625
1.3873535156249999
1.368017578125
1.3712402343749999
1.3954101562499999
1.3736572265625
1.3833251953124999
1.37607421875
1.4026611328124998
1.3897705078125
1.377685546875
1.3688232421875
1.340625
1.3462646484374998
1.3333740234375
1.3333740234375
1.332568359375
1.316455078125
1.2584472656249999
1.3124267578125
1.3333740234375
1.3229003906249999
1.3083984375
1.3180664062499998
1.3285400390625
1.32451171875
1.3333740234375
1.3301513671874998
1.3422363281249998
1.3510986328124999
1.3285400390625
1.3148437499999999
1.3543212890624998
1.364794921875
1.3728515625
1.397021484375
1.3929931640625
1.4074951171874999
1.4123291015625
1.4381103515625
1.3962158203125
1.3752685546874999
1.384130859375
1.3873535156249999
1.3913818359374999
1.3583496093749998
1.3865478515624998
1.3994384765624999
1.38896484375
1.3921875
1.3817138671875
1.3857421875
1.393798828125
1.3591552734374999
1.353515625
1.340625
1.3510986328124999
1.3220947265624998
1.3204833984375
1.3172607421875
1.2866455078124999
1.316455078125
1.3414306640625
1.327734375
1.3269287109374999
1.3341796874999998
1.335791015625
1.3140380859374998
1.3390136718749999
1.3382080078124998
1.3365966796875
1.3494873046875
1.3180664062499998
1.3253173828125
1.3462646484374998
1.3720458984375
1.3688232421875
1.3502929687499998
1.3946044921874998
1.3728515625
1.3865478515624998
1.4445556640625
1.4123291015625
1.40185546875
1.4010498046875
1.3752685546874999
1.3784912109374998
1.34384765625
1.3978271484375
1.393798828125
1.3849365234375
1.384130859375
1.4010498046875
1.400244140625
1.38896484375
1.3712402343749999
1.3639892578125
1.3527099609375
1.3349853515624999
1.3261230468749998
1.3180664062499998
1.3043701171875
1.281005859375
1.30517578125
1.329345703125
1.3333740234375
1.3341796874999998
1.3253173828125
1.3253173828125
1.3285400390625
1.3204833984375
1.34384765625
1.3502929687499998
1.3462646484374998
1.3510986328124999
1.3333740234375
1.3591552734374999
1.37607421875
1.3720458984375
1.384130859375
1.384130859375
1.4139404296875
1.4058837890625
1.4203857421875
1.4107177734374998
1.3664062499999998
1.3559326171875
1.3849365234375
1.3929931640625
1.3857421875
1.41796875
1.3792968749999999
1.3527099609375
1.3591552734374999
1.3664062499999998
1.3664062499999998
1.3873535156249999
1.3962158203125
1.3470703124999999
1.3543212890624998
1.32451171875
1.3188720703124999
1.34384765625
1.3333740234375
1.3390136718749999
1.303564453125
1.319677734375
1.3043701171875
1.3156494140625
1.3309570312499999
1.3309570312499999
1.3180664062499998
1.3100097656249998
1.32451171875
1.3156494140625
1.3309570312499999
1.3510986328124999
1.3204833984375
1.3543212890624998
1.3962158203125
1.3744628906249998
1.3728515625
1.3688232421875
1.4034667968749999
1.4042724609375
1.4373046875
1.4203857421875
1.384130859375
1.377685546875
1.3664062499999998
1.377685546875
1.3631835937499999
1.3857421875
1.3962158203125
1.377685546875
1.3913818359374999
1.3954101562499999
1.3857421875
1.4074951171874999
1.3986328124999998
1.3502929687499998
1.345458984375
1.332568359375
1.3341796874999998
1.313232421875
1.3124267578125
1.2995361328125
1.2834228515625
1.3309570312499999
1.3172607421875
1.3269287109374999
1.3430419921874999
1.3365966796875
1.327734375
1.3269287109374999
1.3317626953125
1.3478759765625
1.332568359375
1.332568359375
1.329345703125
1.3414306640625
1.3543212890624998
1.3607666015625
1.3656005859375
1.380908203125
1.3913818359374999
1.397021484375
1.4155517578124999
1.4316650390624999
1.3954101562499999
1.3865478515624998
1.38896484375
1.3607666015625
1.37607421875
1.3720458984375
1.38896484375
1.40185546875
1.3736572265625
1.3752685546874999
1.3712402343749999
1.380908203125
1.3784912109374998
1.345458984375
1.3583496093749998
1.3543212890624998
1.3261230468749998
1.327734375
1.3059814453124998
1.3059814453124998
1.2431396484375
1.313232421875
1.3285400390625
1.3188720703124999
1.3188720703124999
1.33740234375
1.3172607421875
1.327734375
1.3212890625
1.3446533203125
1.353515625
1.3470703124999999
1.3333740234375
1.3269287109374999
1.368017578125
1.361572265625
1.36962890625
1.3801025390625
1.3897705078125
1.3873535156249999
1.4034667968749999
1.4550292968749998
1.40830078125
1.3946044921874998
1.3849365234375
1.3986328124999998
1.3623779296874998
1.351904296875
1.3962158203125
1.3946044921874998
1.3913818359374999
1.37607421875
1.3865478515624998
1.3905761718749998
1.3784912109374998
1.361572265625
1.3583496093749998
1.3390136718749999
1.34384765625
1.3220947265624998
1.3140380859374998
1.332568359375
1.2656982421874998
1.3156494140625
1.327734375
1.32451171875
1.327734375
1.34384765625
1.3229003906249999
1.327734375
1.32451171875
1.3398193359375
1.3430419921874999
1.332568359375
1.32451171875
1.3180664062499998
1.3736572265625
1.3478759765625
1.3414306640625
1.3365966796875
1.3704345703124998
1.393798828125
1.397021484375
1.4550292968749998
1.4147460937499998
1.3865478515624998
1.3704345703124998
1.3664062499999998
1.36962890625
1.3639892578125
1.4147460937499998
1.3962158203125
1.3784912109374998
1.384130859375
1.3825195312499998
1.3873535156249999
1.3921875
1.3494873046875
1.3591552734374999
1.34384765625
1.316455078125
1.3422363281249998
1.3478759765625
1.329345703125
1.2777832031249998
1.276171875
1.3212890625
1.332568359375
1.3261230468749998
1.3100097656249998
1.2906738281249999
1.3261230468749998
1.3309570312499999
1.3188720703124999
1.3220947265624998
1.340625
1.34384765625
1.3446533203125
1.3390136718749999
1.3639892578125
1.400244140625
1.4195800781249999
1.4244140625
1.4091064453125
1.3551269531249999
1.4171630859375
1.3986328124999998
1.3664062499999998
1.3720458984375
1.368017578125
1.3929931640625
1.364794921875
1.4034667968749999
1.400244140625
1.380908203125
1.3986328124999998
1.3905761718749998
1.3849365234375
1.3962158203125
1.3752685546874999
1.3317626953125
1.3309570312499999
1.340625
1.3301513671874998
1.32451171875
1.3382080078124998
1.3100097656249998
1.3059814453124998
1.3253173828125
1.335791015625
1.327734375
1.3301513671874998
1.3333740234375
1.31162109375
1.3261230468749998
1.33740234375
1.3253173828125
1.3333740234375
1.3398193359375
1.3341796874999998
1.329345703125
1.3462646484374998
1.3833251953124999
1.368017578125
1.393798828125
1.3833251953124999
1.3744628906249998
1.4381103515625
1.4381103515625
1.4034667968749999
1.3583496093749998
1.3825195312499998
1.38896484375
1.377685546875
1.3599609375
1.4074951171874999
1.3768798828125
1.3946044921874998
1.3897705078125
1.3857421875
1.3873535156249999
1.3736572265625
1.3583496093749998
1.34384765625
1.3261230468749998
1.3494873046875
1.32451171875
1.3237060546875
1.3180664062499998
1.284228515625
1.3317626953125
1.3269287109374999
1.3301513671874998
1.3261230468749998
1.3333740234375
1.2979248046874998
1.353515625
1.32451171875
1.3341796874999998
1.3470703124999999
1.3261230468749998
1.3253173828125
1.3365966796875
1.3446533203125
1.3631835937499999
1.377685546875
1.3825195312499998
1.3962158203125
1.400244140625
1.4195800781249999
1.4381103515625
1.3994384765624999
1.3768798828125
1.3631835937499999
1.3833251953124999
1.3744628906249998
1.364794921875
1.3978271484375
1.351904296875
1.4042724609375
1.3929931640625
1.3921875
1.3962158203125
1.3792968749999999
1.3559326171875
1.3430419921874999
1.361572265625
1.3333740234375
1.329345703125
1.332568359375
1.3220947265624998
1.2656982421874998
1.3180664062499998
1.3140380859374998
1.3237060546875
1.3261230468749998
1.332568359375
1.3229003906249999
1.3317626953125
1.335791015625
1.340625
1.3446533203125
1.3398193359375
1.3365966796875
1.313232421875
1.3478759765625
1.3124267578125
1.3825195312499998
1.3801025390625
1.3801025390625
1.393798828125
1.393798828125
1.4638916015624999
1.4034667968749999
1.4034667968749999
1.3929931640625
1.36962890625
1.35673828125
1.3543212890624998
1.4107177734374998
1.4147460937499998
1.3849365234375
1.3994384765624999
1.3833251953124999
1.3784912109374998
1.3744628906249998
1.361572265625
1.35673828125
1.3414306640625
1.340625
1.3229003906249999
1.319677734375
1.3156494140625
1.2665039062499999
1.2938964843749998
1.327734375
1.30517578125
1.3317626953125
1.335791015625
1.3430419921874999
1.3390136718749999
1.340625
1.33740234375
1.329345703125
1.3382080078124998
1.3390136718749999
1.3148437499999999
1.3470703124999999
1.3664062499999998
1.3639892578125
1.3905761718749998
1.405078125
1.3865478515624998
1.400244140625
1.4598632812499999
1.400244140625
1.397021484375
1.3672119140624999
1.3921875
1.3801025390625
1.3736572265625
1.3865478515624998
1.3954101562499999
1.3857421875
1.36962890625
1.3986328124999998
1.3873535156249999
1.3897705078125
1.3688232421875
1.35673828125
1.3510986328124999
1.351904296875
1.3502929687499998
1.3075927734375
1.3212890625
1.2528076171875
1.2858398437499998
1.319677734375
1.3180664062499998
1.3446533203125
1.332568359375
1.3333740234375
1.3229003906249999
1.3382080078124998
1.3220947265624998
1.3309570312499999
1.33740234375
1.340625
1.3156494140625
1.3599609375
1.3575439453125
1.36962890625
1.3946044921874998
1.3921875
1.3897705078125
1.3978271484375
1.442138671875
1.4115234374999999
1.4139404296875
1.384130859375
1.3656005859375
1.364794921875
1.3712402343749999
1.36962890625
1.3857421875
1.4155517578124999
1.3954101562499999
1.3913818359374999
1.3768798828125
1.3752685546874999
1.3784912109374998
1.3599609375
1.327734375
1.3470703124999999
1.3188720703124999
1.3341796874999998
1.32451171875
1.3067871093749999
1.2399169921875
1.3092041015625
1.3083984375
1.3285400390625
1.3494873046875
1.31162109375
1.3204833984375
1.3285400390625
1.3365966796875
1.3583496093749998
1.33740234375
1.3341796874999998
1.3261230468749998
1.3422363281249998
1.3631835937499999
1.3510986328124999
1.368017578125
1.4026611328124998
1.4026611328124998
1.3768798828125
1.4042724609375
1.40830078125
1.393798828125
1.37607421875
1.397021484375
1.3768798828125
1.3728515625
1.3986328124999998
1.40830078125
1.3897705078125
1.3825195312499998
1.3825195312499998
1.38896484375
1.38896484375
1.3817138671875
1.3309570312499999
1.3462646484374998
1.3551269531249999
1.3309570312499999
1.3172607421875
1.319677734375
1.31162109375
1.2608642578125
1.3108154296874999
1.3317626953125
1.3092041015625
1.3317626953125
1.319677734375
1.3140380859374998
1.3180664062499998
1.3229003906249999
1.3309570312499999
1.3390136718749999
1.335791015625
1.316455078125
1.3494873046875
1.3664062499999998
1.3599609375
1.3639892578125
1.3929931640625
1.3929931640625
1.3986328124999998
1.4042724609375
1.4501953125
1.38896484375
1.377685546875
1.384130859375
1.3857421875
1.3720458984375
1.3422363281249998
1.405078125
1.3881591796875
1.3736572265625
1.384130859375
1.3768798828125
1.38896484375
1.377685546875
1.35673828125
1.3398193359375
1.345458984375
1.340625
1.3390136718749999
1.3365966796875
1.3100097656249998
1.2503906249999999
1.32451171875
1.332568359375
1.3398193359375
1.3253173828125
1.3365966796875
1.3422363281249998
1.3301513671874998
1.3220947265624998
1.34384765625
1.3285400390625
1.3140380859374998
1.319677734375
1.3462646484374998
1.3720458984375
1.3817138671875
1.368017578125
1.3430419921874999
1.3857421875
1.3865478515624998
1.3905761718749998
1.4348876953124998
1.4010498046875
1.3905761718749998
1.3873535156249999
1.380908203125
1.3833251953124999
1.3704345703124998
1.405078125
1.38896484375
1.3825195312499998
1.3801025390625
1.393798828125
1.377685546875
1.405078125
1.35673828125
1.332568359375
1.3543212890624998
1.3317626953125
1.3220947265624998
1.3317626953125
1.3067871093749999
1.2665039062499999
1.3108154296874999
1.3229003906249999
1.32451171875
1.3261230468749998
1.3333740234375
1.3261230468749998
1.3269287109374999
1.3261230468749998
1.3212890625
1.3446533203125
1.3398193359375
1.332568359375
1.316455078125
1.3422363281249998
1.3583496093749998
1.364794921875
1.3744628906249998
1.3865478515624998
1.3913818359374999
1.3921875
1.45341796875
1.3962158203125
1.380908203125
1.3865478515624998
1.3849365234375
1.4010498046875
1.36962890625
1.3857421875
1.400244140625
1.377685546875
1.4010498046875
1.3921875
1.4332763671875
1.3929931640625
1.3664062499999998
1.3422363281249998
1.348681640625
1.345458984375
1.33740234375
1.335791015625
1.3317626953125
1.26328125
1.2930908203125
1.3124267578125
1.3156494140625
1.3349853515624999
1.3212890625
1.340625
1.3180664062499998
1.353515625
1.3204833984375
1.3253173828125
1.38896484375
1.3623779296874998
1.3204833984375
1.3390136718749999
1.3559326171875
1.3623779296874998
1.4066894531249998
1.380908203125
1.3978271484375
1.3857421875
1.4244140625
1.413134765625
1.4074951171874999
1.3825195312499998
1.3905761718749998
1.3833251953124999
1.368017578125
1.3986328124999998
1.3921875
1.3736572265625
1.380908203125
1.3913818359374999
1.3833251953124999
1.4010498046875
1.3736572265625
1.3623779296874998
1.3414306640625
1.3527099609375
1.3285400390625
1.3148437499999999
1.3180664062499998
1.2938964843749998
1.2930908203125
1.3317626953125
1.3148437499999999
1.3341796874999998
1.26005859375
1.345458984375
1.3269287109374999
1.3502929687499998
1.3349853515624999
1.3390136718749999
1.329345703125
1.3317626953125
1.3285400390625
1.3390136718749999
1.3712402343749999
1.361572265625
1.3752685546874999
1.3728515625
1.3897705078125
1.3792968749999999
1.4203857421875
1.4171630859375
1.40185546875
1.3752685546874999
1.37607421875
1.3873535156249999
1.3784912109374998
1.3656005859375
1.3768798828125
1.3873535156249999
1.36962890625
1.3849365234375
1.3897705078125
1.38896484375
1.397021484375
1.3575439453125
1.3301513671874998
1.3317626953125
1.3349853515624999
1.3446533203125
1.3261230468749998
1.2979248046874998
1.2673095703125
1.3333740234375
1.3148437499999999
1.3317626953125
1.33740234375
1.3309570312499999
1.3220947265624998
1.335791015625
1.3301513671874998
1.3333740234375
1.3422363281249998
1.3333740234375
1.329345703125
1.32451171875
1.3148437499999999
1.3712402343749999
1.3728515625
1.3994384765624999
1.380908203125
1.393798828125
1.413134765625
1.4598632812499999
1.393798828125
1.3728515625
1.3881591796875
1.3712402343749999
1.38896484375
1.3599609375
1.4034667968749999
1.40185546875
1.3784912109374998
1.3768798828125
1.3768798828125
1.3825195312499998
1.3833251953124999
1.351904296875
1.3583496093749998
1.3398193359375
1.3390136718749999
1.3285400390625
1.3188720703124999
1.3043701171875
1.229443359375
1.3140380859374998
1.3309570312499999
1.3253173828125
1.329345703125
1.327734375
1.3229003906249999
1.3430419921874999
1.3261230468749998
1.3285400390625
1.3333740234375
1.3317626953125
1.3261230468749998
1.31162109375
1.345458984375
1.3639892578125
1.37607421875
1.384130859375
1.3913818359374999
1.3986328124999998
1.400244140625
1.4332763671875
1.4066894531249998
1.3962158203125
1.3994384765624999
1.3672119140624999
1.3784912109374998
1.3575439453125
1.384130859375
1.3768798828125
1.368017578125
1.3768798828125
1.3849365234375
1.3865478515624998
1.380908203125
1.3607666015625
1.3543212890624998
1.3422363281249998
1.3341796874999998
1.3261230468749998
1.3253173828125
1.3011474609375
1.2665039062499999
1.2995361328125
1.319677734375
1.3349853515624999
1.3220947265624998
1.332568359375
1.3382080078124998
1.3237060546875
1.3365966796875
1.316455078125
1.3229003906249999
1.3333740234375
1.329345703125
1.3333740234375
1.3607666015625
1.3720458984375
1.3664062499999998
1.377685546875
1.397021484375
1.3962158203125
1.4042724609375
1.4373046875
1.409912109375
1.37607421875
1.3913818359374999
1.393798828125
1.3792968749999999
1.3833251953124999
1.3720458984375
1.3929931640625
1.3752685546874999
1.3817138671875
1.3897705078125
1.3929931640625
1.3913818359374999
1.3575439453125
1.3623779296874998
1.3510986328124999
1.3317626953125
1.3220947265624998
1.335791015625
1.3108154296874999
1.30517578125
1.2995361328125
1.3148437499999999
1.3317626953125
1.3220947265624998
1.3229003906249999
1.3333740234375
1.31162109375
1.32451171875
1.3285400390625
1.3140380859374998
1.32451171875
1.3285400390625
1.3148437499999999
1.3551269531249999
1.3478759765625
1.3639892578125
1.3639892578125
1.377685546875
1.3962158203125
1.3792968749999999
1.44052734375
1.4074951171874999
1.4034667968749999
1.3664062499999998
1.400244140625
1.3946044921874998
1.4034667968749999
1.3712402343749999
1.3849365234375
1.3881591796875
1.3752685546874999
1.3857421875
1.3825195312499998
1.393798828125
1.3704345703124998
1.3430419921874999
1.34384765625
1.3253173828125
1.3422363281249998
1.3285400390625
1.3261230468749998
1.319677734375
1.2858398437499998
1.3092041015625
1.3108154296874999
1.3180664062499998
1.33740234375
1.332568359375
1.3285400390625
1.3180664062499998
1.3341796874999998
1.3261230468749998
1.335791015625
1.327734375
1.327734375
1.34384765625
1.3591552734374999
1.3591552734374999
1.364794921875
1.380908203125
1.3510986328124999
1.3929931640625
1.4115234374999999
1.4526123046875
1.397021484375
1.3849365234375
1.3994384765624999
1.37607421875
1.3704345703124998
1.3631835937499999
1.3849365234375
1.405078125
1.3954101562499999
1.3792968749999999
1.3768798828125
1.3801025390625
1.3873535156249999
1.3607666015625
1.35673828125
1.34384765625
1.32451171875
1.3067871093749999
1.3229003906249999
1.316455078125
1.276171875
1.3108154296874999
1.3309570312499999
1.3309570312499999
1.3156494140625
1.3414306640625
1.3269287109374999
1.3237060546875
1.3261230468749998
1.3333740234375
1.335791015625
1.3502929687499998
1.3269287109374999
1.3309570312499999
1.3639892578125
1.3672119140624999
1.3768798828125
1.3825195312499998
1.3897705078125
1.3946044921874998
1.4203857421875
1.445361328125
1.4074951171874999
1.3744628906249998
1.3873535156249999
1.3865478515624998
1.3857421875
1.3591552734374999
1.3897705078125
1.3672119140624999
1.3905761718749998
1.3921875
1.3728515625
1.380908203125
1.3897705078125
1.364794921875
1.3527099609375
1.3478759765625
1.3382080078124998
1.319677734375
1.3229003906249999
1.319677734375
1.2616699218749998
1.3059814453124998
1.3140380859374998
1.33740234375
1.327734375
1.3285400390625
1.332568359375
1.3285400390625
1.3285400390625
1.3204833984375
1.3390136718749999
1.3502929687499998
1.32451171875
1.3317626953125
1.3422363281249998
1.3656005859375
1.3656005859375
1.384130859375
1.3744628906249998
1.3929931640625
1.40185546875
1.4477783203124999
1.4091064453125
1.3954101562499999
1.3873535156249999
1.38896484375
1.3664062499999998
1.3591552734374999
1.3897705078125
1.3873535156249999
1.3817138671875
1.3873535156249999
1.3784912109374998
1.3873535156249999
1.4107177734374998
1.3688232421875
1.3543212890624998
1.340625
1.3220947265624998
1.3124267578125
1.319677734375
1.30517578125
1.26328125
1.3019531249999998
1.3285400390625
1.3180664062499998
1.319677734375
1.3333740234375
1.3261230468749998
1.3188720703124999
1.332568359375
1.340625
1.32451171875
1.3422363281249998
1.3261230468749998
1.3309570312499999
1.3559326171875
1.3954101562499999
1.3583496093749998
1.368017578125
1.4356933593749999
1.3849365234375
1.397021484375
1.432470703125
1.4066894531249998
1.3873535156249999
1.3962158203125
1.38896484375
1.340625
1.3768798828125
1.37607421875
1.3712402343749999
1.3784912109374998
1.3792968749999999
1.3833251953124999
1.393798828125
1.3873535156249999
1.3470703124999999
1.353515625
1.353515625
1.3422363281249998
1.3269287109374999
1.3349853515624999
1.3269287109374999
1.2890625
1.2705322265624999
1.3212890625
1.3092041015625
1.3220947265624998
1.319677734375
1.3414306640625
1.30517578125
1.31162109375
1.3390136718749999
1.3470703124999999
1.345458984375
1.3422363281249998
1.3212890625
1.33740234375
1.361572265625
1.36962890625
1.3768798828125
1.3825195312499998
1.3994384765624999
1.3946044921874998
1.409912109375
1.4268310546874998
1.377685546875
1.377685546875
1.40185546875
1.3825195312499998
1.4228027343749998
1.3873535156249999
1.409912109375
1.3704345703124998
1.3792968749999999
1.3736572265625
1.3857421875
1.348681640625
1.3712402343749999
1.3551269531249999
1.3720458984375
1.3494873046875
1.3261230468749998
1.3108154296874999
1.3180664062499998
1.3083984375
1.2834228515625
1.303564453125
1.3172607421875
1.29228515625
1.3124267578125
1.3108154296874999
1.327734375
1.3237060546875
1.3092041015625
1.3285400390625
1.3333740234375
1.35673828125
1.3398193359375
1.332568359375
1.3639892578125
1.3720458984375
1.3736572265625
1.3792968749999999
1.3768798828125
1.3817138671875
1.4147460937499998
1.44052734375
1.4066894531249998
1.3865478515624998
1.397021484375
1.3905761718749998
1.3704345703124998
1.368017578125
1.4010498046875
1.4010498046875
1.3865478515624998
1.380908203125
1.380908203125
1.377685546875
1.380908203125
1.35673828125
1.335791015625
1.3712402343749999
1.3220947265624998
1.3092041015625
1.316455078125
1.297119140625
1.2777832031249998
1.3100097656249998
1.3317626953125
1.3398193359375
1.3180664062499998
1.316455078125
1.3317626953125
1.3317626953125
1.3229003906249999
1.3301513671874998
1.3543212890624998
1.3349853515624999
1.3253173828125
1.332568359375
1.384130859375
1.33740234375
1.3180664062499998
1.3398193359375
1.3365966796875
1.4115234374999999
1.4066894531249998
1.477587890625
1.4316650390624999
1.40185546875
1.377685546875
1.3728515625
1.3744628906249998
1.3817138671875
1.3929931640625
1.3349853515624999
1.3180664062499998
1.37607421875
1.4042724609375
1.4115234374999999
1.4091064453125
1.3543212890624998
1.3583496093749998
1.3551269531249999
1.3301513671874998
1.34384765625
1.3212890625
1.3043701171875
1.2560302734375
1.3019531249999998
1.3398193359375
1.3365966796875
1.3309570312499999
1.300341796875
1.3092041015625
1.345458984375
1.329345703125
1.332568359375
1.3309570312499999
1.3301513671874998
1.3220947265624998
1.3075927734375
1.345458984375
1.3656005859375
1.377685546875
1.3672119140624999
1.3921875
1.393798828125
1.38896484375
1.4501953125
1.4147460937499998
1.3768798828125
1.393798828125
1.3857421875
1.3656005859375
1.3494873046875
1.3825195312499998
1.3768798828125
1.3921875
1.3833251953124999
1.38896484375
1.3833251953124999
1.393798828125
1.3656005859375
1.361572265625
1.329345703125
1.3430419921874999
1.3349853515624999
1.351904296875
1.335791015625
1.2753662109375
1.3067871093749999
1.2834228515625
1.3261230468749998
1.3309570312499999
1.3156494140625
1.3422363281249998
1.327734375
1.3398193359375
1.34384765625
1.33740234375
1.3365966796875
1.3390136718749999
1.3180664062499998
1.353515625
1.3583496093749998
1.3825195312499998
1.368017578125
1.3865478515624998
1.3913818359374999
1.400244140625
1.4461669921875
1.4026611328124998
1.4268310546874998
1.38896484375
1.3873535156249999
1.3833251953124999
1.3849365234375
1.38896484375
1.397021484375
1.3881591796875
1.3857421875
1.3784912109374998
1.4010498046875
1.3784912109374998
1.361572265625
1.345458984375
1.3494873046875
1.335791015625
1.3261230468749998
1.3309570312499999
1.3220947265624998
1.2963134765625
1.27939453125
1.3382080078124998
1.335791015625
1.3172607421875
1.3220947265624998
1.3220947265624998
1.3092041015625
1.2906738281249999
1.3430419921874999
1.3220947265624998
1.3301513671874998
1.3237060546875
1.3269287109374999
1.3341796874999998
1.3688232421875
1.3607666015625
1.3817138671875
1.400244140625
1.384130859375
1.3929931640625
1.4058837890625
1.4139404296875
1.3752685546874999
1.3946044921874998
1.3728515625
1.3672119140624999
1.3607666015625
1.3720458984375
1.4155517578124999
1.3857421875
1.3712402343749999
1.3599609375
1.393798828125
1.3946044921874998
1.393798828125
1.35673828125
1.3551269531249999
1.3502929687499998
1.329345703125
1.329345703125
1.319677734375
1.300341796875
1.2697265624999998
1.3212890625
1.31162109375
1.3220947265624998
1.3204833984375
1.3285400390625
1.31162109375
1.3220947265624998
1.3261230468749998
1.329345703125
1.33740234375
1.3365966796875
1.3341796874999998
1.35673828125
1.3583496093749998
1.3720458984375
1.3599609375
1.3817138671875
1.3905761718749998
1.3792968749999999
1.397021484375
1.461474609375
1.3994384765624999
1.3825195312499998
1.384130859375
1.380908203125
1.3865478515624998
1.3744628906249998
1.3873535156249999
1.377685546875
1.3946044921874998
1.3825195312499998
1.364794921875
1.3865478515624998
1.3857421875
1.35673828125
1.33740234375
1.3446533203125
1.3285400390625
1.3365966796875
1.3333740234375
1.3108154296874999
1.2818115234374998
1.313232421875
1.3422363281249998
1.3510986328124999
1.3333740234375
1.3083984375
1.2665039062499999
1.2673095703125
1.3349853515624999
1.3575439453125
1.3349853515624999
1.3309570312499999
1.319677734375
1.3551269531249999
1.3664062499999998
1.3583496093749998
1.3704345703124998
1.3736572265625
1.3881591796875
1.3905761718749998
1.384130859375
1.45341796875
1.380908203125
1.3946044921874998
1.4066894531249998
1.384130859375
1.3688232421875
1.348681640625
1.4010498046875
1.3929931640625
1.3768798828125
1.3784912109374998
1.3736572265625
1.3881591796875
1.3962158203125
1.3639892578125
1.3414306640625
1.348681640625
1.332568359375
1.3285400390625
1.3108154296874999
1.32451171875
1.2624755859374999
1.3341796874999998
1.3067871093749999
1.3398193359375
1.3204833984375
1.3229003906249999
1.340625
1.332568359375
1.3172607421875
1.3269287109374999
1.3341796874999998
1.3333740234375
1.3188720703124999
1.3237060546875
1.3631835937499999
1.37607421875
1.3833251953124999
1.3728515625
1.3905761718749998
1.3849365234375
1.3954101562499999
1.4518066406249999
1.3962158203125
1.4010498046875
1.3833251953124999
1.3712402343749999
1.3946044921874998
1.3768798828125
1.3825195312499998
1.3857421875
1.377685546875
1.3873535156249999
1.3873535156249999
1.3881591796875
1.4026611328124998
1.35673828125
1.3494873046875
1.348681640625
1.345458984375
1.327734375
1.3261230468749998
1.3204833984375
1.2955078125
1.22138671875
1.3083984375
1.3365966796875
1.3478759765625
1.3365966796875
1.3527099609375
1.32451171875
1.3269287109374999
1.332568359375
1.3309570312499999
1.3365966796875
1.2898681640624998
1.2914794921875
1.287451171875
1.3720458984375
1.3801025390625
1.3833251953124999
1.3905761718749998
1.405078125
1.40185546875
1.442138671875
1.3954101562499999
1.3962158203125
1.3817138671875
1.3865478515624998
1.3905761718749998
1.364794921875
1.3978271484375
1.3913818359374999
1.3744628906249998
1.3801025390625
1.3857421875
1.3865478515624998
1.3994384765624999
1.3575439453125
1.3333740234375
1.3414306640625
1.3551269531249999
1.3301513671874998
1.319677734375
1.3140380859374998
1.2938964843749998
1.287451171875
1.3156494140625
1.3124267578125
1.3261230468749998
1.313232421875
1.332568359375
1.3108154296874999
1.3148437499999999
1.3301513671874998
1.3470703124999999
1.3527099609375
1.3478759765625
1.3341796874999998
1.3510986328124999
1.3664062499999998
1.3728515625
1.3720458984375
1.3744628906249998
1.38896484375
1.3921875
1.4187744140624998
1.4348876953124998
1.3946044921874998
1.3921875
1.4034667968749999
1.3801025390625
1.3720458984375
1.3704345703124998
1.3954101562499999
1.3768798828125
1.3833251953124999
1.3865478515624998
1.4010498046875
1.40830078125
1.380908203125
1.368017578125
1.353515625
1.3446533203125
1.3382080078124998
1.3349853515624999
1.3220947265624998
1.3019531249999998
1.2858398437499998
1.3188720703124999
1.327734375
1.3229003906249999
1.3341796874999998
1.3309570312499999
1.3100097656249998
1.34384765625
1.3494873046875
1.3398193359375
1.33740234375
1.3349853515624999
1.335791015625
1.3510986328124999
1.3543212890624998
1.32451171875
1.3148437499999999
1.361572265625
1.3994384765624999
1.40830078125
1.4139404296875
1.45341796875
1.38896484375
1.40185546875
1.393798828125
1.3905761718749998
1.37607421875
1.3704345703124998
1.377685546875
1.3905761718749998
1.4010498046875
1.3720458984375
1.3784912109374998
1.3905761718749998
1.384130859375
1.348681640625
1.33740234375
1.345458984375
1.3148437499999999
1.332568359375
1.3220947265624998
1.3188720703124999
1.2697265624999998
1.3100097656249998
1.3309570312499999
1.3148437499999999
1.327734375
1.327734375
1.335791015625
1.3285400390625
1.3148437499999999
1.319677734375
1.3285400390625
1.335791015625
1.3124267578125
1.3237060546875
1.3599609375
1.3801025390625
1.3744628906249998
1.3792968749999999
1.3913818359374999
1.3954101562499999
1.3986328124999998
1.4550292968749998
1.4058837890625
1.4074951171874999
1.3962158203125
1.3720458984375
1.3784912109374998
1.3422363281249998
1.397021484375
1.3978271484375
1.3849365234375
1.38896484375
1.3946044921874998
1.384130859375
1.3849365234375
1.3881591796875
1.3446533203125
1.3494873046875
1.329345703125
1.3237060546875
1.3390136718749999
1.3188720703124999
1.2745605468749999
1.3067871093749999
1.3253173828125
1.3188720703124999
1.3390136718749999
1.3390136718749999
1.319677734375
1.3470703124999999
1.3333740234375
1.2955078125
1.332568359375
1.3253173828125
1.32451171875
1.3333740234375
1.35673828125
1.348681640625
1.3575439453125
1.3623779296874998
1.3825195312499998
1.3744628906249998
1.38896484375
1.4655029296875
1.40830078125
1.4010498046875
1.3591552734374999
1.3905761718749998
1.377685546875
1.377685546875
1.43408203125
1.3825195312499998
1.3494873046875
1.3502929687499998
1.3825195312499998
1.3986328124999998
1.4026611328124998
1.3857421875
1.3704345703124998
1.3382080078124998
1.3478759765625
1.3349853515624999
1.3124267578125
1.31162109375
1.2890625
1.3019531249999998
1.319677734375
1.313232421875
1.3212890625
1.3333740234375
1.34384765625
1.3382080078124998
1.3398193359375
1.332568359375
1.3430419921874999
1.3333740234375
1.3237060546875
1.3092041015625
1.3527099609375
1.353515625
1.3591552734374999
1.3784912109374998
1.3897705078125
1.377685546875
1.380908203125
1.4139404296875
1.4107177734374998
1.3897705078125
1.3897705078125
1.3817138671875
1.3825195312499998
1.3744628906249998
1.3913818359374999
1.3954101562499999
1.3784912109374998
1.3744628906249998
1.3833251953124999
1.3954101562499999
1.397021484375
1.3664062499999998
1.3551269531249999
1.3551269531249999
1.3527099609375
1.3341796874999998
1.3204833984375
1.3212890625
1.27939453125
1.2737548828124998
1.3237060546875
1.3083984375
1.3349853515624999
1.3229003906249999
1.327734375
1.335791015625
1.327734375
1.3398193359375
1.3229003906249999
1.348681640625
1.345458984375
1.3067871093749999
1.3172607421875
1.3543212890624998
1.3656005859375
1.3929931640625
1.35673828125
1.3784912109374998
1.4034667968749999
1.4268310546874998
1.4389160156249998
1.3494873046875
1.3792968749999999
1.3768798828125
1.3905761718749998
1.3801025390625
1.368017578125
1.3905761718749998
1.4058837890625
1.3913818359374999
1.3986328124999998
1.3833251953124999
1.3986328124999998
1.3688232421875
1.35673828125
1.3309570312499999
1.34384765625
1.3285400390625
1.3261230468749998
1.3124267578125
1.3188720703124999
1.26005859375
1.3148437499999999
1.332568359375
1.3220947265624998
1.3285400390625
1.3349853515624999
1.3124267578125
1.329345703125
1.3253173828125
1.32451171875
1.3204833984375
1.3414306640625
1.3382080078124998
1.3422363281249998
1.348681640625
1.3551269531249999
1.3575439453125
1.3833251953124999
1.3905761718749998
1.3712402343749999
1.4066894531249998
1.4429443359374998
1.3873535156249999
1.3873535156249999
1.4026611328124998
1.3599609375
1.3502929687499998
1.30517578125
1.4115234374999999
1.3962158203125
1.3946044921874998
1.3954101562499999
1.377685546875
1.3873535156249999
1.38896484375
1.3559326171875
1.348681640625
1.3478759765625
1.3333740234375
1.3309570312499999
1.313232421875
1.313232421875
1.2640869140625
1.3124267578125
1.316455078125
1.3220947265624998
1.3148437499999999
1.3430419921874999
1.3172607421875
1.3253173828125
1.351904296875
1.3502929687499998
1.3446533203125
1.3220947265624998
1.3301513671874998
1.3253173828125
1.35673828125
1.3543212890624998
1.36962890625
1.3929931640625
1.38896484375
1.3954101562499999
1.3929931640625
1.4679199218749999
1.4091064453125
1.3736572265625
1.3825195312499998
1.3825195312499998
1.3688232421875
1.3575439453125
1.3873535156249999
1.3849365234375
1.4123291015625
1.3962158203125
1.38896484375
1.3744628906249998
1.3575439453125
1.3510986328124999
1.3510986328124999
1.3607666015625
1.3502929687499998
1.3349853515624999
1.3220947265624998
1.2987304687499999
1.2383056640624999
1.303564453125
1.3341796874999998
1.3414306640625
1.3188720703124999
1.3253173828125
1.3382080078124998
1.3027587890624999
1.3470703124999999
1.327734375
1.3414306640625
1.3382080078124998
1.3261230468749998
1.3172607421875
1.3341796874999998
1.3631835937499999
1.377685546875
1.393798828125
1.397021484375
1.3849365234375
1.3825195312499998
1.4389160156249998
1.3905761718749998
1.380908203125
1.3849365234375
1.38896484375
1.3752685546874999
1.3382080078124998
1.393798828125
1.3873535156249999
1.3849365234375
1.3768798828125
1.3744628906249998
1.380908203125
1.3825195312499998
1.36962890625
1.3478759765625
1.3575439453125
1.3446533203125
1.327734375
1.3285400390625
1.3285400390625
1.2963134765625
1.2979248046874998
1.316455078125
1.2955078125
1.3019531249999998
1.3124267578125
1.3607666015625
1.3317626953125
1.303564453125
1.2938964843749998
1.2914794921875
1.329345703125
1.3422363281249998
1.3414306640625
1.34384765625
1.3623779296874998
1.3672119140624999
1.3825195312499998
1.3801025390625
1.3801025390625
1.40185546875
1.4510009765624998
1.4219970703125
1.38896484375
1.377685546875
1.38896484375
1.3801025390625
1.35673828125
1.3792968749999999
1.416357421875
1.384130859375
1.3720458984375
1.3736572265625
1.3865478515624998
1.38896484375
1.3784912109374998
1.3494873046875
1.3591552734374999
1.3470703124999999
1.3422363281249998
1.3204833984375
1.3390136718749999
1.303564453125
1.2890625
1.3285400390625
1.3140380859374998
1.3212890625
1.3269287109374999
1.3253173828125
1.3285400390625
1.3333740234375
1.32451171875
1.340625
1.3285400390625
1.3349853515624999
1.3237060546875
1.3317626953125
1.364794921875
1.3712402343749999
1.3559326171875
1.3857421875
1.3833251953124999
1.393798828125
1.4389160156249998
1.416357421875
1.393798828125
1.3720458984375
1.380908203125
1.4066894531249998
1.3704345703124998
1.3897705078125
1.3913818359374999
1.3905761718749998
1.3833251953124999
1.3817138671875
1.3768798828125
1.3833251953124999
1.3752685546874999
1.3446533203125
1.3551269531249999
1.3422363281249998
1.3261230468749998
1.3188720703124999
1.31162109375
1.3043701171875
1.2769775390625
1.319677734375
1.3341796874999998
1.32451171875
1.329345703125
1.3365966796875
1.3083984375
1.3188720703124999
1.327734375
1.3309570312499999
1.3382080078124998
1.3333740234375
1.3527099609375
1.329345703125
1.3551269531249999
1.3712402343749999
1.36962890625
1.380908203125
1.4074951171874999
1.4066894531249998
1.3962158203125
1.45341796875
1.3881591796875
1.3921875
1.3946044921874998
1.3656005859375
1.3398193359375
1.3212890625
1.3833251953124999
1.3929931640625
1.400244140625
1.3929931640625
1.36962890625
1.3784912109374998
1.3873535156249999
1.3712402343749999
1.3494873046875
1.34384765625
1.3349853515624999
1.3220947265624998
1.3180664062499998
1.3285400390625
1.27294921875
1.3019531249999998
1.2697265624999998
1.3237060546875
1.3140380859374998
1.3333740234375
1.332568359375
1.3309570312499999
1.3494873046875
1.3341796874999998
1.3502929687499998
1.3220947265624998
1.319677734375
1.335791015625
1.348681640625
1.3478759765625
1.37607421875
1.3881591796875
1.3849365234375
1.384130859375
1.397021484375
1.429248046875
1.3978271484375
1.3929931640625
1.3784912109374998
1.380908203125
1.3817138671875
1.3446533203125
1.3285400390625
1.3913818359374999
1.405078125
1.3905761718749998
1.3792968749999999
1.3849365234375
1.3905761718749998
1.3639892578125
1.3583496093749998
1.345458984375
1.3470703124999999
1.3180664062499998
1.3124267578125
1.3180664062499998
1.287451171875
1.287451171875
1.31162109375
1.3237060546875
1.3083984375
1.32451171875
1.3220947265624998
1.3365966796875
1.3253173828125
1.33740234375
1.3237060546875
1.319677734375
1.327734375
1.3220947265624998
1.3494873046875
1.3591552734374999
1.3712402343749999
1.3575439453125
1.393798828125
1.397021484375
1.3873535156249999
1.4437499999999999
1.3929931640625
1.3954101562499999
1.400244140625
1.384130859375
1.3639892578125
1.351904296875
1.3672119140624999
1.384130859375
1.3954101562499999
1.3881591796875
1.3672119140624999
1.377685546875
1.3664062499999998
1.3744628906249998
1.3470703124999999
1.3510986328124999
1.3430419921874999
1.3285400390625
1.3188720703124999
1.3285400390625
1.2850341796875
1.29228515625
1.2995361328125
1.3083984375
1.327734375
1.329345703125
1.3494873046875
1.3317626953125
1.3301513671874998
1.3365966796875
1.3422363281249998
1.332568359375
1.3011474609375
1.284228515625
1.2689208984375
1.3623779296874998
1.377685546875
1.3720458984375
1.3784912109374998
1.405078125
1.3954101562499999
1.4300537109375
1.4123291015625
1.3962158203125
1.3833251953124999
1.3768798828125
1.3792968749999999
1.3551269531249999
1.3857421875
1.3865478515624998
1.3986328124999998
1.3954101562499999
1.3817138671875
1.3865478515624998
1.3736572265625
1.3744628906249998
1.3317626953125
1.3414306640625
1.3446533203125
1.332568359375
1.3229003906249999
1.3333740234375
1.3220947265624998
1.2665039062499999
1.3237060546875
1.3212890625
1.32451171875
1.3301513671874998
1.319677734375
1.319677734375
1.3414306640625
1.3253173828125
1.329345703125
1.329345703125
1.3309570312499999
1.3341796874999998
1.3543212890624998
1.3631835937499999
1.351904296875
1.345458984375
1.384130859375
1.3833251953124999
1.3962158203125
1.3929931640625
1.4501953125
1.4074951171874999
1.380908203125
1.377685546875
1.335791015625
1.3591552734374999
1.3752685546874999
1.4091064453125
1.3865478515624998
1.3929931640625
1.377685546875
1.368017578125
1.3720458984375
1.409912109375
1.368017578125
1.35673828125
1.3478759765625
1.3253173828125
1.319677734375
1.327734375
1.297119140625
1.2818115234374998
1.3067871093749999
1.3317626953125
1.3172607421875
1.316455078125
1.3204833984375
1.3237060546875
1.3229003906249999
1.313232421875
1.3414306640625
1.340625
1.3422363281249998
1.31162109375
1.3188720703124999
1.3462646484374998
1.3801025390625
1.3752685546874999
1.3784912109374998
1.3607666015625
1.3857421875
1.4010498046875
1.4574462890625
1.3849365234375
1.3897705078125
1.3833251953124999
1.3575439453125
1.3801025390625
1.3986328124999998
1.4139404296875
1.377685546875
1.3849365234375
1.3825195312499998
1.380908203125
1.400244140625
1.3825195312499998
1.3462646484374998
1.3148437499999999
1.303564453125
1.3204833984375
1.348681640625
1.3414306640625
1.3083984375
1.2624755859374999
1.3083984375
1.3269287109374999
1.3446533203125
1.3237060546875
1.3237060546875
1.3237060546875
1.3285400390625
1.3510986328124999
1.3543212890624998
1.3575439453125
1.3301513671874998
1.313232421875
1.3083984375
1.348681640625
1.3639892578125
1.3784912109374998
1.3768798828125
1.3978271484375
1.3825195312499998
1.3978271484375
1.4574462890625
1.40185546875
1.3801025390625
1.3792968749999999
1.384130859375
1.3801025390625
1.361572265625
1.377685546875
1.3752685546874999
1.3849365234375
1.3857421875
1.3623779296874998
1.3744628906249998
1.38896484375
1.3720458984375
1.2979248046874998
1.3309570312499999
1.3220947265624998
1.3317626953125
1.3067871093749999
1.3220947265624998
1.2705322265624999
1.2963134765625
1.3309570312499999
1.3156494140625
1.3301513671874998
1.3237060546875
1.3156494140625
1.32451171875
1.33740234375
1.3204833984375
1.3180664062499998
1.3309570312499999
1.3172607421875
1.3349853515624999
1.348681640625
1.34384765625
1.3688232421875
1.380908203125
1.3720458984375
1.400244140625
1.4066894531249998
1.4518066406249999
1.4091064453125
1.380908203125
1.3833251953124999
1.3913818359374999
1.38896484375
1.364794921875
1.36962890625
1.384130859375
1.3599609375
1.351904296875
1.3712402343749999
1.397021484375
1.3946044921874998
1.3825195312499998
1.3502929687499998
1.3607666015625
1.35673828125
1.3309570312499999
1.329345703125
1.3212890625
1.303564453125
1.27294921875
1.29228515625
1.297119140625
1.3470703124999999
1.3237060546875
1.3446533203125
1.3188720703124999
1.3398193359375
1.3204833984375
1.3317626953125
1.345458984375
1.3212890625
1.3341796874999998
1.3494873046875
1.3704345703124998
1.3712402343749999
1.377685546875
1.3905761718749998
1.3897705078125
1.3752685546874999
1.4373046875
1.4107177734374998
1.3913818359374999
1.38896484375
1.384130859375
1.3712402343749999
1.3672119140624999
1.3817138671875
1.3954101562499999
1.3849365234375
1.3801025390625
1.3736572265625
1.377685546875
1.3954101562499999
1.3720458984375
1.3591552734374999
1.3575439453125
1.3422363281249998
1.3172607421875
1.3253173828125
1.316455078125
1.3075927734375
1.2721435546875
1.3148437499999999
1.3100097656249998
1.3092041015625
1.3269287109374999
1.340625
1.335791015625
1.3269287109374999
1.3269287109374999
1.3510986328124999
1.3414306640625
1.3229003906249999
1.348681640625
1.3349853515624999
1.3398193359375
1.36962890625
1.377685546875
1.3849365234375
1.3905761718749998
1.3744628906249998
1.4091064453125
1.4397216796874999
1.3986328124999998
1.377685546875
1.3801025390625
1.3897705078125
1.3768798828125
1.37607421875
1.3857421875
1.384130859375
1.3736572265625
1.3664062499999998
1.3897705078125
1.3897705078125
1.3865478515624998
1.3365966796875
1.3623779296874998
1.3551269531249999
1.335791015625
1.335791015625
1.2995361328125
1.3229003906249999
1.2769775390625
1.3059814453124998
1.32451171875
1.3156494140625
1.3212890625
1.3333740234375
1.3269287109374999
1.3462646484374998
1.3212890625
1.351904296875
1.3446533203125
1.3059814453124998
1.3011474609375
1.2858398437499998
1.3043701171875
1.348681640625
1.3801025390625
1.409912109375
1.4042724609375
1.380908203125
1.4228027343749998
1.4461669921875
1.3946044921874998
1.3905761718749998
1.3382080078124998
1.3712402343749999
1.3736572265625
1.3720458984375
1.3897705078125
1.3954101562499999
1.4042724609375
1.3744628906249998
1.377685546875
1.3591552734374999
1.380908203125
1.3390136718749999
1.3446533203125
1.3317626953125
1.33740234375
1.3309570312499999
1.332568359375
1.3180664062499998
1.27294921875
1.2955078125
1.3349853515624999
1.3124267578125
1.3156494140625
1.3180664062499998
1.3229003906249999
1.3172607421875
1.3341796874999998
1.3301513671874998
1.332568359375
1.3269287109374999
1.33740234375
1.3220947265624998
1.3599609375
1.3599609375
1.3784912109374998
1.380908203125
1.3639892578125
1.38896484375
1.3881591796875
1.4590576171874998
1.393798828125
1.380908203125
1.380908203125
1.3849365234375
1.3865478515624998
1.368017578125
1.409912109375
1.384130859375
1.3817138671875
1.3913818359374999
1.393798828125
1.3897705078125
1.3857421875
1.3494873046875
1.3204833984375
1.345458984375
1.3333740234375
1.3156494140625
1.3212890625
1.3237060546875
1.2423339843749999
1.2955078125
1.335791015625
1.3043701171875
1.3229003906249999
1.3253173828125
1.3317626953125
1.3349853515624999
1.3309570312499999
1.3261230468749998
1.3390136718749999
1.3470703124999999
1.3349853515624999
1.3285400390625
1.3978271484375
1.3792968749999999
1.368017578125
1.3728515625
1.384130859375
1.397021484375
1.384130859375
1.4244140625
1.377685546875
1.3470703124999999
1.368017578125
1.4074951171874999
1.3897705078125
1.3664062499999998
1.384130859375
1.393798828125
1.380908203125
1.3575439453125
1.3768798828125
1.3873535156249999
1.3656005859375
1.3720458984375
1.345458984375
1.3470703124999999
1.3414306640625
1.332568359375
1.3180664062499998
1.3043701171875
1.2858398437499998
1.2938964843749998
1.303564453125
1.3156494140625
1.3285400390625
1.3237060546875
1.3446533203125
1.340625
1.329345703125
1.3261230468749998
1.3382080078124998
1.327734375
1.3591552734374999
1.2955078125
1.335791015625
1.3720458984375
1.3583496093749998
1.3897705078125
1.3792968749999999
1.3817138671875
1.3704345703124998
1.4091064453125
1.4155517578124999
1.3792968749999999
1.3833251953124999
1.3905761718749998
1.3784912109374998
1.35673828125
1.397021484375
1.4155517578124999
1.37607421875
1.3704345703124998
1.3736572265625
1.384130859375
1.3994384765624999
1.3857421875
1.351904296875
1.3365966796875
1.3188720703124999
1.3212890625
1.3285400390625
1.3285400390625
1.3027587890624999
1.2608642578125
1.332568359375
1.3301513671874998
1.3462646484374998
1.3148437499999999
1.3390136718749999
1.32451171875
1.3156494140625
1.3261230468749998
1.3341796874999998
1.34384765625
1.3204833984375
1.3108154296874999
1.332568359375
1.351904296875
1.35673828125
1.3688232421875
1.3639892578125
1.37607421875
1.3857421875
1.416357421875
1.4558349609374999
1.3881591796875
1.3792968749999999
1.3978271484375
1.3720458984375
1.340625
1.3551269531249999
1.3712402343749999
1.3792968749999999
1.3873535156249999
1.3962158203125
1.3921875
1.3962158203125
1.3962158203125
1.3656005859375
1.3502929687499998
1.353515625
1.3140380859374998
1.2930908203125
1.27294921875
1.2850341796875
1.2673095703125
1.3462646484374998
1.3478759765625
1.327734375
1.3237060546875
1.3349853515624999
1.313232421875
1.3204833984375
1.332568359375
1.340625
1.335791015625
1.3220947265624998
1.316455078125
1.33740234375
1.3704345703124998
1.3728515625
1.3688232421875
1.35673828125
1.3873535156249999
1.409912109375
1.3897705078125
1.442138671875
1.3978271484375
1.3817138671875
1.3744628906249998
1.3575439453125
1.3752685546874999
1.3768798828125
1.4034667968749999
1.3978271484375
1.3913818359374999
1.38896484375
1.3599609375
1.3873535156249999
1.3792968749999999
1.3470703124999999
1.348681640625
1.3365966796875
1.3317626953125
1.329345703125
1.3204833984375
1.3204833984375
1.26005859375
1.2963134765625
1.3067871093749999
1.332568359375
1.316455078125
1.3269287109374999
1.319677734375
1.332568359375
1.332568359375
1.33740234375
1.3462646484374998
1.3269287109374999
1.3285400390625
1.316455078125
1.340625
1.361572265625
1.37607421875
1.3728515625
1.3865478515624998
1.3905761718749998
1.3986328124999998
1.4461669921875
1.4139404296875
1.3865478515624998
1.3833251953124999
1.3962158203125
1.3672119140624999
1.368017578125
1.3817138671875
1.400244140625
1.405078125
1.3728515625
1.37607421875
1.3817138671875
1.3929931640625
1.384130859375
1.353515625
1.3140380859374998
1.3019531249999998
1.2955078125
1.3341796874999998
1.3398193359375
1.2914794921875
1.2979248046874998
1.3269287109374999
1.3253173828125
1.3212890625
1.3414306640625
1.3341796874999998
1.327734375
1.3285400390625
1.3212890625
1.3365966796875
1.3261230468749998
1.3430419921874999
1.327734375
1.3543212890624998
1.3736572265625
1.3502929687499998
1.3720458984375
1.37607421875
1.4058837890625
1.3792968749999999
1.448583984375
1.4139404296875
1.3792968749999999
1.3736572265625
1.3712402343749999
1.3728515625
1.37607421875
1.3946044921874998
1.3929931640625
1.3801025390625
1.3752685546874999
1.36962890625
1.3905761718749998
1.3954101562499999
1.3607666015625
1.348681640625
1.3478759765625
1.340625
1.3269287109374999
1.3059814453124998
1.3075927734375
1.2753662109375
1.2673095703125
1.3180664062499998
1.30517578125
1.3269287109374999
1.3269287109374999
1.3180664062499998
1.327734375
1.3285400390625
1.340625
1.3341796874999998
1.3285400390625
1.332568359375
1.3075927734375
1.329345703125
1.3583496093749998
1.3712402343749999
1.3744628906249998
1.3833251953124999
1.3849365234375
1.3744628906249998
1.3897705078125
1.456640625
1.3865478515624998
1.377685546875
1.393798828125
1.3994384765624999
1.3833251953124999
1.3591552734374999
1.4066894531249998
1.3881591796875
1.3591552734374999
1.3551269531249999
1.3825195312499998
1.3929931640625
1.3784912109374998
1.34384765625
1.3317626953125
1.3382080078124998
1.340625
1.3309570312499999
1.3156494140625
1.313232421875
1.2753662109375
1.32451171875
1.3180664062499998
1.3108154296874999
1.335791015625
1.3253173828125
1.3180664062499998
1.335791015625
1.3180664062499998
1.327734375
1.3220947265624998
1.3261230468749998
1.3220947265624998
1.3301513671874998
1.3559326171875
1.364794921875
1.3744628906249998
1.380908203125
1.3921875
1.4091064453125
1.393798828125
1.4469726562499998
1.3865478515624998
1.397021484375
1.3873535156249999
1.3784912109374998
1.3801025390625
1.3801025390625
1.40185546875
1.3849365234375
1.3672119140624999
1.3833251953124999
1.3833251953124999
1.3946044921874998
1.3881591796875
1.3478759765625
1.345458984375
1.3446533203125
1.3502929687499998
1.3269287109374999
1.327734375
1.3100097656249998
1.2689208984375
1.2995361328125
1.3172607421875
1.329345703125
1.3341796874999998
1.3333740234375
1.3220947265624998
1.3414306640625
1.3341796874999998
1.3237060546875
1.345458984375
1.3253173828125
1.3253173828125
1.32451171875
1.368017578125
1.3583496093749998
1.3559326171875
1.3881591796875
1.4026611328124998
1.3905761718749998
1.3784912109374998
1.4203857421875
1.400244140625
1.3784912109374998
1.3664062499999998
1.3921875
1.3873535156249999
1.364794921875
1.3656005859375
1.3946044921874998
1.3422363281249998
1.3857421875
1.3873535156249999
1.3752685546874999
1.3672119140624999
1.345458984375
1.3527099609375
1.3551269531249999
1.3398193359375
1.3253173828125
1.3188720703124999
1.319677734375
1.2737548828124998
1.2987304687499999
1.3140380859374998
1.3140380859374998
1.3261230468749998
1.316455078125
1.3220947265624998
1.3301513671874998
1.3317626953125
1.3317626953125
1.3124267578125
1.335791015625
1.3317626953125
1.33740234375
1.3494873046875
1.3639892578125
1.3462646484374998
1.3792968749999999
1.3857421875
1.4091064453125
1.3873535156249999
1.4437499999999999
1.3954101562499999
1.3962158203125
1.3986328124999998
1.3688232421875
1.3768798828125
1.3728515625
1.3873535156249999
1.4058837890625
1.3857421875
1.3768798828125
1.3664062499999998
1.3865478515624998
1.3873535156249999
1.377685546875
1.3341796874999998
1.335791015625
1.3502929687499998
1.3212890625
1.3333740234375
1.3261230468749998
1.2858398437499998
1.27294921875
1.3212890625
1.327734375
1.3188720703124999
1.3220947265624998
1.3261230468749998
1.332568359375
1.3285400390625
1.3269287109374999
1.32451171875
1.319677734375
1.32451171875
1.335791015625
1.348681640625
1.353515625
1.351904296875
1.361572265625
1.397021484375
1.3728515625
1.3752685546874999
1.400244140625
1.3986328124999998
