1.5194824218749998
1.51787109375
1.5162597656249999
1.5364013671874999
1.50498046875
1.525927734375
1.522705078125
1.496923828125
1.5090087890625
1.5114257812499998
1.5082031249999999
1.506591796875
2.2647216796875
1.6024658203125
1.45341796875
1.546875
1.4961181640624999
1.3817138671875
1.198828125
1.27939453125
1.3470703124999999
1.4348876953124998
1.4888671875
1.5017578125
1.4888671875
1.5541259765625
1.5275390624999998
1.5162597656249999
1.5299560546875
1.5323730468749999
1.542041015625
1.5404296874999999
1.5235107421874998
0.726708984375
1.4236083984374999
1.5517089843749998
1.4953124999999998
1.5541259765625
1.667724609375
1.8473876953125
2.0085205078125
1.5927978515624999
1.5275390624999998
1.5218994140625
1.5162597656249999
1.529150390625
1.5082031249999999
1.522705078125
1.5186767578125
1.4711425781249998
1.5082031249999999
1.522705078125
1.5057861328125
1.5122314453124999
1.7555419921875
1.658056640625
1.442138671875
1.5380126953125
1.4920898437499999
1.3801025390625
1.2479736328125
1.31162109375
1.3365966796875
1.4356933593749999
1.482421875
1.5009521484375
1.4832275390624998
1.533984375
1.5347900390625
1.5194824218749998
1.5565429687499999
1.5541259765625
1.53076171875
1.53720703125
1.53076171875
0.7194580078124999
1.405078125
1.6121337890624998
1.482421875
1.574267578125
1.683837890625
1.883642578125
1.796630859375
1.5533203125
1.5347900390625
1.5138427734375
1.5122314453124999
1.5218994140625
1.5194824218749998
1.5218994140625
1.52109375
1.4953124999999998
1.5138427734375
1.509814453125
1.5162597656249999
1.5082031249999999
1.6532226562499999
2.0278564453125
1.4429443359374998
1.533984375
1.5218994140625
1.432470703125
1.3543212890624998
1.2826171874999999
1.2906738281249999
1.3962158203125
1.4800048828124999
1.496923828125
1.5082031249999999
1.5267333984375
1.5218994140625
1.53076171875
1.5202880859374999
1.5565429687499999
1.5364013671874999
1.5436523437499998
1.5251220703125
1.2802001953125
1.010302734375
1.6218017578125
1.4759765624999999
1.5138427734375
1.6693359374999999
1.7152587890625
2.1454833984375
1.609716796875
1.5347900390625
1.5154541015624998
1.5090087890625
1.5186767578125
1.533984375
1.5186767578125
1.5194824218749998
1.5057861328125
1.5033691406249998
1.5162597656249999
1.5162597656249999
1.5017578125
1.5041748046874999
2.102783203125
1.44052734375
1.513037109375
1.5235107421874998
1.4413330078125
1.3728515625
1.2777832031249998
1.2890625
1.3929931640625
1.464697265625
1.49853515625
1.496923828125
1.5009521484375
1.5380126953125
1.525927734375
1.5517089843749998
1.5404296874999999
1.5355957031249998
1.5315673828124998
1.5412353515625
1.4228027343749998
0.9232910156249999
1.609716796875
1.47275390625
1.5235107421874998
1.5984375
1.6459716796875
2.1543457031249997
1.7257324218749999
1.561376953125
1.5331787109375
1.51787109375
1.5170654296875
1.5444580078124999
1.5114257812499998
1.52109375
1.513037109375
1.4912841796874998
1.51787109375
1.513037109375
1.506591796875
1.5082031249999999
2.302587890625
1.6072998046875
1.5243164062499999
1.545263671875
1.4977294921875
1.3801025390625
1.3124267578125
1.2423339843749999
1.3913818359374999
1.4526123046875
1.4912841796874998
1.5025634765625
1.477587890625
1.55009765625
1.5315673828124998
1.5146484375
1.5726562499999999
1.5364013671874999
1.5347900390625
1.525927734375
1.53076171875
0.7210693359375
1.6177734375
1.529150390625
1.4912841796874998
1.59521484375
1.6403320312499998
2.1068115234375
1.8240234375
1.5662109375
1.5235107421874998
1.50498046875
1.506591796875
1.5331787109375
1.5025634765625
1.5194824218749998
1.4961181640624999
1.5001464843749999
1.5154541015624998
1.5106201171875
1.5162597656249999
1.5122314453124999
2.2671386718749997
1.611328125
1.4550292968749998
1.55009765625
1.4920898437499999
1.37607421875
1.2906738281249999
1.303564453125
1.33740234375
1.4373046875
1.480810546875
1.493701171875
1.4872558593749998
1.55009765625
1.5299560546875
1.5243164062499999
1.545263671875
1.5396240234374998
1.5323730468749999
1.5331787109375
1.5299560546875
0.7283203125
1.426025390625
1.5315673828124998
1.5041748046874999
1.571044921875
1.6701416015625
1.909423828125
1.9327880859375
1.5944091796875
1.5275390624999998
1.522705078125
1.5114257812499998
1.533984375
1.49853515625
1.5251220703125
1.5186767578125
1.4872558593749998
1.5082031249999999
1.5114257812499998
1.506591796875
1.5057861328125
1.754736328125
1.6725585937499998
1.448583984375
1.5476806640624998
1.5202880859374999
1.3752685546874999
1.2366943359375
1.3261230468749998
1.3341796874999998
1.4155517578124999
1.4687255859375
1.4993408203124998
1.4791992187499998
1.5436523437499998
1.5267333984375
1.538818359375
1.5331787109375
1.5436523437499998
1.5412353515625
1.5428466796875
1.533984375
0.7500732421874999
1.3728515625
1.593603515625
1.4759765624999999
1.5670166015625
1.67900390625
1.6733642578124999
2.0560546875
1.6089111328124999
1.5444580078124999
1.5251220703125
1.5122314453124999
1.5202880859374999
1.5235107421874998
1.52109375
1.5162597656249999
1.5114257812499998
1.5025634765625
1.5114257812499998
1.513037109375
1.5146484375
1.6435546875
2.0471923828125
1.4373046875
1.5275390624999998
1.5323730468749999
1.4300537109375
1.30517578125
1.316455078125
1.2995361328125
1.4228027343749998
1.4816162109375
1.4848388671875
1.5001464843749999
1.5243164062499999
1.53076171875
1.529150390625
1.5315673828124998
1.5492919921875
1.53076171875
1.5380126953125
1.5243164062499999
1.2898681640624998
0.9966064453125
1.6242187499999998
1.48564453125
1.533984375
1.670947265625
1.6725585937499998
2.1632080078125
1.6024658203125
1.542041015625
1.51787109375
1.5218994140625
1.5138427734375
1.5154541015624998
1.5106201171875
1.506591796875
1.5017578125
1.5122314453124999
1.5170654296875
1.506591796875
1.5122314453124999
1.5090087890625
2.1116455078125
1.4429443359374998
1.52109375
1.5355957031249998
1.4373046875
1.3865478515624998
1.2850341796875
1.27939453125
1.3857421875
1.461474609375
1.49853515625
1.4993408203124998
1.5001464843749999
1.5380126953125
1.5315673828124998
1.5186767578125
1.554931640625
1.5412353515625
1.5323730468749999
1.5283447265624999
1.409912109375
0.9321533203125
1.6161621093749998
1.4864501953125
1.5283447265624999
1.6000488281249998
1.6532226562499999
2.1301757812499997
1.7088134765624998
1.5605712890624999
1.52109375
1.5170654296875
1.5235107421874998
1.5331787109375
1.52109375
1.5315673828124998
1.5202880859374999
1.474365234375
1.50498046875
1.5170654296875
1.509814453125
1.5114257812499998
2.2872802734374997
1.45341796875
1.525927734375
1.5484863281249999
1.4888671875
1.3897705078125
1.203662109375
1.284228515625
1.3865478515624998
1.4574462890625
1.4880615234374999
1.5041748046874999
1.482421875
1.5565429687499999
1.5275390624999998
1.5476806640624998
1.533984375
1.5315673828124998
1.5355957031249998
1.5323730468749999
1.5202880859374999
0.8846191406249999
1.6105224609375
1.529150390625
1.496923828125
1.5976318359375
1.6435546875
1.85625
1.764404296875
1.558154296875
1.5283447265624999
1.509814453125
1.5090087890625
1.533984375
1.5073974609374998
1.5235107421874998
1.513037109375
1.4848388671875
1.5170654296875
1.5154541015624998
1.5162597656249999
1.4872558593749998
2.257470703125
1.606494140625
1.456640625
1.5492919921875
1.4977294921875
1.3825195312499998
1.1794921875
1.3019531249999998
1.3422363281249998
1.44052734375
1.4928955078125
1.50498046875
1.4840332031249999
1.546875
1.5218994140625
1.522705078125
1.5662109375
1.542041015625
1.538818359375
1.5323730468749999
1.5235107421874998
0.7460449218749999
1.4252197265625
1.529150390625
1.5017578125
1.5782958984375
1.6612792968749999
1.9271484374999999
1.91748046875
1.6008544921874999
1.5186767578125
1.5106201171875
1.51787109375
1.5331787109375
1.5025634765625
1.522705078125
1.4928955078125
1.5017578125
1.5162597656249999
1.509814453125
1.5082031249999999
1.5082031249999999
1.7571533203124998
1.6572509765624999
1.445361328125
1.53720703125
1.5041748046874999
1.3792968749999999
1.3575439453125
1.26328125
1.3446533203125
1.43408203125
1.474365234375
1.5041748046874999
1.4832275390624998
1.5396240234374998
1.5355957031249998
1.53076171875
1.5492919921875
1.5396240234374998
1.5299560546875
1.533984375
1.522705078125
0.7637695312499999
1.3833251953124999
1.5944091796875
1.4888671875
1.5678222656249998
1.667724609375
1.6862548828125
2.0488037109375
1.6161621093749998
1.5436523437499998
1.5202880859374999
1.5154541015624998
1.522705078125
1.533984375
1.5122314453124999
1.5162597656249999
1.513037109375
1.5001464843749999
1.5154541015624998
1.522705078125
1.5122314453124999
1.6781982421875
2.006103515625
1.4308593749999998
1.53720703125
1.5170654296875
1.4332763671875
1.3261230468749998
1.29228515625
1.3019531249999998
1.4308593749999998
1.474365234375
1.4945068359375
1.5033691406249998
1.5355957031249998
1.5347900390625
1.5299560546875
1.5541259765625
1.5412353515625
1.529150390625
1.529150390625
1.5243164062499999
1.2930908203125
1.003857421875
1.6177734375
1.4864501953125
1.525927734375
1.6604736328124998
1.6612792968749999
2.16884765625
1.6072998046875
1.5412353515625
1.5267333984375
1.5073974609374998
1.5186767578125
1.5235107421874998
1.5114257812499998
1.51787109375
1.4945068359375
1.5106201171875
1.5138427734375
1.5146484375
1.5122314453124999
1.5073974609374998
2.0971435546875
1.4477783203124999
1.5186767578125
1.5283447265624999
1.4461669921875
1.3656005859375
1.1923828125
1.3092041015625
1.3817138671875
1.474365234375
1.4945068359375
1.5025634765625
1.5025634765625
1.5476806640624998
1.5267333984375
1.5146484375
1.5436523437499998
1.5323730468749999
1.533984375
1.5267333984375
1.4155517578124999
0.9531005859374999
1.625830078125
1.477587890625
1.51787109375
1.603271484375
1.651611328125
2.1591796875
1.6991455078125
1.5517089843749998
1.5243164062499999
1.513037109375
1.5114257812499998
1.5283447265624999
1.5082031249999999
1.51787109375
1.5114257812499998
1.4953124999999998
1.513037109375
1.5138427734375
1.5033691406249998
1.51787109375
2.2985595703125
1.45341796875
1.5243164062499999
1.546875
1.4928955078125
1.3913818359374999
1.1867431640625
1.2987304687499999
1.3801025390625
1.456640625
1.482421875
1.5041748046874999
1.49853515625
1.55009765625
1.5251220703125
1.5428466796875
1.5428466796875
1.5380126953125
1.5331787109375
1.5315673828124998
1.5218994140625
0.8701171875
1.590380859375
1.5251220703125
1.5057861328125
1.59521484375
1.65
1.77890625
1.8256347656249998
1.5637939453124998
1.525927734375
1.51787109375
1.5194824218749998
1.5355957031249998
1.5025634765625
1.5202880859374999
1.506591796875
1.482421875
1.5146484375
1.52109375
1.5041748046874999
1.5033691406249998
2.26552734375
1.6089111328124999
1.4687255859375
1.5517089843749998
1.4888671875
1.38896484375
1.197216796875
1.287451171875
1.3398193359375
1.4574462890625
1.4953124999999998
1.50498046875
1.4888671875
1.5525146484374999
1.533984375
1.525927734375
1.5597656249999998
1.5347900390625
1.5323730468749999
1.522705078125
1.522705078125
0.7395996093749999
1.4187744140624998
1.5186767578125
1.4977294921875
1.5815185546875
1.6451660156249999
1.867529296875
1.980322265625
1.5726562499999999
1.52109375
1.5082031249999999
1.5154541015624998
1.5347900390625
1.506591796875
1.509814453125
1.496923828125
1.509814453125
1.513037109375
1.5154541015624998
1.5218994140625
1.5146484375
1.7668212890625
1.6491943359374999
1.4542236328125
1.5436523437499998
1.5025634765625
1.3768798828125
1.3527099609375
1.271337890625
1.33740234375
1.4381103515625
1.480810546875
1.4993408203124998
1.4872558593749998
1.5299560546875
1.5243164062499999
1.5162597656249999
1.5412353515625
1.545263671875
1.5323730468749999
1.533984375
1.53720703125
0.7855224609375
1.3849365234375
1.5895751953125
1.5073974609374998
1.5758789062499998
1.651611328125
1.6717529296875
1.9875732421874999
1.5992431640625
1.5396240234374998
1.5251220703125
1.5154541015624998
1.5235107421874998
1.5025634765625
1.522705078125
1.5122314453124999
1.4896728515625
1.509814453125
1.5122314453124999
1.513037109375
1.5090087890625
1.6773925781249999
2.0181884765625
1.4389160156249998
1.5380126953125
1.5412353515625
1.4348876953124998
1.3502929687499998
1.2963134765625
1.3172607421875
1.426025390625
1.4703369140625
1.4953124999999998
1.5146484375
1.5444580078124999
1.529150390625
1.5154541015624998
1.5283447265624999
1.5315673828124998
1.5186767578125
1.52109375
1.5251220703125
1.31162109375
1.02158203125
1.60166015625
1.4791992187499998
1.529150390625
1.6540283203125
1.6645019531249998
2.083447265625
1.6298583984375
1.5404296874999999
1.525927734375
1.5218994140625
1.5243164062499999
1.5315673828124998
1.5275390624999998
1.529150390625
1.5162597656249999
1.4953124999999998
1.509814453125
1.5114257812499998
1.5057861328125
1.5154541015624998
2.070556640625
1.4461669921875
1.5106201171875
1.5299560546875
1.44052734375
1.3672119140624999
1.2753662109375
1.2882568359375
1.3825195312499998
1.46630859375
1.4961181640624999
1.49853515625
1.490478515625
1.538818359375
1.5331787109375
1.52109375
1.554931640625
1.5364013671874999
1.5283447265624999
1.5380126953125
1.3994384765624999
0.958740234375
1.6056884765625
1.482421875
1.5170654296875
1.593603515625
1.63388671875
2.1583740234374997
1.683837890625
1.5654052734375
1.5235107421874998
1.5194824218749998
1.50498046875
1.529150390625
1.525927734375
1.5218994140625
1.5106201171875
1.5033691406249998
1.509814453125
1.496923828125
1.4977294921875
1.509814453125
2.2743896484375
1.4501953125
1.5355957031249998
1.55009765625
1.5025634765625
1.38896484375
1.184326171875
1.3309570312499999
1.3954101562499999
1.4655029296875
1.4816162109375
1.490478515625
1.513037109375
1.56298828125
1.5444580078124999
1.5202880859374999
1.5662109375
1.5243164062499999
1.5396240234374998
1.533984375
1.5428466796875
0.8983154296875
1.6153564453125
1.533984375
1.5114257812499998
1.5831298828125
1.6435546875
1.8699462890624998
1.7378173828124999
1.542041015625
1.5315673828124998
1.522705078125
1.5170654296875
1.529150390625
1.4912841796874998
1.4928955078125
1.5082031249999999
1.4928955078125
1.5323730468749999
1.5146484375
1.50498046875
1.509814453125
2.273583984375
1.6040771484374998
1.4655029296875
1.5621826171875
1.5194824218749998
1.4155517578124999
1.2125244140625
1.2979248046874998
1.3414306640625
1.4348876953124998
1.4671142578124998
1.513037109375
1.493701171875
1.5734619140625
1.5404296874999999
1.5299560546875
1.5122314453124999
1.50498046875
1.5138427734375
1.5122314453124999
1.5082031249999999
0.7234863281249999
1.448583984375
1.5396240234374998
1.5082031249999999
1.5782958984375
1.6290527343749999
1.786962890625
2.0004638671875
1.5992431640625
1.5041748046874999
1.513037109375
1.51787109375
1.5517089843749998
1.5436523437499998
1.5645996093749999
1.53076171875
1.4896728515625
1.5090087890625
1.513037109375
1.5138427734375
1.5146484375
1.7845458984375
1.6435546875
1.456640625
1.55009765625
1.4993408203124998
1.38896484375
1.3220947265624998
1.3261230468749998
1.3341796874999998
1.4381103515625
1.4719482421874999
1.4920898437499999
1.4703369140625
1.5073974609374998
1.509814453125
1.5001464843749999
1.5331787109375
1.5404296874999999
1.533984375
1.5396240234374998
1.53720703125
0.7565185546875
1.4091064453125
1.6048828124999999
1.4993408203124998
1.5758789062499998
1.6765869140624998
1.6733642578124999
1.95615234375
1.6081054687499998
1.5396240234374998
1.5243164062499999
1.5275390624999998
1.5218994140625
1.525927734375
1.5186767578125
1.5057861328125
1.50498046875
1.4993408203124998
1.48564453125
1.4945068359375
1.4872558593749998
1.67578125
2.0181884765625
1.432470703125
1.53720703125
1.5355957031249998
1.4397216796874999
1.3833251953124999
1.24716796875
1.2721435546875
1.3744628906249998
1.4759765624999999
1.4912841796874998
1.490478515625
1.5476806640624998
1.542041015625
1.52109375
1.5364013671874999
1.5533203125
1.5428466796875
1.5299560546875
1.4800048828124999
1.1794921875
0.9418212890625
1.5944091796875
1.4872558593749998
1.5605712890624999
1.62744140625
1.7007568359374998
2.14306640625
1.740234375
1.5734619140625
1.5944091796875
1.5976318359375
1.5460693359375
1.5315673828124998
1.506591796875
1.522705078125
1.5041748046874999
1.458251953125
1.47275390625
1.4896728515625
1.5275390624999998
1.5525146484374999
2.096337890625
1.393798828125
1.4671142578124998
1.51787109375
1.43408203125
1.3664062499999998
1.197216796875
1.2858398437499998
1.3954101562499999
1.4679199218749999
1.4961181640624999
1.509814453125
1.513037109375
1.5541259765625
1.5235107421874998
1.5380126953125
1.5202880859374999
1.496923828125
1.5235107421874998
1.53720703125
1.3575439453125
0.8805908203124999
1.5944091796875
1.5073974609374998
1.5557373046874998
1.6564453124999998
1.69189453125
2.196240234375
1.7418457031249999
1.5573486328125
1.5275390624999998
1.5355957031249998
1.5315673828124998
1.5347900390625
1.4783935546875
1.4977294921875
1.5243164062499999
1.5194824218749998
1.5243164062499999
1.545263671875
1.5726562499999999
1.5396240234374998
2.4041015624999997
1.585546875
1.5267333984375
1.522705078125
1.4606689453125
1.3551269531249999
1.1174560546874999
1.2697265624999998
1.316455078125
1.464697265625
1.4791992187499998
1.4888671875
1.4767822265625
1.5267333984375
1.5138427734375
1.506591796875
1.5637939453124998
1.522705078125
1.5017578125
1.5114257812499998
1.509814453125
0.6598388671875
1.4751708984374998
1.5444580078124999
1.5428466796875
1.6137451171875
1.6685302734374998
2.0761962890625
1.909423828125
1.5927978515624999
1.5645996093749999
1.5484863281249999
1.5364013671874999
1.5412353515625
1.4912841796874998
1.5009521484375
1.4735595703125
1.46953125
1.509814453125
1.4945068359375
1.4945068359375
1.4840332031249999
1.9569580078125
1.5589599609375
1.4107177734374998
1.477587890625
1.47275390625
1.4244140625
1.364794921875
1.3414306640625
1.3656005859375
1.448583984375
1.4791992187499998
1.5218994140625
1.4920898437499999
1.5428466796875
1.5090087890625
1.5162597656249999
1.5331787109375
1.52109375
1.5154541015624998
1.522705078125
1.513037109375
0.6421142578125
1.4477783203124999
1.5726562499999999
1.47275390625
1.522705078125
1.6048828124999999
1.6773925781249999
2.0649169921875
1.611328125
1.5412353515625
1.5275390624999998
1.545263671875
1.5662109375
1.5444580078124999
1.5533203125
1.5533203125
1.5364013671874999
1.5404296874999999
1.5380126953125
1.5412353515625
1.5589599609375
1.9190917968749999
1.977099609375
1.43408203125
1.5194824218749998
1.5017578125
1.35673828125
1.21171875
1.229443359375
1.26328125
1.4397216796874999
1.4703369140625
1.4848388671875
1.4703369140625
1.5162597656249999
1.5162597656249999
1.5218994140625
1.5702392578125
1.5283447265624999
1.5218994140625
1.50498046875
1.5194824218749998
1.0530029296874999
1.0167480468749999
1.5976318359375
1.5146484375
1.5718505859374998
1.7104248046875
1.6959228515625
2.2276611328125
1.5992431640625
1.5380126953125
1.5243164062499999
1.5275390624999998
1.529150390625
1.5355957031249998
1.5315673828124998
1.506591796875
1.493701171875
1.5251220703125
1.5533203125
1.5428466796875
1.5138427734375
1.4961181640624999
2.0230224609375
1.40185546875
1.52109375
1.5106201171875
1.3857421875
1.33740234375
1.1077880859375
1.2785888671874999
1.364794921875
1.4518066406249999
1.4912841796874998
1.4864501953125
1.5170654296875
1.5380126953125
1.5243164062499999
1.5299560546875
1.5807128906249999
1.53720703125
1.538818359375
1.5323730468749999
1.1883544921875
0.9869384765625
1.635498046875
1.46953125
1.538818359375
1.6363037109374998
1.6894775390624999
2.2421630859375
1.67900390625
1.5428466796875
1.4912841796874998
1.5073974609374998
1.506591796875
1.5927978515624999
1.5082031249999999
1.5106201171875
1.5138427734375
1.5202880859374999
1.5597656249999998
1.545263671875
1.5218994140625
1.5243164062499999
2.441162109375
1.5001464843749999
1.4993408203124998
1.5275390624999998
1.4630859374999998
1.329345703125
1.1295410156249999
1.2350830078125
1.3261230468749998
1.432470703125
1.4550292968749998
1.509814453125
1.533984375
1.58232421875
1.5557373046874998
1.577490234375
1.5662109375
1.5492919921875
1.5525146484374999
1.5364013671874999
1.4961181640624999
0.5615478515625
1.6161621093749998
1.4711425781249998
1.4622802734375
1.525927734375
1.606494140625
1.8973388671875
2.03994140625
1.625830078125
1.5766845703124999
1.5573486328125
1.5621826171875
1.609716796875
1.6105224609375
1.6306640625
1.5323730468749999
1.4606689453125
1.456640625
1.482421875
1.4840332031249999
1.4590576171874998
2.3887939453125
1.49853515625
1.432470703125
1.529150390625
1.4751708984374998
1.3510986328124999
1.203662109375
1.2785888671874999
1.3583496093749998
1.477587890625
1.4953124999999998
1.51787109375
1.4928955078125
1.5565429687499999
1.5347900390625
1.5146484375
1.5428466796875
1.5275390624999998
1.5331787109375
1.5170654296875
1.5202880859374999
0.5824951171875
1.522705078125
1.5758789062499998
1.4961181640624999
1.590380859375
1.6951171875
1.732177734375
1.9086181640625
1.5944091796875
1.5428466796875
1.5404296874999999
1.525927734375
1.5090087890625
1.4912841796874998
1.5033691406249998
1.4848388671875
1.496923828125
1.5146484375
1.5090087890625
1.4961181640624999
1.5001464843749999
2.015771484375
1.8788085937499999
1.41796875
1.5444580078124999
1.5017578125
1.3873535156249999
1.300341796875
1.2101074218749999
1.2834228515625
1.4091064453125
1.490478515625
1.5380126953125
1.542041015625
1.5396240234374998
1.4993408203124998
1.506591796875
1.513037109375
1.522705078125
1.513037109375
1.5162597656249999
1.53076171875
0.9152343749999999
1.1706298828125
1.65
1.4977294921875
1.56943359375
1.7023681640625
1.7474853515625
2.2308837890624997
1.6685302734374998
1.5283447265624999
1.529150390625
1.53076171875
1.509814453125
1.4928955078125
1.4767822265625
1.4816162109375
1.4832275390624998
1.4864501953125
1.5299560546875
1.513037109375
1.50498046875
1.4961181640624999
2.360595703125
1.426025390625
1.5283447265624999
1.546875
1.46630859375
1.3011474609375
1.1819091796874999
1.239111328125
1.4187744140624998
1.4920898437499999
1.4945068359375
1.5001464843749999
1.5106201171875
1.5436523437499998
1.56298828125
1.5791015625
1.571044921875
1.5637939453124998
1.5283447265624999
1.506591796875
1.5001464843749999
0.652587890625
1.6105224609375
1.4622802734375
1.5202880859374999
1.6000488281249998
1.6854492187499999
2.0713623046875
1.9053955078125
1.5541259765625
1.4840332031249999
1.4703369140625
1.47275390625
1.5162597656249999
1.5033691406249998
1.5170654296875
1.5194824218749998
1.4848388671875
1.5090087890625
1.4864501953125
1.5082031249999999
1.5380126953125
2.3984619140625
1.5509033203125
1.5404296874999999
1.5476806640624998
1.4469726562499998
1.3422363281249998
1.1512939453125
1.2850341796875
1.3446533203125
1.4622802734375
1.5541259765625
1.6089111328124999
1.4977294921875
1.509814453125
1.4912841796874998
1.5323730468749999
1.56943359375
1.5138427734375
1.506591796875
1.5009521484375
1.4977294921875
0.620361328125
1.5758789062499998
1.5364013671874999
1.493701171875
1.5863525390625
1.683837890625
1.8989501953124999
2.038330078125
1.5686279296874999
1.538818359375
1.5267333984375
1.5218994140625
1.525927734375
1.4920898437499999
1.5017578125
1.474365234375
1.4920898437499999
1.493701171875
1.5154541015624998
1.5202880859374999
1.51787109375
2.2518310546875
1.6854492187499999
1.3954101562499999
1.5436523437499998
1.533984375
1.40185546875
1.3744628906249998
1.2955078125
1.348681640625
1.4228027343749998
1.45341796875
1.49853515625
1.4832275390624998
1.5364013671874999
1.5082031249999999
1.525927734375
1.55009765625
1.5347900390625
1.5251220703125
1.5380126953125
1.5202880859374999
0.69609375
1.3124267578125
1.6209960937499999
1.46953125
1.5734619140625
1.6886718749999998
1.6991455078125
2.157568359375
1.6209960937499999
1.53076171875
1.5428466796875
1.5396240234374998
1.5364013671874999
1.558154296875
1.51787109375
1.5057861328125
1.4896728515625
1.496923828125
1.5017578125
1.49853515625
1.47275390625
1.5428466796875
2.1785156249999997
1.4655029296875
1.5662109375
1.5734619140625
1.4413330078125
1.3309570312499999
1.2616699218749998
1.2705322265624999
1.3752685546874999
1.46953125
1.4832275390624998
1.506591796875
1.5202880859374999
1.5428466796875
1.5565429687499999
1.5815185546875
1.5323730468749999
1.522705078125
1.5243164062499999
1.5194824218749998
1.4074951171874999
0.9047607421874999
1.654833984375
1.45341796875
1.509814453125
1.5919921874999998
1.65
2.128564453125
1.703173828125
1.5162597656249999
1.509814453125
1.5299560546875
1.5396240234374998
1.5589599609375
1.5323730468749999
1.5331787109375
1.542041015625
1.5718505859374998
1.59521484375
1.5492919921875
1.5807128906249999
1.5662109375
2.3887939453125
1.4759765624999999
1.4783935546875
1.53076171875
1.464697265625
1.3204833984375
1.1150390625
1.2608642578125
1.351904296875
1.4550292968749998
1.4590576171874998
1.4469726562499998
1.461474609375
1.5436523437499998
1.51787109375
1.5194824218749998
1.590380859375
1.571044921875
1.5605712890624999
1.5605712890624999
1.5436523437499998
0.6211669921874999
1.5146484375
1.6153564453125
1.5605712890624999
1.5726562499999999
1.6250244140624999
2.051220703125
1.8884765625
1.5364013671874999
1.5025634765625
1.4840332031249999
1.496923828125
1.51787109375
1.4920898437499999
1.5162597656249999
1.4977294921875
1.5122314453124999
1.542041015625
1.5194824218749998
1.529150390625
1.50498046875
1.9489013671875
1.5758789062499998
1.4195800781249999
1.5170654296875
1.4606689453125
1.3881591796875
1.37607421875
1.3237060546875
1.3285400390625
1.4276367187499999
1.4703369140625
1.5009521484375
1.474365234375
1.5637939453124998
1.5073974609374998
1.5218994140625
1.5541259765625
1.5162597656249999
1.5041748046874999
1.5146484375
1.5073974609374998
0.9627685546875
1.4373046875
1.5847412109374999
1.4711425781249998
1.5670166015625
1.67900390625
1.699951171875
2.199462890625
1.609716796875
1.5484863281249999
1.5509033203125
1.5283447265624999
1.538818359375
1.5541259765625
1.5758789062499998
1.542041015625
1.5057861328125
1.5057861328125
1.53720703125
1.5670166015625
1.5355957031249998
1.85625
1.9376220703125
1.3744628906249998
1.4896728515625
1.5001464843749999
1.3857421875
1.3317626953125
1.264892578125
1.281005859375
1.3728515625
1.456640625
1.5017578125
1.5017578125
1.5090087890625
1.5218994140625
1.5073974609374998
1.5492919921875
1.5323730468749999
1.5347900390625
1.5331787109375
1.5275390624999998
1.026416015625
1.01513671875
1.651611328125
1.4953124999999998
1.5782958984375
1.6620849609375
1.690283203125
2.2614990234375
1.6951171875
1.5605712890624999
1.538818359375
1.533984375
1.577490234375
1.6072998046875
1.4800048828124999
1.4397216796874999
1.4550292968749998
1.51787109375
1.5251220703125
1.5283447265624999
1.5275390624999998
1.5057861328125
2.3525390625
1.432470703125
1.5001464843749999
1.5331787109375
1.46630859375
1.4397216796874999
1.13115234375
1.2906738281249999
1.3502929687499998
1.5404296874999999
1.5090087890625
1.464697265625
1.4219970703125
1.5001464843749999
1.4880615234374999
1.525927734375
1.5895751953125
1.5331787109375
1.5170654296875
1.50498046875
1.4816162109375
0.6171386718749999
1.6218017578125
1.51787109375
1.5331787109375
1.609716796875
1.7007568359374998
2.244580078125
1.867529296875
1.60166015625
1.5927978515624999
1.577490234375
1.5396240234374998
1.5146484375
1.4622802734375
1.4687255859375
1.46953125
1.4622802734375
1.49853515625
1.5033691406249998
1.48564453125
1.50498046875
2.2888916015625
1.735400390625
1.4501953125
1.5364013671874999
1.4437499999999999
1.3261230468749998
1.1351806640625
1.248779296875
1.3269287109374999
1.4356933593749999
1.4872558593749998
1.5404296874999999
1.5194824218749998
1.593603515625
1.590380859375
1.6967285156249998
1.6435546875
1.5218994140625
1.4783935546875
1.5041748046874999
1.48564453125
0.6574218749999999
1.5299560546875
1.545263671875
1.4437499999999999
1.5476806640624998
1.6894775390624999
1.7096191406249999
2.2171875
1.6693359374999999
1.52109375
1.5331787109375
1.5323730468749999
1.5621826171875
1.5146484375
1.5355957031249998
1.513037109375
1.474365234375
1.506591796875
1.5122314453124999
1.4993408203124998
1.4759765624999999
1.533984375
1.79501953125
1.4058837890625
1.5186767578125
1.5057861328125
1.37607421875
1.335791015625
1.2374999999999998
1.3140380859374998
1.4268310546874998
1.4711425781249998
1.4840332031249999
1.4928955078125
1.49853515625
1.513037109375
1.506591796875
1.525927734375
1.5476806640624998
1.5750732421875
1.5573486328125
1.5122314453124999
0.7565185546875
1.1947998046875
1.606494140625
1.4526123046875
1.574267578125
1.706396484375
1.7426513671875
2.344482421875
1.6564453124999998
1.5565429687499999
1.5670166015625
1.5275390624999998
1.5170654296875
1.5597656249999998
1.5509033203125
1.4912841796874998
1.4397216796874999
1.4542236328125
1.480810546875
1.4832275390624998
1.490478515625
1.5114257812499998
2.302587890625
1.4187744140624998
1.52109375
1.5750732421875
1.4791992187499998
1.3728515625
1.1134277343749999
1.2640869140625
1.3253173828125
1.456640625
1.4751708984374998
1.4832275390624998
1.4816162109375
1.5283447265624999
1.5122314453124999
1.53076171875
1.5815185546875
1.5315673828124998
1.5283447265624999
1.52109375
1.5009521484375
0.7299316406249999
1.66611328125
1.4945068359375
1.5355957031249998
1.606494140625
1.6693359374999999
2.247802734375
1.780517578125
1.5517089843749998
1.5090087890625
1.509814453125
1.5106201171875
1.5218994140625
1.5597656249999998
1.5678222656249998
1.5251220703125
1.4880615234374999
1.5057861328125
1.5025634765625
1.5033691406249998
1.5283447265624999
2.46533203125
1.5879638671874998
1.4832275390624998
1.546875
1.4703369140625
1.3599609375
1.1271240234375
1.2592529296875
1.3430419921874999
1.4348876953124998
1.46953125
1.4840332031249999
1.4477783203124999
1.5122314453124999
1.4888671875
1.561376953125
1.5702392578125
1.56298828125
1.5541259765625
1.5275390624999998
1.5194824218749998
0.5228759765625
1.4437499999999999
1.5605712890624999
1.5033691406249998
1.5799072265624998
1.7072021484375
1.8506103515624999
2.1865722656249997
1.6129394531249999
1.5654052734375
1.529150390625
1.49853515625
1.5186767578125
1.5009521484375
1.5122314453124999
1.4896728515625
1.4598632812499999
1.5041748046874999
1.5025634765625
1.5009521484375
1.50498046875
1.8062988281249999
1.6411376953124999
1.4244140625
1.546875
1.4767822265625
1.3414306640625
1.3011474609375
1.2689208984375
1.2930908203125
1.4010498046875
1.4751708984374998
1.493701171875
1.4574462890625
1.5122314453124999
1.5194824218749998
1.4953124999999998
1.5637939453124998
1.5605712890624999
1.545263671875
1.558154296875
1.5525146484374999
0.5873291015625
1.40830078125
1.6951171875
1.506591796875
1.545263671875
1.6878662109375
1.6798095703125
2.296142578125
1.59521484375
1.538818359375
1.5041748046874999
1.5033691406249998
1.509814453125
1.5082031249999999
1.5355957031249998
1.522705078125
1.5114257812499998
1.5275390624999998
1.525927734375
1.52109375
1.5106201171875
1.6733642578124999
2.11083984375
1.384130859375
1.5275390624999998
1.5275390624999998
1.4010498046875
1.3446533203125
1.216552734375
1.271337890625
1.3664062499999998
1.4622802734375
1.4840332031249999
1.482421875
1.5057861328125
1.5186767578125
1.5146484375
1.5186767578125
1.5509033203125
1.5380126953125
1.538818359375
1.5235107421874998
1.2721435546875
0.928125
1.662890625
1.4703369140625
1.5444580078124999
1.65
1.7055908203124999
2.257470703125
1.699951171875
1.5517089843749998
1.5106201171875
1.509814453125
1.509814453125
1.5323730468749999
1.5154541015624998
1.5243164062499999
1.5283447265624999
1.48564453125
1.5090087890625
1.5154541015624998
1.525927734375
1.522705078125
2.4693603515625
1.474365234375
1.4961181640624999
1.5645996093749999
1.464697265625
1.353515625
1.1706298828125
1.2503906249999999
1.35673828125
1.448583984375
1.4800048828124999
1.4977294921875
1.4896728515625
1.5541259765625
1.5235107421874998
1.5484863281249999
1.5315673828124998
1.529150390625
1.5355957031249998
1.5355957031249998
1.5186767578125
0.5470458984375
1.5960205078124998
1.5364013671874999
1.5122314453124999
1.585546875
1.6685302734374998
1.9424560546874998
2.0343017578125
1.5597656249999998
1.5299560546875
1.51787109375
1.513037109375
1.5404296874999999
1.5146484375
1.529150390625
1.5170654296875
1.490478515625
1.5057861328125
1.51787109375
1.5218994140625
1.5025634765625
2.0826416015625
1.5001464843749999
1.4042724609375
1.5315673828124998
1.4945068359375
1.3664062499999998
1.2608642578125
1.2785888671874999
1.3204833984375
1.4252197265625
1.477587890625
1.5001464843749999
1.4759765624999999
1.5484863281249999
1.5331787109375
1.522705078125
1.5605712890624999
1.5476806640624998
1.5436523437499998
1.53720703125
1.5251220703125
0.7943847656249999
1.5106201171875
1.6072998046875
1.4880615234374999
1.5645996093749999
1.7152587890625
1.7764892578125
2.1946289062499997
1.590380859375
1.53720703125
1.5218994140625
1.506591796875
1.5154541015624998
1.5033691406249998
1.5299560546875
1.5275390624999998
1.5299560546875
1.5154541015624998
1.5090087890625
1.5090087890625
1.5009521484375
1.948095703125
1.9311767578124999
1.380908203125
1.4638916015624999
1.525927734375
1.3543212890624998
1.3043701171875
1.197216796875
1.22138671875
1.3873535156249999
1.4791992187499998
1.52109375
1.4993408203124998
1.5404296874999999
1.5380126953125
1.5323730468749999
1.533984375
1.5396240234374998
1.5275390624999998
1.5267333984375
1.5347900390625
0.9152343749999999
1.0739501953125
1.703173828125
1.5082031249999999
1.5597656249999998
1.6830322265625
1.7329833984374998
2.3114501953124997
1.6653076171874999
1.53720703125
1.5033691406249998
1.5194824218749998
1.542041015625
1.542041015625
1.5202880859374999
1.529150390625
1.5154541015624998
1.480810546875
1.496923828125
1.4977294921875
1.496923828125
1.5090087890625
2.4274658203125
1.4252197265625
1.493701171875
1.5267333984375
1.4493896484375
1.3430419921874999
1.2093017578125
1.24072265625
1.3881591796875
1.4622802734375
1.482421875
1.5082031249999999
1.4953124999999998
1.5106201171875
1.4791992187499998
1.5436523437499998
1.5436523437499998
1.5525146484374999
1.558154296875
1.5347900390625
1.5162597656249999
0.5824951171875
1.699951171875
1.51787109375
1.51787109375
1.6717529296875
1.690283203125
2.2067138671874997
1.690283203125
1.5275390624999998
1.5033691406249998
1.4953124999999998
1.5194824218749998
1.5299560546875
1.5146484375
1.525927734375
1.5235107421874998
1.4945068359375
1.506591796875
1.51787109375
1.513037109375
1.4953124999999998
2.4822509765625
1.46630859375
1.4840332031249999
1.5460693359375
1.4518066406249999
1.3446533203125
1.0916748046875
1.2495849609374998
1.3229003906249999
1.456640625
1.50498046875
1.5194824218749998
1.4848388671875
1.545263671875
1.5146484375
1.5162597656249999
1.5782958984375
1.5331787109375
1.5355957031249998
1.53076171875
1.5235107421874998
0.5760498046875
1.603271484375
1.5009521484375
1.5073974609374998
1.5919921874999998
1.7007568359374998
2.263916015625
1.828857421875
1.5662109375
1.5090087890625
1.4928955078125
1.496923828125
1.5275390624999998
1.5138427734375
1.5267333984375
1.522705078125
1.5025634765625
1.5194824218749998
1.5235107421874998
1.5138427734375
1.5114257812499998
2.254248046875
1.7668212890625
1.448583984375
1.546875
1.4800048828124999
1.351904296875
1.1666015625
1.2528076171875
1.2769775390625
1.4574462890625
1.4912841796874998
1.5218994140625
1.4783935546875
1.5686279296874999
1.5476806640624998
1.5492919921875
1.5428466796875
1.5283447265624999
1.5154541015624998
1.5202880859374999
1.509814453125
0.6695068359374999
1.2383056640624999
1.6024658203125
1.4928955078125
1.577490234375
1.722509765625
1.7531249999999998
2.2244384765625
1.5621826171875
1.5106201171875
1.5082031249999999
1.5009521484375
1.52109375
1.5017578125
1.5186767578125
1.5138427734375
1.4864501953125
1.4953124999999998
1.509814453125
1.506591796875
1.5057861328125
1.5315673828124998
1.8473876953125
1.3897705078125
1.5186767578125
1.4920898437499999
1.3575439453125
1.3253173828125
1.2560302734375
1.2858398437499998
1.397021484375
1.4679199218749999
1.4880615234374999
1.490478515625
1.529150390625
1.55009765625
1.52109375
1.55009765625
1.5412353515625
1.533984375
1.5251220703125
1.5267333984375
0.82177734375
1.1867431640625
1.6894775390624999
1.5033691406249998
1.5750732421875
1.6781982421875
1.7007568359374998
2.2365234375
1.6371093749999999
1.5299560546875
1.5082031249999999
1.5033691406249998
1.5057861328125
1.5202880859374999
1.525927734375
1.52109375
1.490478515625
1.5041748046874999
1.506591796875
1.5082031249999999
1.5122314453124999
1.5122314453124999
2.3404541015625
1.4300537109375
1.5009521484375
1.5396240234374998
1.4381103515625
1.3204833984375
1.1061767578125
1.27294921875
1.3510986328124999
1.4832275390624998
1.5025634765625
1.5057861328125
1.5146484375
1.538818359375
1.5057861328125
1.525927734375
1.56298828125
1.5267333984375
1.533984375
1.5251220703125
1.5122314453124999
0.7162353515625
1.6951171875
1.5275390624999998
1.5412353515625
1.6572509765624999
1.6951171875
2.26875
1.7362060546875
1.52109375
1.5057861328125
1.5057861328125
1.5218994140625
1.5484863281249999
1.5275390624999998
1.533984375
1.5162597656249999
1.49853515625
1.525927734375
1.52109375
1.5082031249999999
1.4993408203124998
2.3718749999999997
1.4397216796874999
1.477587890625
1.4840332031249999
1.4171630859375
1.345458984375
1.1150390625
1.2834228515625
1.3929931640625
1.4550292968749998
1.5001464843749999
1.5017578125
1.4791992187499998
1.542041015625
1.5235107421874998
1.5509033203125
1.53720703125
1.525927734375
1.5315673828124998
1.5267333984375
1.5138427734375
0.64453125
1.6266357421875
1.571044921875
1.5347900390625
1.6105224609375
1.69189453125
2.051220703125
1.9295654296875
1.5605712890624999
1.5025634765625
1.5033691406249998
1.51787109375
1.554931640625
1.5235107421874998
1.525927734375
1.5041748046874999
1.477587890625
1.5073974609374998
1.51787109375
1.5082031249999999
1.50498046875
2.3033935546874997
1.69189453125
1.4550292968749998
1.5509033203125
1.493701171875
1.361572265625
1.1400146484375
1.2665039062499999
1.3430419921874999
1.456640625
1.4832275390624998
1.5057861328125
1.482421875
1.5637939453124998
1.5235107421874998
1.525927734375
1.56298828125
1.533984375
1.529150390625
1.538818359375
1.529150390625
0.6646728515625
1.5927978515624999
1.5960205078124998
1.50498046875
1.6048828124999999
1.7023681640625
1.7974365234374998
2.1140624999999997
1.5597656249999998
1.52109375
1.5106201171875
1.5122314453124999
1.51787109375
1.4848388671875
1.513037109375
1.4953124999999998
1.4961181640624999
1.5106201171875
1.5114257812499998
1.490478515625
1.5057861328125
2.2171875
1.77568359375
1.3954101562499999
1.5396240234374998
1.480810546875
1.3502929687499998
1.3309570312499999
1.2568359375
1.2930908203125
1.426025390625
1.4872558593749998
1.513037109375
1.4953124999999998
1.5597656249999998
1.5202880859374999
1.52109375
1.5299560546875
1.5396240234374998
1.5323730468749999
1.533984375
1.52109375
0.7597412109374999
1.2624755859374999
1.6653076171874999
1.5025634765625
1.5702392578125
1.6806152343749998
1.7289550781249998
2.18173828125
1.6451660156249999
1.509814453125
1.506591796875
1.5041748046874999
1.525927734375
1.5170654296875
1.5154541015624998
1.5218994140625
1.482421875
1.50498046875
1.5154541015624998
1.5082031249999999
1.5057861328125
1.5347900390625
2.2341064453125
1.3905761718749998
1.509814453125
1.5243164062499999
1.3720458984375
1.3285400390625
1.281005859375
1.3027587890624999
1.4091064453125
1.46953125
1.4888671875
1.5041748046874999
1.533984375
1.545263671875
1.5331787109375
1.529150390625
1.5364013671874999
1.52109375
1.5283447265624999
1.522705078125
1.47275390625
1.20849609375
1.6717529296875
1.490478515625
1.5621826171875
1.6556396484375
1.6822265625
2.22041015625
1.638720703125
1.5275390624999998
1.5114257812499998
1.509814453125
1.5122314453124999
1.5267333984375
1.522705078125
1.5347900390625
1.533984375
1.51787109375
1.5162597656249999
1.496923828125
1.50498046875
1.5090087890625
2.2856689453125
1.4268310546874998
1.5114257812499998
1.5380126953125
1.4437499999999999
1.3269287109374999
1.213330078125
1.2608642578125
1.361572265625
1.47275390625
1.4993408203124998
1.5057861328125
1.5082031249999999
1.5436523437499998
1.5315673828124998
1.5347900390625
1.5654052734375
1.5380126953125
1.53076171875
1.5235107421874998
1.5033691406249998
0.752490234375
1.67578125
1.509814453125
1.5122314453124999
1.5919921874999998
1.6846435546874998
2.2792236328124997
1.7200927734375
1.5347900390625
1.50498046875
1.4920898437499999
1.5114257812499998
1.529150390625
1.50498046875
1.51787109375
1.5001464843749999
1.5138427734375
1.5323730468749999
1.5041748046874999
1.4945068359375
1.5017578125
2.34931640625
1.4397216796874999
1.48564453125
1.546875
1.456640625
1.3688232421875
1.1537109374999999
1.27294921875
1.3502929687499998
1.4679199218749999
1.5041748046874999
1.513037109375
1.5017578125
1.554931640625
1.5154541015624998
1.51787109375
1.56298828125
1.5404296874999999
1.5331787109375
1.52109375
1.5170654296875
0.694482421875
1.6234130859375
1.5654052734375
1.5170654296875
1.59521484375
1.6975341796874999
2.11083984375
1.8489990234375
1.5557373046874998
1.5154541015624998
1.5114257812499998
1.5162597656249999
1.53076171875
1.5194824218749998
1.5154541015624998
1.509814453125
1.4791992187499998
1.5146484375
1.5073974609374998
1.5122314453124999
1.5090087890625
2.2840576171875
1.6749755859375
1.4630859374999998
1.5484863281249999
1.4928955078125
1.2979248046874998
1.1593505859375
1.2673095703125
1.3212890625
1.4630859374999998
1.4880615234374999
1.5073974609374998
1.47275390625
1.571044921875
1.5323730468749999
1.5396240234374998
1.5283447265624999
1.5251220703125
1.525927734375
1.5218994140625
1.50498046875
0.6485595703125
1.5702392578125
1.5758789062499998
1.513037109375
1.6121337890624998
1.7088134765624998
1.7313720703125
2.180126953125
1.5654052734375
1.5194824218749998
1.4977294921875
1.506591796875
1.5235107421874998
1.493701171875
1.5243164062499999
1.5170654296875
1.4783935546875
1.5114257812499998
1.5162597656249999
1.5162597656249999
1.5122314453124999
2.189794921875
1.7458740234374999
1.4066894531249998
1.5243164062499999
1.49853515625
1.3551269531249999
1.32451171875
1.2987304687499999
1.2955078125
1.426025390625
1.4840332031249999
1.506591796875
1.509814453125
1.5186767578125
1.5251220703125
1.5122314453124999
1.509814453125
1.53720703125
1.5283447265624999
1.529150390625
1.5243164062499999
0.7541015624999999
1.3092041015625
1.6701416015625
1.49853515625
1.5637939453124998
1.6749755859375
1.832080078125
2.0713623046875
1.5927978515624999
1.509814453125
1.5057861328125
1.5146484375
1.5194824218749998
1.5041748046874999
1.5170654296875
1.5218994140625
1.4953124999999998
1.509814453125
1.5154541015624998
1.5106201171875
1.506591796875
1.5436523437499998
2.183349609375
1.40830078125
1.5162597656249999
1.533984375
1.3768798828125
1.3470703124999999
1.222998046875
1.2745605468749999
1.4252197265625
1.4920898437499999
1.49853515625
1.4977294921875
1.5396240234374998
1.5323730468749999
1.5267333984375
1.5460693359375
1.5347900390625
1.522705078125
1.522705078125
1.4961181640624999
1.432470703125
1.2511962890625
1.6886718749999998
1.496923828125
1.5315673828124998
1.670947265625
1.6967285156249998
2.1205078125
1.6435546875
1.5186767578125
1.51787109375
1.5154541015624998
1.51787109375
1.53720703125
1.5162597656249999
1.525927734375
1.5146484375
1.4783935546875
1.522705078125
1.5114257812499998
1.5009521484375
1.5162597656249999
2.2429687499999997
1.41796875
1.4953124999999998
1.5267333984375
1.4413330078125
1.3688232421875
1.2495849609374998
1.2858398437499998
1.3744628906249998
1.4719482421874999
1.4920898437499999
1.5057861328125
1.4767822265625
1.5404296874999999
1.522705078125
1.5380126953125
1.545263671875
1.53720703125
1.5251220703125
1.5283447265624999
1.5001464843749999
0.7927734375
1.6379150390625
1.496923828125
1.5283447265624999
1.59521484375
1.6725585937499998
2.1760986328125
1.7829345703125
1.533984375
1.51787109375
1.5001464843749999
1.506591796875
1.525927734375
1.5154541015624998
1.5218994140625
1.4977294921875
1.5041748046874999
1.5082031249999999
1.5122314453124999
1.522705078125
1.5235107421874998
2.328369140625
1.4316650390624999
1.4783935546875
1.5364013671874999
1.4542236328125
1.3551269531249999
1.1802978515625
1.2906738281249999
1.35673828125
1.4759765624999999
1.4888671875
1.51787109375
1.4872558593749998
1.5541259765625
1.52109375
1.5267333984375
1.5807128906249999
1.5484863281249999
1.5380126953125
1.5323730468749999
1.5146484375
0.7323486328125
1.5919921874999998
1.5605712890624999
1.5243164062499999
1.587158203125
1.6620849609375
1.9062011718749998
1.7901855468749999
1.5605712890624999
1.529150390625
1.5057861328125
1.522705078125
1.529150390625
1.5186767578125
1.5235107421874998
1.5122314453124999
1.4864501953125
1.5138427734375
1.5146484375
1.509814453125
1.506591796875
2.254248046875
1.6693359374999999
1.3986328124999998
1.546875
1.4864501953125
1.3712402343749999
1.1770751953125
1.287451171875
1.3148437499999999
1.4606689453125
1.4920898437499999
1.50498046875
1.4832275390624998
1.5573486328125
1.5170654296875
1.5194824218749998
1.5299560546875
1.5267333984375
1.5299560546875
1.5283447265624999
1.5186767578125
0.742822265625
1.3688232421875
1.5791015625
1.4920898437499999
1.5734619140625
1.6798095703125
1.72412109375
2.128564453125
1.5766845703124999
1.5186767578125
1.5114257812499998
1.5138427734375
1.5355957031249998
1.5009521484375
1.522705078125
1.522705078125
1.4735595703125
1.5009521484375
1.5202880859374999
1.5025634765625
1.506591796875
1.6250244140624999
1.7370117187499998
1.42119140625
1.5138427734375
1.4864501953125
1.3752685546874999
1.3269287109374999
1.2850341796875
1.30517578125
1.4284423828125
1.4711425781249998
1.5082031249999999
1.4920898437499999
1.5235107421874998
1.5396240234374998
1.5138427734375
1.5541259765625
1.5436523437499998
1.5323730468749999
1.53076171875
1.5267333984375
0.8024414062499999
1.2963134765625
1.6403320312499998
1.5090087890625
1.5726562499999999
1.6717529296875
1.6693359374999999
2.11083984375
1.6346923828125
1.5315673828124998
1.50498046875
1.50498046875
1.5138427734375
1.4920898437499999
1.5243164062499999
1.5194824218749998
1.4993408203124998
1.5001464843749999
1.5162597656249999
1.509814453125
1.5122314453124999
1.5492919921875
2.157568359375
1.416357421875
1.5138427734375
1.5275390624999998
1.4316650390624999
1.3478759765625
1.1939941406249999
1.287451171875
1.4010498046875
1.477587890625
1.5025634765625
1.4888671875
1.5162597656249999
1.5364013671874999
1.5186767578125
1.5380126953125
1.5597656249999998
1.5396240234374998
1.5412353515625
1.53720703125
1.4469726562499998
0.8757568359375
1.6475830078125
1.496923828125
1.5267333984375
1.658056640625
1.6854492187499999
2.1841552734375
1.6169677734374999
1.522705078125
1.4735595703125
1.480810546875
1.5057861328125
1.53720703125
1.5412353515625
1.5428466796875
1.52109375
1.5041748046874999
1.5235107421874998
1.5170654296875
1.49853515625
1.5017578125
2.19140625
1.4413330078125
1.5033691406249998
1.5299560546875
1.4413330078125
1.3833251953124999
1.255224609375
1.284228515625
1.36962890625
1.4510009765624998
1.4953124999999998
1.506591796875
1.4896728515625
1.5396240234374998
1.522705078125
1.5533203125
1.5283447265624999
1.5355957031249998
1.5267333984375
1.5299560546875
1.4953124999999998
0.8274169921875
1.609716796875
1.5033691406249998
1.542041015625
1.5807128906249999
1.6572509765624999
2.0576660156249997
1.851416015625
1.5509033203125
1.5170654296875
1.5194824218749998
1.5154541015624998
1.5315673828124998
1.5323730468749999
1.5154541015624998
1.506591796875
1.4840332031249999
1.5162597656249999
1.5082031249999999
1.4993408203124998
1.5154541015624998
2.2647216796875
1.46953125
1.49853515625
1.5355957031249998
1.4993408203124998
1.3784912109374998
1.1722412109375
1.2963134765625
1.3744628906249998
1.4622802734375
1.4832275390624998
1.4928955078125
1.4783935546875
1.546875
1.5299560546875
1.53076171875
1.56298828125
1.5267333984375
1.5243164062499999
1.529150390625
1.5114257812499998
0.79921875
1.5992431640625
1.561376953125
1.513037109375
1.5960205078124998
1.65
1.8981445312499998
1.7700439453124999
1.5758789062499998
1.5235107421874998
1.5106201171875
1.509814453125
1.529150390625
1.49853515625
1.5202880859374999
1.49853515625
1.5114257812499998
1.5170654296875
1.5073974609374998
1.5146484375
1.5114257812499998
2.2002685546875
1.6886718749999998
1.429248046875
1.53720703125
1.4945068359375
1.3817138671875
1.2254150390625
1.287451171875
1.3253173828125
1.4550292968749998
1.4920898437499999
1.5057861328125
1.493701171875
1.5509033203125
1.5347900390625
1.5267333984375
1.5565429687499999
1.5347900390625
1.5243164062499999
1.51787109375
1.52109375
0.7951904296875
1.3478759765625
1.56298828125
1.48564453125
1.5645996093749999
1.6822265625
1.8054931640624998
2.0391357421875
1.5718505859374998
1.52109375
1.5162597656249999
1.52109375
1.5251220703125
1.5162597656249999
1.5299560546875
1.4953124999999998
1.4912841796874998
1.5106201171875
1.5114257812499998
1.5162597656249999
1.5114257812499998
1.6459716796875
1.7313720703125
1.432470703125
1.5138427734375
1.4880615234374999
1.3849365234375
1.3414306640625
1.3656005859375
1.3212890625
1.429248046875
1.4751708984374998
1.5001464843749999
1.4961181640624999
1.5315673828124998
1.5243164062499999
1.538818359375
1.546875
1.5235107421874998
1.5299560546875
1.525927734375
1.5267333984375
0.8773681640625
1.300341796875
1.619384765625
1.4920898437499999
1.5476806640624998
1.65966796875
1.6532226562499999
2.0979492187499997
1.635498046875
1.538818359375
1.5186767578125
1.5194824218749998
1.522705078125
1.490478515625
1.5186767578125
1.53720703125
1.48564453125
1.5033691406249998
1.509814453125
1.509814453125
1.5033691406249998
1.5654052734375
2.0923095703125
1.432470703125
1.51787109375
1.5235107421874998
1.4558349609374999
1.3527099609375
1.284228515625
1.2777832031249998
1.4389160156249998
1.4872558593749998
1.4977294921875
1.4888671875
1.5146484375
1.538818359375
1.5275390624999998
1.5251220703125
1.5726562499999999
1.5444580078124999
1.5170654296875
1.5106201171875
1.4187744140624998
1.222998046875
1.61455078125
1.4912841796874998
1.5436523437499998
1.6540283203125
1.6540283203125
2.0947265625
1.64677734375
1.56298828125
1.53076171875
1.525927734375
1.5073974609374998
1.5283447265624999
1.50498046875
1.52109375
1.5017578125
1.5025634765625
1.5202880859374999
1.5057861328125
1.49853515625
1.5154541015624998
2.115673828125
1.490478515625
1.5082031249999999
1.5283447265624999
1.456640625
1.3897705078125
1.200439453125
1.29228515625
1.3881591796875
1.4574462890625
1.5017578125
1.5001464843749999
1.513037109375
1.525927734375
1.5235107421874998
1.53076171875
1.55009765625
1.5323730468749999
1.5412353515625
1.525927734375
1.522705078125
0.9216796875
1.558154296875
1.5073974609374998
1.5138427734375
1.5944091796875
1.6612792968749999
1.9827392578124998
1.78857421875
1.5895751953125
1.525927734375
1.5114257812499998
1.5194824218749998
1.5476806640624998
1.5082031249999999
1.5154541015624998
1.5146484375
1.4767822265625
1.4993408203124998
1.5122314453124999
1.509814453125
1.5146484375
2.12373046875
1.5082031249999999
1.4896728515625
1.5275390624999998
1.4687255859375
1.3986328124999998
1.2447509765625
1.303564453125
1.3728515625
1.4461669921875
1.4872558593749998
1.509814453125
1.4791992187499998
1.5275390624999998
1.5331787109375
1.5380126953125
1.5315673828124998
1.5364013671874999
1.5396240234374998
1.5380126953125
1.52109375
0.8967041015624999
1.525927734375
1.5589599609375
1.5492919921875
1.5718505859374998
1.6314697265625
1.7217041015624999
1.8538330078124998
1.5734619140625
1.53076171875
1.509814453125
1.5202880859374999
1.53720703125
1.5073974609374998
1.5138427734375
1.4977294921875
1.4880615234374999
1.5170654296875
1.5106201171875
1.51787109375
1.52109375
2.0439697265625
1.6943115234375
1.4993408203124998
1.5525146484374999
1.4953124999999998
1.4034667968749999
1.2995361328125
1.3140380859374998
1.3446533203125
1.44052734375
1.49853515625
1.4961181640624999
1.4896728515625
1.5428466796875
1.5283447265624999
1.542041015625
1.558154296875
1.5380126953125
1.5194824218749998
1.5347900390625
1.5218994140625
0.9466552734375
1.3390136718749999
1.545263671875
1.50498046875
1.55009765625
1.65
1.7716552734375
1.9400390625
1.58232421875
1.5404296874999999
1.5275390624999998
1.5082031249999999
1.52109375
1.5090087890625
1.5106201171875
1.5218994140625
1.50498046875
1.5033691406249998
1.522705078125
1.5194824218749998
1.5154541015624998
1.6298583984375
1.74345703125
1.4711425781249998
1.5267333984375
1.5017578125
1.4042724609375
1.377685546875
1.3253173828125
1.351904296875
1.442138671875
1.4687255859375
1.4945068359375
1.5025634765625
1.529150390625
1.53076171875
1.5154541015624998
1.5436523437499998
1.5162597656249999
1.529150390625
1.5106201171875
1.5218994140625
1.0272216796875
1.2955078125
1.574267578125
1.5138427734375
1.577490234375
1.6346923828125
1.641943359375
1.989990234375
1.6532226562499999
1.5573486328125
1.5186767578125
1.5267333984375
1.513037109375
1.5090087890625
1.5162597656249999
1.5162597656249999
1.4888671875
1.5138427734375
1.525927734375
1.5057861328125
1.50498046875
1.5670166015625
1.996435546875
1.48564453125
1.5194824218749998
1.5347900390625
1.45341796875
1.3631835937499999
1.3220947265624998
1.3301513671874998
1.4244140625
1.4711425781249998
1.4977294921875
1.5106201171875
1.5162597656249999
1.5122314453124999
1.5202880859374999
1.5597656249999998
1.5460693359375
1.5404296874999999
1.5138427734375
1.5355957031249998
1.4542236328125
1.2511962890625
1.5686279296874999
1.50498046875
1.5082031249999999
1.6129394531249999
1.64677734375
1.973876953125
1.662890625
1.56943359375
1.5283447265624999
1.522705078125
1.50498046875
1.5194824218749998
1.4961181640624999
1.525927734375
1.506591796875
1.5025634765625
1.5114257812499998
1.52109375
1.5194824218749998
1.5412353515625
1.989990234375
1.509814453125
1.5154541015624998
1.545263671875
1.4622802734375
1.41796875
1.255224609375
1.3261230468749998
1.38896484375
1.4864501953125
1.5082031249999999
1.5025634765625
1.493701171875
1.5364013671874999
1.5243164062499999
1.5154541015624998
1.5525146484374999
1.529150390625
1.5251220703125
1.525927734375
1.4783935546875
1.045751953125
1.5194824218749998
1.509814453125
1.522705078125
1.5807128906249999
1.6540283203125
1.9352050781249999
1.7362060546875
1.5517089843749998
1.53076171875
1.5347900390625
1.5138427734375
1.5428466796875
1.50498046875
1.5146484375
1.509814453125
1.5033691406249998
1.5033691406249998
1.509814453125
1.5025634765625
1.522705078125
1.980322265625
1.5436523437499998
1.5202880859374999
1.5283447265624999
1.4872558593749998
1.4316650390624999
1.300341796875
1.3301513671874998
1.3857421875
1.456640625
1.4832275390624998
1.5073974609374998
1.48564453125
1.5323730468749999
1.5251220703125
1.5444580078124999
1.529150390625
1.53076171875
1.5162597656249999
1.529150390625
1.525927734375
1.0385009765625
1.4953124999999998
1.5323730468749999
1.5218994140625
1.5662109375
1.609716796875
1.6701416015625
1.8135498046874998
1.6121337890624998
1.5557373046874998
1.5380126953125
1.5162597656249999
1.5243164062499999
1.50498046875
1.5251220703125
1.52109375
1.4864501953125
1.509814453125
1.49853515625
1.5283447265624999
1.513037109375
1.9327880859375
1.6951171875
1.506591796875
1.5323730468749999
1.5235107421874998
1.41796875
1.300341796875
1.3341796874999998
1.364794921875
1.46953125
1.4977294921875
1.4848388671875
1.480810546875
1.53076171875
1.5202880859374999
1.529150390625
1.5380126953125
1.55009765625
1.5235107421874998
1.533984375
1.5243164062499999
1.0691162109374999
1.4953124999999998
1.5355957031249998
1.49853515625
1.558154296875
1.590380859375
1.7007568359374998
1.896533203125
1.6000488281249998
1.538818359375
1.5380126953125
1.5025634765625
1.53720703125
1.51787109375
1.5033691406249998
1.52109375
1.496923828125
1.5001464843749999
1.5082031249999999
1.5267333984375
1.493701171875
1.8884765625
1.7257324218749999
1.4920898437499999
1.5114257812499998
1.5162597656249999
1.442138671875
1.4107177734374998
1.345458984375
1.3728515625
1.448583984375
1.4751708984374998
1.4945068359375
1.506591796875
1.522705078125
1.5194824218749998
1.5017578125
1.5347900390625
1.5355957031249998
1.5243164062499999
1.5243164062499999
1.51787109375
1.11181640625
1.3317626953125
1.5541259765625
1.49853515625
1.5444580078124999
1.6000488281249998
1.6749755859375
1.88525390625
1.6314697265625
1.5428466796875
1.5235107421874998
1.5162597656249999
1.5186767578125
1.5122314453124999
1.529150390625
1.5235107421874998
1.509814453125
1.5057861328125
1.5082031249999999
1.49853515625
1.5090087890625
1.5726562499999999
1.9013671875
1.5033691406249998
1.5347900390625
1.5275390624999998
1.4413330078125
1.4091064453125
1.3470703124999999
1.3672119140624999
1.4228027343749998
1.4703369140625
1.4920898437499999
1.5146484375
1.5154541015624998
1.5436523437499998
1.496923828125
1.5114257812499998
1.5436523437499998
1.6081054687499998
1.5154541015624998
1.5347900390625
1.4501953125
1.29228515625
1.5476806640624998
1.4920898437499999
1.538818359375
1.6081054687499998
1.6266357421875
1.8264404296874999
1.6701416015625
1.5702392578125
1.5484863281249999
1.5218994140625
1.5218994140625
1.5396240234374998
1.5186767578125
1.5041748046874999
1.50498046875
1.5025634765625
1.5138427734375
1.5323730468749999
1.51787109375
1.51787109375
1.9215087890625
1.5396240234374998
1.5073974609374998
1.5476806640624998
1.4953124999999998
1.4107177734374998
1.3543212890624998
1.36962890625
1.3929931640625
1.46953125
1.4840332031249999
1.5146484375
1.5057861328125
1.53076171875
1.4993408203124998
1.5114257812499998
1.5492919921875
1.50498046875
1.5194824218749998
1.542041015625
1.4961181640624999
1.1150390625
1.5645996093749999
1.5001464843749999
1.51787109375
1.5573486328125
1.6314697265625
1.91748046875
1.69833984375
1.5670166015625
1.533984375
1.5323730468749999
1.5162597656249999
1.5235107421874998
1.5106201171875
1.5146484375
1.5146484375
1.5082031249999999
1.52109375
1.509814453125
1.51787109375
1.5186767578125
1.9223144531249998
1.5541259765625
1.50498046875
1.5589599609375
1.4751708984374998
1.4389160156249998
1.3317626953125
1.3639892578125
1.4115234374999999
1.442138671875
1.4783935546875
1.4977294921875
1.5090087890625
1.5186767578125
1.5492919921875
1.5251220703125
1.5331787109375
1.53076171875
1.53720703125
1.53076171875
1.5251220703125
1.0965087890625
1.4872558593749998
1.5218994140625
1.4977294921875
1.5412353515625
1.6161621093749998
1.835302734375
1.7539306640624999
1.5799072265624998
1.5323730468749999
1.53720703125
1.522705078125
1.5355957031249998
1.5202880859374999
1.5267333984375
1.5275390624999998
1.5114257812499998
1.5090087890625
1.5057861328125
1.5033691406249998
1.5122314453124999
1.893310546875
1.6846435546874998
1.5299560546875
1.5404296874999999
1.5162597656249999
1.442138671875
1.3108154296874999
1.3494873046875
1.40830078125
1.4526123046875
1.490478515625
1.4920898437499999
1.5170654296875
1.538818359375
1.5194824218749998
1.5283447265624999
1.51787109375
1.5267333984375
1.53720703125
1.525927734375
1.5162597656249999
1.1214843749999999
1.4711425781249998
1.5235107421874998
1.5057861328125
1.5533203125
1.6056884765625
1.6540283203125
1.7764892578125
1.5984375
1.5517089843749998
1.5323730468749999
1.525927734375
1.5162597656249999
1.509814453125
1.5057861328125
1.5275390624999998
1.5218994140625
1.49853515625
1.5057861328125
1.529150390625
1.5218994140625
1.8473876953125
1.6910888671875
1.5073974609374998
1.5476806640624998
1.5186767578125
1.448583984375
1.3575439453125
1.345458984375
1.3921875
1.43408203125
1.4759765624999999
1.5106201171875
1.49853515625
1.5106201171875
1.53720703125
1.5283447265624999
1.5283447265624999
1.5275390624999998
1.5122314453124999
1.5428466796875
1.5162597656249999
1.16015625
1.3317626953125
1.5299560546875
1.5017578125
1.5509033203125
1.58232421875
1.7039794921875
1.8304687499999999
1.6282470703124998
1.5565429687499999
1.51787109375
1.5138427734375
1.5251220703125
1.5202880859374999
1.5194824218749998
1.5138427734375
1.5251220703125
1.4993408203124998
1.49853515625
1.5162597656249999
1.5162597656249999
1.5766845703124999
1.7200927734375
1.5202880859374999
1.546875
1.51787109375
1.4501953125
1.4236083984374999
1.3414306640625
1.3768798828125
1.4574462890625
1.4759765624999999
1.496923828125
1.4928955078125
1.506591796875
1.53720703125
1.5235107421874998
1.525927734375
1.5565429687499999
1.52109375
1.513037109375
1.53076171875
1.18271484375
1.3212890625
1.538818359375
1.4800048828124999
1.5460693359375
1.5799072265624998
1.6282470703124998
1.8489990234375
1.6693359374999999
1.5839355468749998
1.5154541015624998
1.5218994140625
1.5251220703125
1.542041015625
1.52109375
1.509814453125
1.5154541015624998
1.509814453125
1.5194824218749998
1.5170654296875
1.529150390625
1.5315673828124998
1.85947265625
1.5444580078124999
1.533984375
1.5323730468749999
1.4961181640624999
1.4115234374999999
1.3583496093749998
1.3575439453125
1.4477783203124999
1.4759765624999999
1.4832275390624998
1.50498046875
1.5090087890625
1.52109375
1.5283447265624999
1.542041015625
1.5347900390625
1.5323730468749999
1.56298828125
1.51787109375
1.46630859375
1.148876953125
1.542041015625
1.4993408203124998
1.5154541015624998
1.5863525390625
1.6121337890624998
1.8457763671874998
1.64677734375
1.5702392578125
1.5533203125
1.5001464843749999
1.509814453125
1.5347900390625
1.5090087890625
1.5218994140625
1.5009521484375
1.5186767578125
1.5331787109375
1.51787109375
1.5218994140625
1.5001464843749999
1.8957275390625
1.5492919921875
1.5331787109375
1.513037109375
1.482421875
1.448583984375
1.332568359375
1.37607421875
1.40185546875
1.4526123046875
1.4928955078125
1.5082031249999999
1.50498046875
1.5460693359375
1.5251220703125
1.525927734375
1.5492919921875
1.5436523437499998
1.522705078125
1.5364013671874999
1.4993408203124998
1.1706298828125
1.5041748046874999
1.46953125
1.4896728515625
1.53720703125
1.625830078125
1.8618896484374998
1.6854492187499999
1.574267578125
1.5162597656249999
1.5235107421874998
1.5146484375
1.5355957031249998
1.5235107421874998
1.5243164062499999
1.5025634765625
1.522705078125
1.5202880859374999
1.5017578125
1.5106201171875
1.4993408203124998
1.8731689453125
1.554931640625
1.5202880859374999
1.5492919921875
1.5138427734375
1.4389160156249998
1.3494873046875
1.3688232421875
1.4074951171874999
1.458251953125
1.48564453125
1.5017578125
1.5186767578125
1.5412353515625
1.5380126953125
1.5331787109375
1.5275390624999998
1.5396240234374998
1.522705078125
1.5194824218749998
1.51787109375
1.1384033203125
1.4896728515625
1.5315673828124998
1.490478515625
1.554931640625
1.593603515625
1.638720703125
1.7571533203124998
1.5895751953125
1.5315673828124998
1.5428466796875
1.529150390625
1.5331787109375
1.5106201171875
1.53076171875
1.5251220703125
1.49853515625
1.509814453125
1.49853515625
1.5138427734375
1.5146484375
1.8506103515624999
1.6685302734374998
1.5243164062499999
1.5347900390625
1.525927734375
1.4590576171874998
1.3470703124999999
1.351904296875
1.3929931640625
1.4429443359374998
1.4759765624999999
1.4993408203124998
1.4920898437499999
1.545263671875
1.545263671875
1.53076171875
1.51787109375
1.5364013671874999
1.4977294921875
1.5509033203125
1.525927734375
1.1722412109375
1.45341796875
1.5347900390625
1.496923828125
1.542041015625
1.5766845703124999
1.6572509765624999
1.8224121093749999
1.5984375
1.545263671875
1.5444580078124999
1.5444580078124999
1.53076171875
1.525927734375
1.5170654296875
1.509814453125
1.509814453125
1.5186767578125
1.5082031249999999
1.5082031249999999
1.5202880859374999
1.8046875
1.6927001953124998
1.506591796875
1.5380126953125
1.509814453125
1.4381103515625
1.4187744140624998
1.384130859375
1.3954101562499999
1.4356933593749999
1.4848388671875
1.5082031249999999
1.5090087890625
1.5323730468749999
1.5283447265624999
1.5299560546875
1.5396240234374998
1.5251220703125
1.5218994140625
1.538818359375
1.513037109375
1.219775390625
1.327734375
1.5235107421874998
1.4759765624999999
1.525927734375
1.5944091796875
1.6685302734374998
1.815966796875
1.6290527343749999
1.5492919921875
1.5517089843749998
1.5154541015624998
1.533984375
1.5154541015624998
1.533984375
1.5082031249999999
1.5082031249999999
1.5170654296875
1.5073974609374998
1.5017578125
1.5251220703125
1.5686279296874999
1.815966796875
1.51787109375
1.5218994140625
1.533984375
1.4558349609374999
1.4155517578124999
1.3881591796875
1.4058837890625
1.4429443359374998
1.4832275390624998
1.4816162109375
1.477587890625
1.52109375
1.5355957031249998
1.5299560546875
1.53076171875
1.5194824218749998
1.5364013671874999
1.5170654296875
1.533984375
1.4590576171874998
1.3212890625
1.5347900390625
1.46953125
1.5323730468749999
1.5758789062499998
1.6105224609375
1.8183837890624999
1.6653076171874999
1.5758789062499998
1.558154296875
1.5347900390625
1.51787109375
1.509814453125
1.5355957031249998
1.5331787109375
1.5057861328125
1.5146484375
1.51787109375
1.513037109375
1.51787109375
1.5476806640624998
1.8119384765625
1.5686279296874999
1.5235107421874998
1.5404296874999999
1.4671142578124998
1.4461669921875
1.3825195312499998
1.3736572265625
1.4155517578124999
1.4759765624999999
1.5106201171875
1.48564453125
1.52109375
1.5146484375
1.5162597656249999
1.53720703125
1.5444580078124999
1.5557373046874998
1.509814453125
1.5299560546875
1.4888671875
1.2141357421874999
1.5235107421874998
1.4912841796874998
1.4945068359375
1.5726562499999999
1.5831298828125
1.8417480468749998
1.6685302734374998
1.56298828125
1.538818359375
1.5436523437499998
1.52109375
1.51787109375
1.51787109375
1.525927734375
1.4864501953125
1.5009521484375
1.4977294921875
1.5106201171875
1.525927734375
1.5114257812499998
1.8626953124999999
1.5589599609375
1.529150390625
1.5283447265624999
1.4896728515625
1.442138671875
1.348681640625
1.3688232421875
1.43408203125
1.4630859374999998
1.5017578125
1.5073974609374998
1.4993408203124998
1.5218994140625
1.5283447265624999
1.5251220703125
1.5557373046874998
1.5162597656249999
1.53720703125
1.533984375
1.4872558593749998
1.2020507812499999
1.48564453125
1.4953124999999998
1.529150390625
1.5315673828124998
1.5911865234375
1.8095214843749998
1.6765869140624998
1.5750732421875
1.5412353515625
1.5315673828124998
1.5243164062499999
1.509814453125
1.53076171875
1.5082031249999999
1.529150390625
1.5106201171875
1.5138427734375
1.5235107421874998
1.5090087890625
1.5122314453124999
1.8232177734375
1.55009765625
1.53720703125
1.5492919921875
1.5025634765625
1.4703369140625
1.3752685546874999
1.37607421875
1.4300537109375
1.4558349609374999
1.4759765624999999
1.4832275390624998
1.4961181640624999
1.5114257812499998
1.5122314453124999
1.533984375
1.5355957031249998
1.5299560546875
1.5243164062499999
1.5355957031249998
1.51787109375
1.2020507812499999
1.48564453125
1.5122314453124999
1.4840332031249999
1.5517089843749998
1.5887695312499999
1.625830078125
1.751513671875
1.5984375
1.5484863281249999
1.529150390625
1.5275390624999998
1.529150390625
1.5162597656249999
1.50498046875
1.533984375
1.50498046875
1.513037109375
1.5170654296875
1.52109375
1.5025634765625
1.7909912109375
1.6620849609375
1.5428466796875
1.5436523437499998
1.5138427734375
1.4759765624999999
1.3728515625
1.38896484375
1.4010498046875
1.4711425781249998
1.5218994140625
1.4993408203124998
1.4840332031249999
1.5146484375
1.5218994140625
1.506591796875
1.554931640625
1.5315673828124998
1.5122314453124999
1.5364013671874999
1.51787109375
1.213330078125
1.3857421875
1.5082031249999999
1.4800048828124999
1.5355957031249998
1.5847412109374999
1.6669189453125
1.7660156249999999
1.5879638671874998
1.5565429687499999
1.5404296874999999
1.529150390625
1.52109375
1.5235107421874998
