1.4896728515625
1.5750732421875
1.509814453125
1.6040771484374998
1.5815185546875
1.5734619140625
1.558154296875
1.546875
0.09829101562499999
0.4842041015625
1.7047851562499998
1.448583984375
1.55009765625
1.7579589843749999
1.9674316406249999
2.995458984375
2.093115234375
1.6475830078125
1.5122314453124999
1.46630859375
1.4791992187499998
1.493701171875
1.4832275390624998
1.4791992187499998
1.47275390625
1.4912841796874998
1.4961181640624999
1.4872558593749998
1.477587890625
1.4961181640624999
2.9930419921875
1.429248046875
1.5573486328125
1.58232421875
1.36962890625
1.0932861328124999
0.5663818359375
0.7694091796875
1.1351806640625
1.348681640625
1.4219970703125
1.4598632812499999
1.4840332031249999
1.6121337890624998
1.5750732421875
1.5589599609375
1.546875
1.5460693359375
1.55009765625
1.5428466796875
1.50498046875
0.014501953125
1.6886718749999998
1.47275390625
1.4896728515625
1.7539306640624999
1.9062011718749998
2.9817626953125
2.11083984375
1.6427490234375
1.533984375
1.482421875
1.4848388671875
1.5444580078124999
1.4630859374999998
1.4783935546875
1.46953125
1.4719482421874999
1.4993408203124998
1.4864501953125
1.4816162109375
1.477587890625
2.9970703125
1.56943359375
1.5404296874999999
1.5734619140625
1.4107177734374998
1.1609619140625
0.91845703125
0.7234863281249999
0.9821044921875
1.3156494140625
1.4171630859375
1.464697265625
1.3986328124999998
1.6089111328124999
1.5766845703124999
1.5645996093749999
1.5662109375
1.5380126953125
1.545263671875
1.5517089843749998
1.5114257812499998
0.02900390625
1.5444580078124999
1.6153564453125
1.416357421875
1.6314697265625
1.9223144531249998
2.9914306640625
2.4983642578125
1.7635986328125
1.5283447265624999
1.46630859375
1.4800048828124999
1.5299560546875
1.4800048828124999
1.4896728515625
1.490478515625
1.46630859375
1.48564453125
1.48564453125
1.4671142578124998
1.4574462890625
2.9914306640625
2.0044921875
1.5476806640624998
1.6209960937499999
1.4864501953125
1.1416259765624999
0.5696044921875
0.9007324218749999
0.9837158203124999
1.2777832031249998
1.36962890625
1.4703369140625
1.377685546875
1.641943359375
1.5750732421875
1.56298828125
1.5718505859374998
1.554931640625
1.5573486328125
1.558154296875
1.533984375
0.0249755859375
1.5138427734375
1.606494140625
1.4364990234375
1.593603515625
1.9062011718749998
2.2163818359375
2.9922363281249997
1.8336914062499998
1.590380859375
1.4953124999999998
1.4872558593749998
1.5428466796875
1.4284423828125
1.4953124999999998
1.4751708984374998
1.4711425781249998
1.4848388671875
1.4928955078125
1.477587890625
1.4679199218749999
2.9906249999999996
2.0890869140625
1.4655029296875
1.6403320312499998
1.5082031249999999
1.1174560546874999
1.0094970703125
0.8604492187499999
0.760546875
1.1448486328125
1.3494873046875
1.4469726562499998
1.397021484375
1.5396240234374998
1.561376953125
1.5750732421875
1.5444580078124999
1.5662109375
1.590380859375
1.574267578125
1.5396240234374998
0.0249755859375
0.9982177734375
1.6379150390625
1.3688232421875
1.5331787109375
1.8900878906249998
2.9849853515625
2.8850830078125
1.893310546875
1.6161621093749998
1.522705078125
1.5025634765625
1.5170654296875
1.442138671875
1.4920898437499999
1.474365234375
1.482421875
1.49853515625
1.5114257812499998
1.496923828125
1.4800048828124999
2.0737792968749997
2.9253662109375
1.509814453125
1.658056640625
1.59521484375
1.1150390625
0.9974121093749999
0.67998046875
0.5994140625
1.1021484375
1.303564453125
1.400244140625
1.3994384765624999
1.5460693359375
1.6129394531249999
1.5734619140625
1.590380859375
1.5621826171875
1.5758789062499998
1.5645996093749999
1.5396240234374998
0.7259033203124999
0.78310546875
1.6129394531249999
1.335791015625
1.4606689453125
1.8578613281249998
2.01416015625
2.9882080078124997
2.165625
1.7337890624999999
1.558154296875
1.4961181640624999
1.5186767578125
1.509814453125
1.480810546875
1.4735595703125
1.4711425781249998
1.4800048828124999
1.4993408203124998
1.477587890625
1.4928955078125
1.5194824218749998
2.9882080078124997
1.574267578125
1.690283203125
1.6427490234375
1.271337890625
1.039306640625
0.4833984375
0.517236328125
0.8765624999999999
1.232666015625
1.3817138671875
1.4300537109375
1.4300537109375
1.6218017578125
1.587158203125
1.5815185546875
1.5984375
1.571044921875
1.5799072265624998
1.5670166015625
0.7420166015624999
0.026586914062499998
1.5734619140625
1.30517578125
1.4348876953124998
1.6685302734374998
1.9456787109375
2.9930419921875
2.5233398437499996
1.8973388671875
1.5960205078124998
1.5114257812499998
1.5106201171875
1.5218994140625
1.4791992187499998
1.5235107421874998
1.4953124999999998
1.480810546875
1.5033691406249998
1.4816162109375
1.48564453125
1.4735595703125
2.9906249999999996
1.851416015625
1.7096191406249999
1.732177734375
1.545263671875
1.013525390625
0.09829101562499999
0.4962890625
0.7863281249999999
1.1778808593749999
1.332568359375
1.4195800781249999
1.400244140625
1.6153564453125
1.6040771484374998
1.6024658203125
1.6129394531249999
1.5815185546875
1.574267578125
1.5670166015625
1.5436523437499998
0.0217529296875
1.5331787109375
1.4373046875
1.3510986328124999
1.6685302734374998
1.9714599609374999
2.9358398437499997
2.9906249999999996
1.957763671875
1.66611328125
1.53720703125
1.5347900390625
1.5968261718749999
1.4840332031249999
1.5025634765625
1.480810546875
1.4735595703125
1.5041748046874999
1.490478515625
1.477587890625
1.4679199218749999
2.9930419921875
1.8683349609375
1.6137451171875
1.764404296875
1.5517089843749998
1.0900634765625
0.604248046875
0.46083984375
0.5696044921875
1.0030517578125
1.297119140625
1.416357421875
1.3510986328124999
1.6137451171875
1.6056884765625
1.5879638671874998
1.5782958984375
1.60166015625
1.593603515625
1.5831298828125
1.5517089843749998
0.0249755859375
1.219775390625
1.5323730468749999
1.3559326171875
1.56943359375
2.038330078125
2.8166015625
2.9930419921875
2.1744873046874997
1.738623046875
1.5654052734375
1.5122314453124999
1.5484863281249999
1.4977294921875
1.5315673828124998
1.4816162109375
1.480810546875
1.5057861328125
1.5138427734375
1.4928955078125
1.4606689453125
2.9922363281249997
2.6143798828125
1.6024658203125
1.7595703125
1.571044921875
1.0578369140625
0.62841796875
0.4729248046875
0.40605468749999996
0.9958007812499999
1.2254150390625
1.37607421875
1.3075927734375
1.5839355468749998
1.62744140625
1.5944091796875
1.5815185546875
1.571044921875
1.5847412109374999
1.5637939453124998
1.5243164062499999
0.026586914062499998
0.30937499999999996
1.4791992187499998
1.2544189453124999
1.4308593749999998
1.9948242187499998
2.1970458984375
2.9906249999999996
2.3654296875
1.8046875
1.6459716796875
1.5662109375
1.5654052734375
1.4316650390624999
1.506591796875
1.49853515625
1.4920898437499999
1.4791992187499998
1.4977294921875
1.458251953125
1.456640625
1.6177734375
2.7892089843749996
1.63388671875
1.77568359375
1.6685302734374998
1.0916748046875
0.8266113281249999
0.064453125
0.1651611328125
0.662255859375
1.0530029296874999
1.284228515625
1.3043701171875
1.458251953125
1.6040771484374998
1.6282470703124998
1.619384765625
1.571044921875
1.574267578125
1.5573486328125
1.55009765625
0.0281982421875
0.056396484375
1.5960205078124998
1.1400146484375
1.248779296875
1.9013671875
2.3074218749999997
2.9898193359375
2.6055175781249997
2.1180908203124997
1.8385253906249999
1.5839355468749998
1.6024658203125
1.6177734375
1.5299560546875
1.4872558593749998
1.4703369140625
1.4961181640624999
1.5057861328125
1.4977294921875
1.46953125
1.5782958984375
2.995458984375
1.828857421875
1.9754882812499999
2.102783203125
1.45341796875
0.53173828125
0.0249755859375
0.0249755859375
0.023364257812499997
0.6630615234374999
0.8741455078125
1.1158447265625
1.3027587890624999
1.622607421875
1.7168701171874998
1.7184814453125
1.7136474609374999
1.6910888671875
1.662890625
1.611328125
1.1190673828125
0.0281982421875
1.3027587890624999
0.8443359374999999
0.7315429687499999
1.039306640625
2.479833984375
2.99384765625
2.9922363281249997
2.5499267578125
2.38154296875
2.101171875
1.9013671875
1.8780029296874998
1.6878662109375
1.66611328125
1.5484863281249999
1.496923828125
1.496923828125
1.5243164062499999
1.482421875
1.4493896484375
2.9914306640625
2.7593994140625
2.9882080078124997
2.9922363281249997
2.5209228515624997
1.3100097656249998
0.024169921875
0.027392578124999997
0.02900390625
0.02578125
0.02578125
0.0249755859375
0.023364257812499997
0.47050781249999996
0.420556640625
0.5164306640624999
0.710595703125
0.781494140625
0.9385986328125
1.0046630859374999
0.9571289062499999
0.02578125
0.030615234374999998
0.027392578124999997
0.022558593749999998
0.023364257812499997
0.027392578124999997
0.024169921875
1.9440673828125
2.9946533203124996
2.9922363281249997
2.9906249999999996
2.9930419921875
2.9930419921875
2.9922363281249997
2.99384765625
2.99384765625
2.9930419921875
2.9914306640625
2.9930419921875
2.9769287109375
2.898779296875
2.9922363281249997
2.9914306640625
2.9914306640625
2.9970703125
2.99384765625
2.9922363281249997
0.02900390625
0.024169921875
0.026586914062499998
0.0281982421875
0.02900390625
0.027392578124999997
0.02578125
0.026586914062499998
0.026586914062499998
0.02578125
0.0249755859375
0.091845703125
0.2022216796875
0.262646484375
0.26748046875
0.024169921875
0.02578125
0.024169921875
0.02578125
0.026586914062499998
0.02900390625
0.026586914062499998
0.026586914062499998
1.368017578125
2.4234375
2.9914306640625
2.99384765625
2.9922363281249997
2.9922363281249997
2.99384765625
2.9922363281249997
2.9946533203124996
2.9922363281249997
2.99384765625
2.99384765625
2.924560546875
2.9930419921875
2.9946533203124996
2.989013671875
2.9930419921875
2.989013671875
2.9922363281249997
0.543017578125
0.02578125
0.026586914062499998
0.02578125
0.026586914062499998
0.02578125
0.030615234374999998
0.0249755859375
0.02900390625
0.0281982421875
0.0281982421875
0.08701171875
0.1232666015625
0.1796630859375
0.24331054687499998
0.02578125
0.0249755859375
0.023364257812499997
0.02578125
0.026586914062499998
0.024169921875
0.02578125
0.0281982421875
0.027392578124999997
2.060888671875
2.8053222656249996
2.9922363281249997
2.9970703125
2.9946533203124996
2.9930419921875
2.9922363281249997
2.99384765625
2.995458984375
2.9922363281249997
2.9962646484374997
2.9930419921875
2.9930419921875
2.9922363281249997
2.9930419921875
2.99384765625
2.9946533203124996
2.9922363281249997
2.9922363281249997
0.41813964843749996
0.02578125
0.026586914062499998
0.026586914062499998
0.0249755859375
0.02578125
0.022558593749999998
0.0281982421875
0.026586914062499998
0.3762451171875
1.087646484375
1.6822265625
2.8109619140624997
2.9930419921875
2.9898193359375
0.02900390625
0.6807861328125
2.260693359375
2.9922363281249997
2.9930419921875
2.9946533203124996
2.9930419921875
2.995458984375
2.9930419921875
2.9906249999999996
2.995458984375
2.99384765625
2.99384765625
2.99384765625
2.99384765625
2.9930419921875
2.995458984375
2.9930419921875
2.99384765625
2.9906249999999996
2.9970703125
2.9914306640625
2.9922363281249997
2.989013671875
2.9962646484374997
2.7747070312499997
1.6363037109374998
0.0249755859375
0.026586914062499998
0.026586914062499998
0.0249755859375
0.19094238281249998
0.34482421874999997
0.281982421875
1.0562255859375
1.3672119140624999
1.46630859375
1.4920898437499999
1.4445556640625
1.4364990234375
1.4058837890625
1.3083984375
0.030615234374999998
0.120849609375
1.0691162109374999
0.71865234375
0.9345703125
1.7901855468749999
2.9946533203124996
2.9906249999999996
2.6047119140625
2.0761962890625
1.7813232421874998
1.5509033203125
1.5412353515625
1.3720458984375
1.34384765625
1.287451171875
1.213330078125
1.2560302734375
1.2898681640624998
1.248779296875
1.2157470703125
2.9922363281249997
2.115673828125
2.0745849609375
2.2260498046875
1.8417480468749998
0.742822265625
0.023364257812499997
0.0249755859375
0.026586914062499998
0.2280029296875
0.427001953125
0.671923828125
0.69287109375
1.3881591796875
1.3857421875
1.4203857421875
1.4518066406249999
1.47275390625
1.496923828125
1.5033691406249998
1.4437499999999999
0.02578125
1.139208984375
1.2705322265624999
0.936181640625
1.2350830078125
2.0109375
2.9906249999999996
2.9906249999999996
2.479833984375
2.0173828124999997
1.7466796875
1.5637939453124998
1.5839355468749998
1.3672119140624999
1.4671142578124998
1.4228027343749998
1.4034667968749999
1.4058837890625
1.4332763671875
1.405078125
1.3849365234375
2.9970703125
2.78759765625
1.722509765625
2.1003662109375
1.8707519531249999
0.9450439453124999
0.4125
0.026586914062499998
0.027392578124999997
0.3359619140625
0.7943847656249999
1.0376953125
1.1126220703125
1.4107177734374998
1.5895751953125
1.6443603515624998
1.6475830078125
1.6427490234375
1.6250244140624999
1.6266357421875
1.561376953125
0.0281982421875
0.16677246093749998
1.5017578125
1.0167480468749999
1.2979248046874998
2.0625
2.78759765625
2.9930419921875
2.6433837890625
2.19140625
1.832080078125
1.6524169921874998
1.590380859375
1.4042724609375
1.5323730468749999
1.5154541015624998
1.4840332031249999
1.4598632812499999
1.477587890625
1.48564453125
1.4364990234375
2.27841796875
2.9922363281249997
1.7184814453125
1.9940185546875
1.9182861328124998
0.961962890625
0.5696044921875
0.026586914062499998
0.0281982421875
0.375439453125
0.7702148437499999
1.0892578124999999
1.1835205078125
1.464697265625
1.6290527343749999
1.6822265625
1.6854492187499999
1.6540283203125
1.6314697265625
1.6161621093749998
1.6056884765625
0.2513671875
0.1345458984375
1.538818359375
1.1375976562499999
1.16337890625
2.0326904296875
2.3936279296875
2.9946533203124996
2.6490234375
2.1632080078125
1.9078125
1.7015624999999999
1.6314697265625
1.6153564453125
1.5170654296875
1.53076171875
1.4961181640624999
1.5017578125
1.5041748046874999
1.5001464843749999
1.4719482421874999
1.4638916015624999
2.9922363281249997
1.7934082031249998
1.9311767578124999
1.9247314453125
1.3470703124999999
0.758935546875
0.0249755859375
0.038671874999999994
0.24089355468749998
0.7146240234375
1.0973144531249999
1.2584472656249999
1.2995361328125
1.690283203125
1.7007568359374998
1.7015624999999999
1.7007568359374998
1.6371093749999999
1.6379150390625
1.6330810546874999
0.758935546875
0.023364257812499997
1.4058837890625
1.171435546875
1.255224609375
1.5984375
2.1857666015625
2.9930419921875
2.9922363281249997
2.3114501953124997
1.8731689453125
1.66611328125
1.5879638671874998
1.6854492187499999
1.522705078125
1.5315673828124998
1.4993408203124998
1.4872558593749998
1.5146484375
1.4977294921875
1.477587890625
1.4501953125
2.995458984375
2.0343017578125
1.8820312499999998
1.9400390625
1.7539306640624999
0.8362792968749999
0.026586914062499998
0.0249755859375
0.0604248046875
0.7565185546875
1.044140625
1.2665039062499999
1.3237060546875
1.6765869140624998
1.6701416015625
1.6645019531249998
1.683837890625
1.6161621093749998
1.6346923828125
1.611328125
1.558154296875
0.02578125
1.3913818359374999
1.4195800781249999
1.2060791015624999
1.46953125
2.1148681640625
2.9930419921875
2.9922363281249997
2.3001708984375
1.90458984375
1.7055908203124999
1.585546875
1.6588623046875
1.50498046875
1.5202880859374999
1.5025634765625
1.4912841796874998
1.509814453125
1.5025634765625
1.4719482421874999
1.4622802734375
2.9970703125
2.0375244140624997
1.6910888671875
1.920703125
1.6927001953124998
1.0094970703125
0.4358642578125
0.050756835937499994
0.11359863281249999
0.6751464843749999
1.0159423828125
1.3172607421875
1.2568359375
1.590380859375
1.6733642578124999
1.6806152343749998
1.654833984375
1.6395263671875
1.6363037109374998
1.6379150390625
1.5839355468749998
0.023364257812499997
0.98291015625
1.4848388671875
1.2423339843749999
1.4767822265625
2.1374267578125
2.434716796875
2.9922363281249997
2.4129638671875
1.9787109374999998
1.6508056640625
1.5791015625
1.5895751953125
1.5106201171875
1.5331787109375
1.5106201171875
1.480810546875
1.490478515625
1.4872558593749998
1.4791992187499998
1.4606689453125
2.9906249999999996
2.9882080078124997
1.65
1.88525390625
1.722509765625
1.0570312499999999
0.49387207031249997
0.027392578124999997
0.0298095703125
0.7242919921875
1.0642822265625
1.29228515625
1.2898681640624998
1.625830078125
1.6733642578124999
1.65
1.6564453124999998
1.6475830078125
1.622607421875
1.606494140625
1.5807128906249999
0.026586914062499998
0.026586914062499998
1.5412353515625
1.264892578125
1.3954101562499999
2.1382324218749997
2.3710693359375
2.9930419921875
2.6941406249999997
1.94970703125
1.7047851562499998
1.5589599609375
1.5573486328125
1.5057861328125
1.5090087890625
1.4961181640624999
1.474365234375
1.4928955078125
1.5073974609374998
1.4945068359375
1.4791992187499998
1.496923828125
2.9906249999999996
1.6161621093749998
1.7474853515625
1.6725585937499998
1.0900634765625
0.7669921875
0.022558593749999998
0.027392578124999997
0.578466796875
1.018359375
1.3220947265624998
1.3833251953124999
1.4671142578124998
1.6806152343749998
1.6685302734374998
1.662890625
1.6290527343749999
1.6048828124999999
1.6201904296874998
1.5726562499999999
0.026586914062499998
0.02578125
1.6072998046875
1.351904296875
1.4034667968749999
1.9078125
2.2268554687499997
2.9922363281249997
2.6764160156249996
2.031884765625
1.7370117187499998
1.5509033203125
1.5275390624999998
1.5645996093749999
1.4848388671875
1.5114257812499998
1.4800048828124999
1.493701171875
1.4920898437499999
1.4791992187499998
1.4679199218749999
1.4791992187499998
2.989013671875
1.7289550781249998
1.7128417968749998
1.7740722656249999
1.4308593749999998
0.78955078125
0.0298095703125
0.0314208984375
0.356103515625
1.039306640625
1.2906738281249999
1.41796875
1.5355957031249998
1.7015624999999999
1.6717529296875
1.6701416015625
1.6435546875
1.62744140625
1.6105224609375
1.6008544921874999
1.53076171875
0.0249755859375
1.6137451171875
1.3921875
1.3664062499999998
1.554931640625
2.2099365234375
2.9914306640625
2.99384765625
2.0689453125
1.7208984374999998
1.5525146484374999
1.5106201171875
1.5670166015625
1.4816162109375
1.4945068359375
1.4800048828124999
1.4550292968749998
1.4912841796874998
1.4671142578124998
1.4800048828124999
1.4437499999999999
2.9978759765625
1.735400390625
1.7345947265625
1.7893798828124998
1.4445556640625
0.9402099609375
0.0322265625
0.0990966796875
0.407666015625
0.9418212890625
1.2254150390625
1.4058837890625
1.35673828125
1.74345703125
1.667724609375
1.6395263671875
1.6540283203125
1.638720703125
1.6185791015625
1.6169677734374999
1.5726562499999999
0.0249755859375
1.4219970703125
1.56298828125
1.3510986328124999
1.554931640625
2.0471923828125
2.5531494140624997
2.99384765625
2.230078125
1.8103271484374999
1.561376953125
1.493701171875
1.5807128906249999
1.46630859375
1.5041748046874999
1.4832275390624998
1.4622802734375
1.4912841796874998
1.4832275390624998
1.448583984375
1.4759765624999999
2.9922363281249997
2.2341064453125
1.7128417968749998
1.7909912109375
1.6081054687499998
0.9611572265624999
0.14501953125
0.2038330078125
0.25458984375
0.9643798828125
1.213330078125
1.3849365234375
1.3470703124999999
1.7410400390624998
1.674169921875
1.6636962890625
1.6330810546874999
1.6056884765625
1.6153564453125
1.609716796875
1.5726562499999999
0.024169921875
0.6977050781249999
1.5484863281249999
1.327734375
1.506591796875
2.0584716796875
2.5144775390625
2.9906249999999996
2.225244140625
1.770849609375
1.571044921875
1.5154541015624998
1.60166015625
1.4501953125
1.525927734375
1.4896728515625
1.4687255859375
1.4711425781249998
1.4751708984374998
1.4606689453125
1.46953125
2.6997802734375
2.321923828125
1.5404296874999999
1.7901855468749999
1.5968261718749999
0.9643798828125
0.69287109375
0.1716064453125
0.259423828125
0.7669921875
1.135986328125
1.38896484375
1.4010498046875
1.619384765625
1.6653076171874999
1.6620849609375
1.6612792968749999
1.6161621093749998
1.6105224609375
1.619384765625
1.5968261718749999
0.02578125
0.6268066406249999
1.5573486328125
1.3285400390625
1.5541259765625
2.0987548828125
2.2510253906249997
2.995458984375
2.4298828125
1.9013671875
1.5911865234375
1.5057861328125
1.5194824218749998
1.4058837890625
1.5154541015624998
1.4880615234374999
1.4590576171874998
1.4759765624999999
1.4791992187499998
1.4800048828124999
1.4461669921875
2.5031982421874996
2.9882080078124997
1.5654052734375
1.7507080078125
1.6991455078125
1.147265625
0.6695068359374999
0.024169921875
0.124072265625
0.6066650390625
1.139208984375
1.3591552734374999
1.4356933593749999
1.61455078125
1.7184814453125
1.6806152343749998
1.6604736328124998
1.6371093749999999
1.6242187499999998
1.6209960937499999
1.5791015625
0.2570068359375
0.027392578124999997
1.6314697265625
1.300341796875
1.416357421875
2.1068115234375
2.2365234375
2.99384765625
2.8721923828125
1.899755859375
1.6435546875
1.513037109375
1.506591796875
1.5162597656249999
1.4783935546875
1.493701171875
1.4759765624999999
1.47275390625
1.4840332031249999
1.477587890625
1.464697265625
1.4816162109375
2.9930419921875
1.58232421875
1.7015624999999999
1.7764892578125
1.1931884765625
0.8531982421875
0.02578125
0.11762695312499999
0.58974609375
1.0626708984375
1.281005859375
1.4356933593749999
1.429248046875
1.6733642578124999
1.6773925781249999
1.6636962890625
1.6612792968749999
1.625830078125
1.6129394531249999
1.5887695312499999
1.5484863281249999
0.02578125
1.5879638671874998
1.413134765625
1.3929931640625
1.7603759765625
2.1221191406249997
2.9922363281249997
2.840771484375
2.0625
1.7096191406249999
1.5323730468749999
1.52109375
1.603271484375
1.4848388671875
1.482421875
1.4791992187499998
1.3873535156249999
1.4961181640624999
1.4800048828124999
1.456640625
1.482421875
2.99384765625
1.7958251953125
1.7281494140625
1.7635986328125
1.5364013671874999
0.98291015625
0.022558593749999998
0.146630859375
0.3585205078125
1.044140625
1.2753662109375
1.4300537109375
1.353515625
1.67900390625
1.6379150390625
1.6443603515624998
1.65966796875
1.625830078125
1.6298583984375
1.606494140625
1.5573486328125
0.027392578124999997
1.2802001953125
1.4155517578124999
1.3470703124999999
1.5670166015625
2.13984375
2.989013671875
2.99384765625
2.0681396484375
1.7136474609374999
1.5525146484374999
1.5082031249999999
1.5944091796875
1.4888671875
1.496923828125
1.5057861328125
1.4501953125
1.4977294921875
1.49853515625
1.480810546875
1.480810546875
2.9994873046875
1.8014648437499998
1.60166015625
1.796630859375
1.5476806640624998
0.9861328125
0.41008300781249996
0.1393798828125
0.33273925781249997
0.913623046875
1.222998046875
1.4542236328125
1.3430419921874999
1.7088134765624998
1.6862548828125
1.6830322265625
1.6346923828125
1.6201904296874998
1.6105224609375
1.5944091796875
1.5637939453124998
0.026586914062499998
1.2439453125
1.606494140625
1.2955078125
1.5436523437499998
2.144677734375
2.447607421875
2.9922363281249997
2.2469970703124997
1.791796875
1.5654052734375
1.4711425781249998
1.5686279296874999
1.409912109375
1.5162597656249999
1.4920898437499999
1.4687255859375
1.5122314453124999
1.5017578125
1.477587890625
1.4759765624999999
2.9922363281249997
2.7263671874999997
1.5218994140625
1.8409423828125
1.5791015625
0.9676025390624999
0.49306640625
0.07814941406249999
0.1152099609375
0.6952880859374999
1.1867431640625
1.4139404296875
1.4139404296875
1.6822265625
1.67578125
1.6669189453125
1.6508056640625
1.6427490234375
1.6298583984375
1.6242187499999998
1.5791015625
0.0298095703125
0.2441162109375
1.6967285156249998
1.3414306640625
1.4840332031249999
2.035107421875
2.4443847656249997
2.995458984375
2.4709716796875
1.8071044921875
1.58232421875
1.480810546875
1.5243164062499999
1.445361328125
1.4977294921875
1.4872558593749998
1.445361328125
1.4872558593749998
1.4953124999999998
1.4840332031249999
1.4711425781249998
1.6822265625
2.9906249999999996
1.5364013671874999
1.7128417968749998
1.7120361328125
0.9877441406249999
0.668701171875
0.02578125
0.058813476562499994
0.6912597656249999
1.1029541015625
1.335791015625
1.3833251953124999
1.5791015625
1.73056640625
1.6854492187499999
1.6588623046875
1.64677734375
1.6201904296874998
1.6161621093749998
1.6201904296874998
1.2536132812499998
0.1716064453125
1.7217041015624999
1.3623779296874998
1.303564453125
2.038330078125
2.2985595703125
2.9922363281249997
2.5515380859374996
1.964208984375
1.6451660156249999
1.5025634765625
1.490478515625
1.5404296874999999
1.4679199218749999
1.4526123046875
1.474365234375
1.45341796875
1.4800048828124999
1.482421875
1.45341796875
1.6072998046875
2.9930419921875
1.6201904296874998
1.7088134765624998
1.7313720703125
1.3148437499999999
0.8596435546875
0.02578125
0.0829833984375
0.5244873046874999
0.9998291015624999
1.3430419921874999
1.4437499999999999
1.3857421875
1.6886718749999998
1.687060546875
1.6669189453125
1.6266357421875
1.6056884765625
1.6185791015625
1.6000488281249998
1.327734375
0.024169921875
1.5678222656249998
1.3301513671874998
1.3752685546874999
1.6330810546874999
2.051220703125
2.9930419921875
2.98740234375
2.1382324218749997
1.6282470703124998
1.513037109375
1.5041748046874999
1.5428466796875
1.46630859375
1.5041748046874999
1.474365234375
1.458251953125
1.4864501953125
1.49853515625
1.4590576171874998
1.4622802734375
2.9914306640625
1.6137451171875
1.7088134765624998
1.78857421875
1.5992431640625
0.863671875
0.02578125
0.23203125
0.5132080078125
1.03125
1.26005859375
1.3712402343749999
1.4147460937499998
1.735400390625
1.67900390625
1.6564453124999998
1.6733642578124999
1.625830078125
1.6072998046875
1.5911865234375
1.5525146484374999
0.0249755859375
1.538818359375
1.5678222656249998
1.3801025390625
1.6701416015625
2.0431640625
2.7303955078124997
2.9906249999999996
2.1052001953125
1.7265380859375
1.5347900390625
1.506591796875
1.611328125
1.4630859374999998
1.525927734375
1.5122314453124999
1.4912841796874998
1.46953125
1.4630859374999998
1.4526123046875
1.45341796875
2.989013671875
1.9513183593749999
1.49853515625
1.791796875
1.5670166015625
0.978076171875
0.620361328125
0.23283691406249998
0.37705078124999997
0.913623046875
1.2826171874999999
1.4228027343749998
1.3631835937499999
1.7611816406249998
1.6927001953124998
1.6612792968749999
1.6330810546874999
1.6346923828125
1.6169677734374999
1.6282470703124998
1.5589599609375
0.02900390625
1.061865234375
1.6322753906249998
1.30517578125
1.5275390624999998
2.12373046875
2.5595947265624996
2.9930419921875
2.26875
1.6886718749999998
1.554931640625
1.4928955078125
1.5396240234374998
1.4550292968749998
1.52109375
1.4800048828124999
1.4703369140625
1.4977294921875
1.4896728515625
1.480810546875
1.461474609375
2.99384765625
2.977734375
1.5218994140625
1.7740722656249999
1.6330810546874999
1.0376953125
0.6936767578124999
0.116015625
0.4116943359375
0.93779296875
1.2101074218749999
1.393798828125
1.368017578125
1.6185791015625
1.6475830078125
1.6306640625
1.6234130859375
1.6177734375
1.61455078125
1.5919921874999998
1.5299560546875
0.030615234374999998
0.958740234375
1.5686279296874999
1.2906738281249999
1.53720703125
2.0906982421875
2.2341064453125
2.9922363281249997
2.27841796875
1.8071044921875
1.6121337890624998
1.5146484375
1.542041015625
1.496923828125
1.51787109375
1.5033691406249998
1.4880615234374999
1.5090087890625
1.490478515625
1.4953124999999998
1.5057861328125
2.995458984375
2.94873046875
1.5541259765625
1.7748779296875
1.6443603515624998
1.1053710937499999
0.862060546875
0.15146484375
0.275537109375
0.8032470703125
1.203662109375
1.3672119140624999
1.40185546875
1.4832275390624998
1.6411376953124999
1.6153564453125
1.60166015625
1.6105224609375
1.5976318359375
1.61455078125
1.5702392578125
0.02578125
0.040283203125
1.6129394531249999
1.313232421875
1.4429443359374998
1.828857421875
2.212353515625
2.9922363281249997
2.6208251953125
1.9674316406249999
1.6177734375
1.5380126953125
1.5267333984375
1.5106201171875
1.5146484375
1.5041748046874999
1.4912841796874998
1.48564453125
1.4961181640624999
1.4872558593749998
1.4888671875
1.4703369140625
2.9930419921875
1.5218994140625
1.6862548828125
1.7442626953125
1.1480712890625
0.8822021484375
0.02578125
0.2972900390625
0.784716796875
1.16015625
1.3100097656249998
1.3857421875
1.4800048828124999
1.6556396484375
1.625830078125
1.6298583984375
1.6056884765625
1.585546875
1.5960205078124998
1.571044921875
1.5138427734375
0.027392578124999997
1.6242187499999998
1.3744628906249998
1.3591552734374999
1.8264404296874999
2.1019775390624997
2.9898193359375
2.6135742187499997
1.9585693359374998
1.6846435546874998
1.52109375
1.5106201171875
1.55009765625
1.4896728515625
1.50498046875
1.477587890625
1.4461669921875
1.4840332031249999
1.4437499999999999
1.4630859374999998
1.4735595703125
2.9970703125
1.6830322265625
1.714453125
1.7684326171875
1.5041748046874999
1.0852294921874999
0.022558593749999998
0.29245605468749997
0.5744384765625
1.0481689453125
1.3027587890624999
1.426025390625
1.3285400390625
1.6322753906249998
1.6169677734374999
1.6322753906249998
1.6298583984375
1.585546875
1.5791015625
1.577490234375
1.529150390625
0.024169921875
1.4091064453125
1.3656005859375
1.3543212890624998
1.5734619140625
1.9996582031249999
2.9930419921875
2.9906249999999996
2.1503173828124997
1.662890625
1.5380126953125
1.493701171875
1.59521484375
1.496923828125
1.49853515625
1.4872558593749998
1.4477783203124999
1.4719482421874999
1.458251953125
1.4687255859375
1.4606689453125
2.9922363281249997
2.24619140625
1.7281494140625
1.8119384765625
1.622607421875
1.0892578124999999
0.4970947265625
0.3029296875
0.5502685546875
1.0328613281249999
1.2286376953125
1.4107177734374998
1.3728515625
1.7345947265625
1.641943359375
1.6169677734374999
1.60166015625
1.56943359375
1.5815185546875
1.585546875
1.546875
0.026586914062499998
1.3897705078125
1.5170654296875
1.2463623046874999
1.5009521484375
1.9988525390624998
2.386376953125
2.9922363281249997
2.18173828125
1.7740722656249999
1.5976318359375
1.51787109375
1.5654052734375
1.3954101562499999
1.525927734375
1.5033691406249998
1.477587890625
1.4953124999999998
1.4928955078125
1.4687255859375
1.4687255859375
2.995458984375
2.3227294921875
1.5662109375
1.796630859375
1.619384765625
1.01513671875
0.7943847656249999
0.32548828124999996
0.26828613281249997
0.8386962890624999
1.1432373046875
1.3986328124999998
1.348681640625
1.55009765625
1.619384765625
1.6508056640625
1.6443603515624998
1.6129394531249999
1.6153564453125
1.6024658203125
1.5968261718749999
0.026586914062499998
0.6509765624999999
1.593603515625
1.2221923828124999
1.4219970703125
1.9787109374999998
2.1551513671875
2.99384765625
2.3557617187499997
1.896533203125
1.6137451171875
1.546875
1.55009765625
1.542041015625
1.5299560546875
1.538818359375
1.5090087890625
1.5025634765625
1.5033691406249998
1.4961181640624999
1.4630859374999998
2.2590820312499997
2.9922363281249997
1.6306640625
1.8336914062499998
1.7652099609374998
1.2270263671875
0.69287109375
0.024169921875
0.027392578124999997
0.47050781249999996
1.0626708984375
1.3269287109374999
1.3881591796875
1.5686279296874999
1.65966796875
1.6717529296875
1.6459716796875
1.6089111328124999
1.5831298828125
1.5863525390625
1.5645996093749999
0.4406982421875
0.02578125
1.5831298828125
1.2052734375
1.2906738281249999
1.7208984374999998
2.33642578125
2.9930419921875
2.9680664062499997
2.022216796875
1.71123046875
1.590380859375
1.571044921875
1.5476806640624998
1.48564453125
1.490478515625
1.4413330078125
1.445361328125
1.48564453125
1.4800048828124999
1.4445556640625
1.4187744140624998
2.9962646484374997
1.66611328125
1.883642578125
1.977099609375
1.3478759765625
0.8306396484374999
0.026586914062499998
0.026586914062499998
0.3343505859375
0.8064697265624999
1.0731445312499999
1.3100097656249998
1.3478759765625
1.6322753906249998
1.638720703125
1.6572509765624999
1.6636962890625
1.6008544921874999
1.5895751953125
1.5944091796875
1.542041015625
0.024169921875
1.4356933593749999
1.2262207031249999
1.06669921875
1.58232421875
2.125341796875
2.9922363281249997
2.9906249999999996
2.3936279296875
1.9948242187499998
1.767626953125
1.6169677734374999
1.703173828125
1.6000488281249998
1.5412353515625
1.5106201171875
1.4880615234374999
1.5001464843749999
1.493701171875
1.4679199218749999
1.4558349609374999
2.9914306640625
1.9714599609374999
1.9384277343749998
2.189794921875
1.9062011718749998
1.0465576171875
0.0281982421875
0.024169921875
0.0281982421875
0.38994140624999996
0.8113037109375
1.0739501953125
1.00224609375
1.6379150390625
1.6564453124999998
1.667724609375
1.6532226562499999
1.6363037109374998
1.6371093749999999
1.6250244140624999
1.55009765625
0.02578125
1.0143310546875
1.3059814453124998
0.8338623046875
1.087646484375
1.9948242187499998
2.995458984375
2.9922363281249997
2.7497314453125
2.450830078125
2.0600830078125
1.848193359375
1.8216064453124998
1.6363037109374998
1.603271484375
1.56298828125
1.490478515625
1.5218994140625
1.4928955078125
1.4501953125
1.413134765625
2.99384765625
2.989013671875
2.3404541015625
2.8359375
2.5966552734375
1.3913818359374999
0.026586914062499998
0.0298095703125
0.027392578124999997
0.02578125
0.026586914062499998
0.2038330078125
0.2537841796875
0.8362792968749999
1.095703125
1.3269287109374999
1.474365234375
1.509814453125
1.5355957031249998
1.561376953125
1.5025634765625
0.027392578124999997
0.0298095703125
0.023364257812499997
0.023364257812499997
0.026586914062499998
0.02900390625
0.024169921875
2.9922363281249997
2.9962646484374997
2.99384765625
2.9922363281249997
2.9930419921875
2.9906249999999996
2.99384765625
2.9922363281249997
2.9922363281249997
2.9946533203124996
2.99384765625
2.9922363281249997
2.8423828125
2.78759765625
2.9922363281249997
2.9914306640625
2.9922363281249997
2.9914306640625
2.9930419921875
2.9930419921875
2.63291015625
0.0281982421875
0.0314208984375
0.026586914062499998
0.026586914062499998
0.027392578124999997
0.02578125
0.02578125
0.0249755859375
0.023364257812499997
0.027392578124999997
0.02900390625
0.049145507812499996
0.16435546874999998
0.16838378906249998
0.026586914062499998
0.02578125
0.0249755859375
0.027392578124999997
0.026586914062499998
0.02900390625
0.02578125
0.026586914062499998
0.0249755859375
2.3638183593749997
2.9930419921875
2.9906249999999996
2.99384765625
2.9914306640625
2.989013671875
2.9946533203124996
2.9922363281249997
2.9922363281249997
2.9914306640625
2.9946533203124996
2.9906249999999996
2.9076416015624997
2.995458984375
2.9922363281249997
2.9970703125
2.99384765625
2.9922363281249997
2.9930419921875
0.02578125
0.02578125
0.02578125
0.023364257812499997
0.02578125
0.027392578124999997
0.020947265625
0.0298095703125
0.02578125
0.024169921875
0.026586914062499998
0.01611328125
0.14421386718749998
0.23928222656249998
0.1377685546875
0.022558593749999998
0.027392578124999997
0.026586914062499998
0.026586914062499998
0.023364257812499997
0.0249755859375
0.026586914062499998
0.027392578124999997
1.1335693359374999
2.24619140625
2.8496337890624996
2.9906249999999996
2.99384765625
2.9906249999999996
2.9970703125
2.9962646484374997
2.9922363281249997
2.9922363281249997
2.9930419921875
2.99384765625
2.9269775390625
2.9865966796874996
2.9930419921875
2.995458984375
2.9898193359375
2.9906249999999996
2.9930419921875
2.067333984375
0.026586914062499998
0.02578125
0.023364257812499997
0.0249755859375
0.02578125
0.026586914062499998
0.02578125
0.02900390625
0.02578125
0.027392578124999997
0.027392578124999997
0.08540039062499999
0.10634765624999999
0.09990234375
0.026586914062499998
0.0249755859375
0.024169921875
0.024169921875
0.0298095703125
0.02578125
0.0281982421875
0.026586914062499998
0.02578125
1.38896484375
2.2244384765625
2.7424804687499997
2.9898193359375
2.989013671875
2.9970703125
2.9922363281249997
2.9922363281249997
2.99384765625
2.9930419921875
2.9922363281249997
2.9930419921875
2.9914306640625
2.9922363281249997
2.99384765625
2.9986816406249996
2.99384765625
2.9914306640625
2.9914306640625
0.024169921875
0.02578125
0.020947265625
0.02578125
0.02578125
0.026586914062499998
0.02578125
0.02578125
0.027392578124999997
0.0249755859375
0.022558593749999998
0.024169921875
0.10634765624999999
0.12568359375
0.026586914062499998
0.0249755859375
0.02578125
0.024169921875
0.0104736328125
0.026586914062499998
0.026586914062499998
0.0281982421875
0.0249755859375
0.8685058593749999
1.7901855468749999
2.34609375
2.82626953125
2.9962646484374997
2.9946533203124996
2.9882080078124997
2.995458984375
2.9914306640625
2.99384765625
2.99384765625
2.9922363281249997
2.9922363281249997
2.9970703125
2.9946533203124996
2.99384765625
2.9922363281249997
2.9930419921875
2.985791015625
0.02578125
0.0217529296875
0.024169921875
0.0169189453125
0.02578125
0.024169921875
0.0249755859375
0.02578125
0.0249755859375
0.018530273437499998
0.0362548828125
0.0201416015625
0.130517578125
0.2038330078125
0.1651611328125
0.02578125
0.022558593749999998
0.0249755859375
0.0201416015625
0.027392578124999997
0.026586914062499998
0.020947265625
0.0217529296875
0.02578125
1.4574462890625
2.273583984375
2.8053222656249996
2.9946533203124996
2.99384765625
2.9906249999999996
2.99384765625
2.9978759765625
2.9906249999999996
2.995458984375
2.9922363281249997
2.9906249999999996
2.9970703125
2.9906249999999996
2.9922363281249997
2.9906249999999996
2.9882080078124997
2.9922363281249997
2.7158935546875
0.02578125
0.023364257812499997
0.0249755859375
0.02578125
0.0249755859375
0.0249755859375
0.02578125
0.02578125
0.022558593749999998
0.023364257812499997
0.02578125
0.0515625
0.1377685546875
0.159521484375
0.02578125
0.02578125
0.0281982421875
0.0217529296875
0.022558593749999998
0.0249755859375
0.02578125
0.0249755859375
0.024169921875
0.8910644531249999
1.7990478515625
2.5201171875
2.979345703125
2.99384765625
2.989013671875
2.9946533203124996
2.9930419921875
2.9906249999999996
2.9946533203124996
2.9914306640625
2.9922363281249997
2.9970703125
2.9914306640625
2.9914306640625
2.9922363281249997
2.9882080078124997
2.9930419921875
2.9914306640625
0.28842773437499997
0.0249755859375
0.02900390625
0.0201416015625
0.02578125
0.026586914062499998
0.026586914062499998
0.027392578124999997
0.026586914062499998
0.0249755859375
0.024169921875
0.02578125
0.0765380859375
0.153076171875
0.1409912109375
0.027392578124999997
0.02578125
0.0249755859375
0.026586914062499998
0.02900390625
0.026586914062499998
0.020947265625
0.02578125
1.2270263671875
1.82080078125
2.486279296875
2.989013671875
2.9970703125
2.99384765625
2.9914306640625
2.9906249999999996
2.9930419921875
2.9906249999999996
2.9922363281249997
2.99384765625
2.99384765625
2.9970703125
2.9930419921875
2.9922363281249997
2.9914306640625
2.9922363281249997
2.9930419921875
2.9906249999999996
0.8588378906249999
0.0249755859375
0.023364257812499997
0.026586914062499998
0.02578125
0.026586914062499998
0.026586914062499998
0.026586914062499998
0.0201416015625
0.022558593749999998
0.023364257812499997
0.1232666015625
0.169189453125
0.22075195312499998
0.0217529296875
0.024169921875
0.02900390625
0.0249755859375
0.0249755859375
0.02578125
0.024169921875
0.030615234374999998
0.0249755859375
1.5726562499999999
2.3001708984375
2.8093505859374996
2.9946533203124996
2.9930419921875
2.9946533203124996
2.9922363281249997
2.9922363281249997
2.9930419921875
2.9962646484374997
2.99384765625
2.99384765625
2.99384765625
2.9946533203124996
2.99384765625
2.9930419921875
2.9882080078124997
2.9922363281249997
2.9922363281249997
2.940673828125
0.020947265625
0.022558593749999998
0.014501953125
0.0249755859375
0.0281982421875
0.026586914062499998
0.0217529296875
0.0249755859375
0.024169921875
0.024169921875
0.08540039062499999
0.1611328125
0.2255859375
0.23203125
0.02578125
0.02578125
0.026586914062499998
0.026586914062499998
0.0249755859375
0.024169921875
0.02578125
0.0281982421875
1.5275390624999998
2.3203125
2.8915283203124997
2.9906249999999996
2.9914306640625
2.9962646484374997
2.9914306640625
2.9930419921875
2.9906249999999996
2.9946533203124996
2.9906249999999996
2.9914306640625
2.9906249999999996
2.9906249999999996
2.9946533203124996
2.9930419921875
2.99384765625
2.9930419921875
2.9882080078124997
2.9930419921875
1.5847412109374999
0.026586914062499998
0.026586914062499998
0.02578125
0.0298095703125
0.02578125
0.0249755859375
0.02578125
0.023364257812499997
0.026586914062499998
0.0249755859375
0.103125
0.15791015625
0.1796630859375
0.024169921875
0.026586914062499998
0.0249755859375
0.02578125
0.02578125
0.0217529296875
0.0281982421875
0.0249755859375
0.0249755859375
2.102783203125
2.7626220703124997
2.99384765625
2.9922363281249997
2.9922363281249997
2.99384765625
2.9930419921875
2.99384765625
2.9906249999999996
2.9922363281249997
2.9962646484374997
2.9922363281249997
2.9930419921875
2.9898193359375
2.9922363281249997
2.9970703125
2.9922363281249997
2.9922363281249997
2.99384765625
2.8899169921874996
0.022558593749999998
0.0298095703125
0.02578125
0.0281982421875
0.02900390625
0.0281982421875
0.02578125
0.026586914062499998
0.02578125
0.023364257812499997
0.027392578124999997
0.0620361328125
0.16435546874999998
0.0378662109375
0.026586914062499998
0.020947265625
0.024169921875
0.023364257812499997
0.027392578124999997
0.030615234374999998
0.027392578124999997
0.027392578124999997
1.65966796875
2.6296874999999997
2.9922363281249997
2.99384765625
2.9906249999999996
2.9930419921875
2.9898193359375
2.9946533203124996
2.9922363281249997
2.9914306640625
2.9962646484374997
2.99384765625
2.9970703125
2.9898193359375
2.9914306640625
2.9930419921875
2.9906249999999996
2.9946533203124996
2.9906249999999996
2.9970703125
0.9232910156249999
0.026586914062499998
0.02578125
0.02578125
0.020947265625
0.0217529296875
0.02578125
0.0281982421875
0.024169921875
0.023364257812499997
0.020947265625
0.0717041015625
0.1345458984375
0.0708984375
0.023364257812499997
0.026586914062499998
0.024169921875
0.0249755859375
0.026586914062499998
0.0249755859375
0.0249755859375
0.02578125
1.4316650390624999
2.36865234375
2.8955566406249997
2.9914306640625
2.99384765625
2.9922363281249997
2.9914306640625
2.99384765625
2.995458984375
2.995458984375
2.995458984375
2.9946533203124996
2.9914306640625
2.99384765625
2.9930419921875
2.9922363281249997
2.9946533203124996
2.9922363281249997
2.99384765625
2.9930419921875
2.9930419921875
0.0249755859375
0.02578125
0.0298095703125
0.026586914062499998
0.0249755859375
0.027392578124999997
0.02578125
0.023364257812499997
0.0249755859375
0.027392578124999997
0.043505859375
0.10957031249999999
0.169189453125
0.0217529296875
0.024169921875
0.027392578124999997
0.024169921875
0.026586914062499998
0.02578125
0.02578125
0.026586914062499998
0.026586914062499998
1.7289550781249998
2.6901123046874997
2.9914306640625
2.9946533203124996
2.9922363281249997
2.995458984375
2.9906249999999996
2.99384765625
2.99384765625
2.9930419921875
2.98740234375
2.9906249999999996
2.99384765625
2.9930419921875
2.9930419921875
2.99384765625
2.9865966796874996
2.98740234375
2.9914306640625
2.99384765625
0.6243896484375
0.026586914062499998
0.026586914062499998
0.0298095703125
0.0249755859375
0.0249755859375
0.02578125
0.023364257812499997
0.024169921875
0.02900390625
0.0249755859375
0.026586914062499998
0.053173828124999996
0.02578125
0.020947265625
0.02578125
0.0298095703125
0.0249755859375
0.0217529296875
0.023364257812499997
0.024169921875
0.0249755859375
1.173046875
2.2163818359375
2.9720947265624997
2.9930419921875
2.9906249999999996
2.995458984375
2.99384765625
2.9914306640625
2.9922363281249997
2.9914306640625
2.99384765625
2.9930419921875
2.9011962890625
2.9930419921875
2.9914306640625
2.9946533203124996
2.9922363281249997
2.9914306640625
2.995458984375
2.9946533203124996
1.635498046875
0.02578125
0.02578125
0.0281982421875
0.02578125
0.02900390625
0.023364257812499997
0.0249755859375
0.024169921875
0.023364257812499997
0.0281982421875
0.023364257812499997
0.064453125
0.030615234374999998
0.024169921875
0.020947265625
0.020947265625
0.0281982421875
0.022558593749999998
0.026586914062499998
0.02578125
0.026586914062499998
0.58974609375
1.8377197265624998
2.6836669921875
2.995458984375
2.9946533203124996
2.99384765625
2.99384765625
2.9922363281249997
2.9962646484374997
2.99384765625
2.99384765625
2.9922363281249997
2.9898193359375
2.9930419921875
2.9930419921875
2.9882080078124997
2.99384765625
2.9865966796874996
2.9922363281249997
2.9922363281249997
2.9922363281249997
0.024169921875
0.024169921875
0.024169921875
0.020947265625
0.020947265625
0.0201416015625
0.020947265625
0.027392578124999997
0.024169921875
0.0249755859375
0.0281982421875
0.0249755859375
0.0555908203125
0.0249755859375
0.020947265625
0.02578125
0.026586914062499998
0.026586914062499998
0.0249755859375
0.0249755859375
0.02578125
0.022558593749999998
1.3365966796875
2.222021484375
2.7988769531249997
2.9906249999999996
2.99384765625
2.9898193359375
2.9914306640625
2.9930419921875
2.9962646484374997
2.9914306640625
2.9882080078124997
2.9970703125
2.969677734375
2.9865966796874996
2.995458984375
2.9922363281249997
2.9930419921875
2.9922363281249997
2.9906249999999996
2.9906249999999996
0.6952880859374999
0.0249755859375
0.0249755859375
0.020947265625
0.02578125
0.0281982421875
0.030615234374999998
0.024169921875
0.024169921875
0.0249755859375
0.0281982421875
0.043505859375
0.1168212890625
0.046728515624999994
0.018530273437499998
0.02900390625
0.0217529296875
0.0298095703125
0.02578125
0.0217529296875
0.0249755859375
0.026586914062499998
1.1053710937499999
2.03671875
2.6836669921875
2.9914306640625
2.9922363281249997
2.9914306640625
2.9914306640625
2.9946533203124996
2.9922363281249997
2.9930419921875
2.9914306640625
2.9946533203124996
2.9898193359375
2.9946533203124996
2.9930419921875
2.9962646484374997
2.9914306640625
2.9930419921875
2.98740234375
2.9946533203124996
2.5265625
0.02578125
0.024169921875
0.023364257812499997
0.024169921875
0.02578125
0.0249755859375
0.02578125
0.0249755859375
0.02578125
0.02578125
0.026586914062499998
0.0845947265625
0.043505859375
0.02578125
0.020947265625
0.023364257812499997
0.0249755859375
0.02578125
0.02578125
0.02578125
0.02578125
0.0201416015625
1.7152587890625
2.582958984375
2.9906249999999996
2.99384765625
2.9962646484374997
2.9930419921875
2.9882080078124997
2.9914306640625
2.9922363281249997
2.9914306640625
2.9914306640625
2.9922363281249997
2.9914306640625
2.9898193359375
2.9882080078124997
2.9841796874999997
2.9922363281249997
2.9922363281249997
2.9906249999999996
2.9922363281249997
0.02578125
0.0249755859375
0.026586914062499998
0.026586914062499998
0.026586914062499998
0.0249755859375
0.02578125
0.01611328125
0.0249755859375
0.02578125
0.026586914062499998
0.0378662109375
0.0539794921875
0.02578125
0.02900390625
0.026586914062499998
0.02578125
0.0201416015625
0.02578125
0.0281982421875
0.0298095703125
0.020947265625
1.3212890625
2.50400390625
2.9455078125
2.9970703125
2.9914306640625
2.9914306640625
2.9922363281249997
2.9922363281249997
2.9946533203124996
2.9930419921875
2.9922363281249997
2.9914306640625
2.9922363281249997
2.9898193359375
2.9930419921875
2.9898193359375
2.9914306640625
2.9930419921875
2.9930419921875
2.9946533203124996
2.4790283203124996
0.02900390625
0.02578125
0.026586914062499998
0.0281982421875
0.024169921875
0.02578125
0.0298095703125
0.020947265625
0.024169921875
0.0249755859375
0.02578125
0.0684814453125
0.02578125
0.019335937499999997
0.0217529296875
0.020947265625
0.0249755859375
0.026586914062499998
0.027392578124999997
0.0298095703125
0.030615234374999998
0.020947265625
1.5364013671874999
2.5483154296875
2.98740234375
2.9922363281249997
2.9922363281249997
2.9914306640625
2.9922363281249997
2.99384765625
2.9946533203124996
2.9914306640625
2.9922363281249997
2.9841796874999997
2.9962646484374997
2.9906249999999996
2.9906249999999996
2.9946533203124996
2.9882080078124997
2.9906249999999996
2.9906249999999996
2.9922363281249997
0.1168212890625
0.0201416015625
0.0249755859375
0.0217529296875
0.02900390625
0.0249755859375
0.026586914062499998
0.0249755859375
0.0298095703125
0.023364257812499997
0.0298095703125
0.09990234375
0.054785156249999994
0.0281982421875
0.02900390625
0.023364257812499997
0.026586914062499998
0.024169921875
0.024169921875
0.0281982421875
0.027392578124999997
0.026586914062499998
1.4042724609375
2.4177978515625
2.9930419921875
2.9922363281249997
2.9906249999999996
2.9906249999999996
2.9906249999999996
2.9922363281249997
2.9906249999999996
2.9970703125
2.9922363281249997
2.995458984375
2.9914306640625
2.99384765625
2.9898193359375
2.9922363281249997
2.9914306640625
2.9922363281249997
2.9922363281249997
2.989013671875
0.87333984375
0.027392578124999997
0.0249755859375
0.0249755859375
0.02578125
0.026586914062499998
0.02578125
0.0217529296875
0.02578125
0.024169921875
0.0217529296875
0.027392578124999997
0.11037597656249999
0.0620361328125
0.0217529296875
0.024169921875
0.0249755859375
0.0249755859375
0.024169921875
0.0201416015625
0.024169921875
0.0298095703125
1.4244140625
2.165625
2.99384765625
2.995458984375
2.9906249999999996
2.98095703125
2.9946533203124996
2.9930419921875
2.995458984375
2.9922363281249997
2.9922363281249997
2.9914306640625
2.9261718749999996
2.98740234375
2.9922363281249997
2.9962646484374997
2.99384765625
2.9922363281249997
2.989013671875
2.9914306640625
2.9922363281249997
0.026586914062499998
0.018530273437499998
0.0281982421875
0.0249755859375
0.023364257812499997
0.024169921875
0.0281982421875
0.026586914062499998
0.02578125
0.0217529296875
0.02578125
0.0346435546875
0.0249755859375
0.0249755859375
0.0249755859375
0.02578125
0.0298095703125
0.0249755859375
0.02578125
0.024169921875
0.0249755859375
0.0249755859375
1.8506103515624999
2.7416748046875
2.9906249999999996
2.99384765625
2.9922363281249997
2.99384765625
2.99384765625
2.9906249999999996
2.9946533203124996
2.995458984375
2.977734375
2.9970703125
2.9922363281249997
2.9914306640625
2.9922363281249997
2.9898193359375
2.9922363281249997
2.989013671875
2.9914306640625
2.9865966796874996
0.3601318359375
0.02578125
0.026586914062499998
0.024169921875
0.0249755859375
0.02578125
0.0298095703125
0.02578125
0.0249755859375
0.020947265625
0.02578125
0.050756835937499994
0.14018554687499998
0.0539794921875
0.0249755859375
0.0249755859375
0.024169921875
0.0201416015625
0.027392578124999997
0.02578125
0.02578125
0.030615234374999998
1.281005859375
2.338037109375
2.96162109375
2.9906249999999996
2.9946533203124996
2.9922363281249997
2.9922363281249997
2.9922363281249997
2.9922363281249997
2.9930419921875
2.9906249999999996
2.9914306640625
2.98740234375
2.99384765625
2.9906249999999996
2.9914306640625
2.9906249999999996
2.9922363281249997
2.9922363281249997
2.9930419921875
1.100537109375
0.02578125
0.0281982421875
0.02578125
0.02578125
0.02578125
0.020947265625
0.02900390625
0.02900390625
0.0249755859375
0.0249755859375
0.030615234374999998
0.04833984375
0.02578125
0.030615234374999998
0.02578125
0.02578125
0.022558593749999998
0.011279296874999999
0.0314208984375
0.023364257812499997
0.026586914062499998
0.02578125
1.915869140625
2.76826171875
2.9914306640625
2.9906249999999996
2.9914306640625
2.9914306640625
2.99384765625
2.9906249999999996
2.9882080078124997
2.989013671875
2.9930419921875
2.99384765625
2.995458984375
2.9946533203124996
2.9906249999999996
2.9906249999999996
2.995458984375
2.9922363281249997
2.9906249999999996
2.9914306640625
0.026586914062499998
0.0249755859375
0.026586914062499998
0.0298095703125
0.0298095703125
0.02578125
0.024169921875
0.0249755859375
0.020947265625
0.024169921875
0.020947265625
0.0314208984375
0.037060546874999996
0.0249755859375
0.024169921875
0.0281982421875
0.027392578124999997
0.024169921875
0.02578125
0.02578125
0.020947265625
0.0249755859375
1.013525390625
2.4258544921875
2.9833740234375
2.9930419921875
2.9914306640625
2.995458984375
2.9946533203124996
2.9914306640625
2.9930419921875
2.9922363281249997
2.9930419921875
2.9914306640625
2.9930419921875
2.9882080078124997
2.9922363281249997
2.9922363281249997
2.9914306640625
2.9906249999999996
2.9922363281249997
2.989013671875
1.4413330078125
0.0249755859375
0.024169921875
0.022558593749999998
0.0249755859375
0.023364257812499997
0.0281982421875
0.2296142578125
0.929736328125
2.1084228515625
2.9922363281249997
2.9906249999999996
2.9922363281249997
2.9922363281249997
0.0249755859375
0.02900390625
0.7484619140625
1.6242187499999998
2.9906249999999996
2.9906249999999996
2.9922363281249997
2.9922363281249997
2.9930419921875
2.9914306640625
2.9906249999999996
2.99384765625
2.9914306640625
2.9906249999999996
2.9922363281249997
2.9922363281249997
2.989013671875
2.9962646484374997
2.9906249999999996
2.9946533203124996
2.99384765625
2.9898193359375
2.9914306640625
2.9914306640625
2.99384765625
2.98740234375
2.99384765625
2.3807373046875
0.502734375
0.024169921875
0.262646484375
0.768603515625
1.3075927734375
1.545263671875
2.53623046875
2.8850830078125
2.9906249999999996
2.9946533203124996
2.9922363281249997
2.9922363281249997
2.9922363281249997
2.9922363281249997
0.024169921875
0.0088623046875
0.539794921875
0.1893310546875
0.58330078125
2.0133544921874997
2.9914306640625
2.9914306640625
2.9922363281249997
2.9946533203124996
2.9930419921875
2.9922363281249997
2.9914306640625
2.7932373046874996
2.745703125
2.65546875
2.263916015625
2.0375244140624997
1.8876708984375
1.6081054687499998
1.4381103515625
1.37607421875
2.99384765625
2.8778320312499996
2.989013671875
2.995458984375
1.6024658203125
0.4600341796875
0.0249755859375
0.0249755859375
0.0314208984375
0.024169921875
0.027392578124999997
0.024169921875
0.16274414062499998
0.5567138671874999
0.58330078125
0.6678955078125
0.69609375
0.8048583984375
0.90234375
0.990966796875
0.7903564453124999
0.02578125
0.0281982421875
0.020947265625
0.0249755859375
0.43505859375
2.3468994140625
2.9962646484374997
2.9922363281249997
2.6917236328125
2.2026855468749997
1.9110351562499999
1.699951171875
1.6645019531249998
1.405078125
1.3551269531249999
1.2616699218749998
1.1722412109375
1.2044677734375
1.198828125
1.2109130859375
1.1690185546875
2.9914306640625
2.2953369140624997
2.8947509765625
2.985791015625
2.7658447265625
0.775048828125
0.030615234374999998
0.024169921875
0.0281982421875
0.020947265625
0.024169921875
0.18691406249999998
0.1554931640625
0.9563232421875
0.994189453125
1.17626953125
1.36962890625
1.3212890625
1.345458984375
1.377685546875
1.319677734375
0.02900390625
0.02578125
1.029638671875
0.55107421875
0.7839111328124999
2.131787109375
2.99384765625
2.995458984375
2.9946533203124996
2.096337890625
1.8546386718749999
1.71123046875
1.738623046875
1.6483886718749998
1.5791015625
1.525927734375
1.4518066406249999
1.5186767578125
1.4687255859375
1.400244140625
1.3962158203125
2.9906249999999996
2.9914306640625
1.9029785156249999
2.6232421875
2.4032958984375
1.1384033203125
0.02578125
0.0217529296875
0.02578125
0.0845947265625
0.17080078124999998
0.45036621093749996
0.57041015625
1.1214843749999999
1.4228027343749998
1.5186767578125
1.5678222656249998
1.6483886718749998
1.619384765625
1.593603515625
1.5533203125
0.023364257812499997
0.020947265625
1.3752685546874999
0.8113037109375
0.8741455078125
1.8183837890624999
2.9930419921875
2.9906249999999996
2.9906249999999996
2.1406494140625
1.9779052734375
1.8344970703124999
1.75634765625
1.6693359374999999
1.6959228515625
1.6524169921874998
1.5565429687499999
1.5758789062499998
1.5331787109375
1.442138671875
1.5364013671874999
1.506591796875
2.9922363281249997
1.69189453125
2.07861328125
2.4830566406249996
1.2753662109375
0.3955810546875
0.0249755859375
0.026586914062499998
0.02578125
0.3311279296875
0.530126953125
0.7613525390625
1.0352783203125
1.5033691406249998
1.6306640625
1.7096191406249999
1.7490966796874998
1.7313720703125
1.716064453125
1.6556396484375
1.5565429687499999
0.037060546874999996
0.175634765625
1.039306640625
0.8282226562499999
1.1013427734374999
2.65869140625
2.9946533203124996
2.9906249999999996
2.373486328125
2.101171875
1.960986328125
1.8796142578125
1.877197265625
1.6935058593749999
1.654833984375
1.5275390624999998
1.40830078125
1.52109375
1.5122314453124999
1.5009521484375
1.4518066406249999
2.9930419921875
1.6089111328124999
2.0923095703125
2.447607421875
2.0052978515624997
0.9740478515625
0.0249755859375
0.02578125
0.02578125
0.2715087890625
0.45439453124999996
0.7806884765625
0.7379882812499999
1.67578125
1.5968261718749999
1.7023681640625
1.7072021484375
1.65966796875
1.6822265625
1.6669189453125
1.593603515625
0.026586914062499998
0.0249755859375
1.7055908203124999
0.9579345703125
1.12470703125
2.118896484375
2.99384765625
2.9922363281249997
2.6594970703125
2.1785156249999997
2.0334960937499997
1.82724609375
1.9223144531249998
1.5484863281249999
1.7015624999999999
1.5984375
1.5364013671874999
1.5001464843749999
1.5186767578125
1.49853515625
1.482421875
2.9930419921875
2.8874999999999997
1.6330810546874999
2.28486328125
2.2623046875
1.019970703125
0.2038330078125
0.0249755859375
0.024169921875
0.19899902343749998
0.41572265625
0.6888427734375
0.7541015624999999
1.300341796875
1.6161621093749998
1.7007568359374998
1.69833984375
1.7233154296875
1.670947265625
1.674169921875
1.6000488281249998
0.023364257812499997
0.024169921875
1.7579589843749999
1.0691162109374999
1.0546142578125
1.71123046875
2.8238525390625
2.98095703125
2.9962646484374997
2.180126953125
1.9924072265625
1.7990478515625
1.7208984374999998
1.6943115234375
1.6072998046875
1.606494140625
1.58232421875
1.577490234375
1.5170654296875
1.513037109375
1.5194824218749998
1.5194824218749998
2.9930419921875
1.6169677734374999
2.05927734375
2.383154296875
1.3390136718749999
0.54140625
0.02900390625
0.027392578124999997
0.0281982421875
0.36093749999999997
0.6002197265625
0.9007324218749999
1.1077880859375
1.522705078125
1.6669189453125
1.738623046875
1.8062988281249999
1.7635986328125
1.6830322265625
1.65
1.5235107421874998
0.0249755859375
1.803076171875
1.2802001953125
1.1947998046875
1.255224609375
2.7424804687499997
2.9962646484374997
2.9914306640625
2.2171875
1.9972412109375
1.8240234375
1.73056640625
1.8626953124999999
1.7507080078125
1.690283203125
1.6395263671875
1.5791015625
1.65
1.5895751953125
1.56298828125
1.533984375
2.9962646484374997
1.5557373046874998
1.667724609375
2.0810302734375
1.8667236328124999
0.8258056640625
0.027392578124999997
0.0298095703125
0.02900390625
0.4632568359375
0.7718261718749999
1.181103515625
1.05380859375
1.7724609375
1.7829345703125
1.8328857421875
1.7893798828124998
1.77568359375
1.7080078125
1.66611328125
1.5895751953125
0.02578125
1.155322265625
2.2429687499999997
1.606494140625
1.6653076171874999
2.4814453125
2.9930419921875
2.995458984375
2.1003662109375
1.667724609375
1.4880615234374999
1.3712402343749999
1.5057861328125
1.216552734375
1.4848388671875
1.464697265625
1.4316650390624999
1.45341796875
1.5106201171875
1.4518066406249999
1.4252197265625
2.1301757812499997
2.737646484375
1.1545166015625
1.525927734375
1.5831298828125
0.6566162109375
0.17482910156249998
0.0249755859375
0.02578125
0.502734375
0.9321533203125
1.361572265625
1.3188720703124999
1.6371093749999999
1.8957275390625
1.9037841796875
1.8071044921875
1.732177734375
1.72734375
1.6717529296875
1.61455078125
0.5865234375
0.02900390625
2.495947265625
1.6967285156249998
1.58232421875
2.4194091796875
2.827880859375
2.9922363281249997
2.165625
1.6604736328124998
1.3905761718749998
1.3083984375
1.3865478515624998
1.456640625
1.448583984375
1.4961181640624999
1.4759765624999999
1.50498046875
1.5017578125
1.458251953125
1.4848388671875
1.4816162109375
2.99384765625
1.203662109375
1.5887695312499999
1.6121337890624998
1.0884521484375
0.5196533203125
0.0249755859375
0.02578125
0.46083984375
1.02158203125
1.3639892578125
1.56943359375
1.4872558593749998
1.864306640625
1.815966796875
1.783740234375
1.7942138671874999
1.7217041015624999
1.706396484375
1.6185791015625
1.5654052734375
0.0281982421875
2.1865722656249997
1.931982421875
1.546875
1.7958251953125
2.2953369140624997
2.9914306640625
2.9922363281249997
1.6572509765624999
1.35673828125
1.2955078125
1.3301513671874998
1.5541259765625
1.3946044921874998
1.474365234375
1.4542236328125
1.46630859375
1.4864501953125
1.46630859375
1.4590576171874998
1.4348876953124998
2.995458984375
1.3639892578125
1.1666015625
1.6282470703124998
1.4735595703125
0.8338623046875
0.28037109374999997
0.3440185546875
0.4439208984375
1.087646484375
1.493701171875
1.6379150390625
1.5017578125
1.8336914062499998
1.78857421875
1.7370117187499998
1.6846435546874998
1.6290527343749999
1.6105224609375
1.5726562499999999
1.5718505859374998
0.02578125
1.7023681640625
2.1035888671875
1.625830078125
1.780517578125
2.3501220703125
2.5370361328124997
2.9946533203124996
1.844970703125
1.364794921875
1.2673095703125
1.34384765625
1.480810546875
1.405078125
1.4461669921875
1.442138671875
1.4348876953124998
1.46953125
1.464697265625
1.4606689453125
1.445361328125
2.99384765625
2.5152832031249996
1.0932861328124999
1.56298828125
1.413134765625
0.8991210937499999
0.555908203125
0.4245849609375
0.5067626953125
1.0626708984375
1.47275390625
1.5960205078124998
1.5565429687499999
1.7635986328125
1.7668212890625
1.690283203125
1.6556396484375
1.6330810546874999
1.641943359375
1.609716796875
1.554931640625
0.02900390625
0.47453613281249996
2.2018798828125
1.587158203125
1.6435546875
1.9956298828124999
2.2985595703125
2.9906249999999996
2.0737792968749997
1.3543212890624998
1.3100097656249998
1.300341796875
1.37607421875
1.40830078125
1.4477783203124999
1.45341796875
1.448583984375
1.4759765624999999
1.4832275390624998
1.4759765624999999
1.4493896484375
1.4703369140625
2.9930419921875
1.090869140625
1.4203857421875
1.5525146484374999
0.984521484375
0.8531982421875
0.301318359375
0.49387207031249997
1.14404296875
1.4977294921875
1.590380859375
1.5541259765625
1.5944091796875
1.7265380859375
1.6508056640625
1.6121337890624998
1.6121337890624998
1.554931640625
1.5887695312499999
1.5557373046874998
1.5331787109375
0.02578125
2.0616943359374997
1.5968261718749999
1.577490234375
1.9408447265625
2.1454833984375
2.9914306640625
1.972265625
1.458251953125
1.300341796875
1.3543212890624998
1.4389160156249998
1.53076171875
1.4655029296875
1.4759765624999999
1.480810546875
1.4679199218749999
1.493701171875
1.4550292968749998
1.456640625
1.4461669921875
2.9914306640625
1.287451171875
1.4010498046875
1.5331787109375
1.335791015625
1.0376953125
0.34079589843749997
0.6815917968749999
1.0006347656249999
1.4058837890625
1.5565429687499999
1.5968261718749999
1.4316650390624999
1.7168701171874998
1.61455078125
1.6161621093749998
1.6121337890624998
1.5702392578125
1.5509033203125
1.5541259765625
1.55009765625
0.02578125
1.8344970703124999
1.77568359375
1.55009765625
1.6862548828125
1.973876953125
2.9922363281249997
2.679638671875
1.651611328125
1.3873535156249999
1.361572265625
1.4010498046875
1.4920898437499999
1.4332763671875
1.45341796875
1.4638916015624999
1.4848388671875
1.5057861328125
1.480810546875
1.4590576171874998
1.4719482421874999
2.995458984375
1.80791015625
1.4115234374999999
1.5799072265624998
1.4389160156249998
1.0836181640625
0.5760498046875
0.8548095703124999
0.8805908203124999
1.4026611328124998
1.477587890625
1.5476806640624998
1.4912841796874998
1.7450683593749998
1.6411376953124999
1.5887695312499999
1.5702392578125
1.571044921875
1.542041015625
1.5509033203125
1.5243164062499999
0.024169921875
1.1859374999999999
1.780517578125
1.5436523437499998
1.6693359374999999
1.9682373046875
2.1342041015624997
2.9914306640625
1.8264404296874999
1.384130859375
1.351904296875
1.3905761718749998
1.5057861328125
1.3921875
1.4590576171874998
1.4711425781249998
1.474365234375
1.4800048828124999
1.4791992187499998
1.4751708984374998
1.47275390625
2.0625
1.9142578124999998
1.2769775390625
1.513037109375
1.4284423828125
1.0530029296874999
0.9724365234375
0.684814453125
0.8830078124999999
1.303564453125
1.4928955078125
1.5637939453124998
1.4993408203124998
1.606494140625
1.6363037109374998
1.5815185546875
1.5637939453124998
1.5879638671874998
1.558154296875
1.5509033203125
1.542041015625
0.807275390625
1.0594482421875
1.85302734375
1.5509033203125
1.6346923828125
1.93359375
1.9658203125
2.9906249999999996
1.8989501953124999
1.461474609375
1.3946044921874998
1.3994384765624999
1.4606689453125
1.46953125
1.4703369140625
1.4703369140625
1.464697265625
1.48564453125
1.4912841796874998
1.4880615234374999
1.4719482421874999
1.8328857421875
2.8174072265624996
1.3019531249999998
1.490478515625
1.46630859375
1.219775390625
1.0594482421875
0.6195556640625
0.8604492187499999
1.197216796875
1.48564453125
1.5323730468749999
1.52109375
1.48564453125
1.6266357421875
1.587158203125
1.5678222656249998
1.56298828125
1.5484863281249999
1.5315673828124998
1.5194824218749998
1.0530029296874999
0.1619384765625
1.8256347656249998
1.53076171875
1.587158203125
1.75634765625
1.9078125
2.9914306640625
2.254248046875
1.58232421875
1.3817138671875
1.4203857421875
1.4437499999999999
1.4791992187499998
1.4598632812499999
1.4816162109375
1.4598632812499999
1.4767822265625
1.4872558593749998
1.482421875
1.4679199218749999
1.4542236328125
2.9922363281249997
1.3551269531249999
1.4751708984374998
1.53720703125
1.2568359375
1.103759765625
0.49306640625
0.9232910156249999
1.16337890625
1.442138671875
1.5082031249999999
1.5235107421874998
1.4735595703125
1.658056640625
1.5879638671874998
1.5750732421875
1.5807128906249999
1.5597656249999998
1.546875
1.5428466796875
1.5194824218749998
0.1329345703125
1.79501953125
1.6435546875
1.5525146484374999
1.719287109375
1.9352050781249999
2.4298828125
2.2268554687499997
1.5782958984375
1.429248046875
1.4155517578124999
1.4413330078125
1.509814453125
1.456640625
1.4848388671875
1.46630859375
1.461474609375
1.5017578125
1.4816162109375
1.4864501953125
1.4679199218749999
2.9922363281249997
1.5919921874999998
1.3720458984375
1.542041015625
1.3905761718749998
1.1512939453125
0.5583251953125
0.9595458984374999
1.044140625
1.3865478515624998
1.5033691406249998
1.558154296875
1.445361328125
1.6475830078125
1.5847412109374999
1.5565429687499999
1.5573486328125
1.5573486328125
1.561376953125
1.5492919921875
1.5073974609374998
0.02578125
1.44052734375
1.751513671875
1.5331787109375
1.6403320312499998
1.9062011718749998
2.333203125
2.7642333984375
1.7297607421874999
1.4397216796874999
1.4147460937499998
1.4228027343749998
1.48564453125
1.4203857421875
1.4920898437499999
1.4864501953125
1.4703369140625
1.490478515625
1.496923828125
1.4832275390624998
1.48564453125
2.7344238281249997
2.241357421875
1.3341796874999998
1.538818359375
1.4244140625
1.1722412109375
1.00546875
0.936181640625
0.9482666015625
1.3801025390625
1.4872558593749998
1.5122314453124999
1.4228027343749998
1.590380859375
1.5758789062499998
1.5726562499999999
1.5597656249999998
1.5565429687499999
1.5484863281249999
1.5484863281249999
1.533984375
0.1119873046875
1.3639892578125
1.7394287109375
1.5114257812499998
1.5919921874999998
1.8957275390625
1.915869140625
2.989013671875
1.7611816406249998
1.4679199218749999
1.4284423828125
1.4477783203124999
1.4832275390624998
1.4550292968749998
1.4759765624999999
1.4655029296875
1.482421875
1.4864501953125
1.5001464843749999
1.477587890625
1.496923828125
2.5571777343749997
2.3211181640625
1.303564453125
1.46630859375
1.4711425781249998
1.1964111328125
1.126318359375
0.9410156249999999
0.9498779296875
1.2503906249999999
1.448583984375
1.5170654296875
1.4920898437499999
1.5243164062499999
1.5895751953125
1.5654052734375
1.561376953125
1.546875
1.5533203125
1.5533203125
1.538818359375
0.2779541015625
0.6775634765624999
1.8183837890624999
1.5218994140625
1.571044921875
1.7490966796874998
1.8361083984375
2.9906249999999996
2.0020751953125
1.5251220703125
1.4348876953124998
1.4356933593749999
1.4493896484375
1.4526123046875
1.4880615234374999
1.4880615234374999
1.482421875
1.4800048828124999
1.4928955078125
1.5009521484375
1.4791992187499998
1.4791992187499998
2.9737060546875
1.3414306640625
1.4783935546875
1.5122314453124999
1.351904296875
1.1537109374999999
0.6775634765624999
0.97646484375
1.2640869140625
1.448583984375
1.4759765624999999
