1.5122314453124999
1.5162597656249999
1.5017578125
1.49853515625
2.1221191406249997
1.4679199218749999
1.458251953125
1.529150390625
1.461474609375
1.405078125
1.2423339843749999
1.3253173828125
1.38896484375
1.4880615234374999
1.4928955078125
1.5122314453124999
1.477587890625
1.5444580078124999
1.522705078125
1.525927734375
1.5517089843749998
1.5275390624999998
1.525927734375
1.5114257812499998
1.5114257812499998
0.8741455078125
1.5589599609375
1.5960205078124998
1.4961181640624999
1.5887695312499999
1.6604736328124998
1.722509765625
1.7490966796874998
1.5194824218749998
1.5114257812499998
1.5057861328125
1.4872558593749998
1.52109375
1.4920898437499999
1.513037109375
1.490478515625
1.49853515625
1.5090087890625
1.5025634765625
1.5009521484375
1.50498046875
1.8417480468749998
1.7184814453125
1.4074951171874999
1.5251220703125
1.4791992187499998
1.384130859375
1.3365966796875
1.3664062499999998
1.345458984375
1.456640625
1.4920898437499999
1.5001464843749999
1.506591796875
1.5331787109375
1.53076171875
1.5315673828124998
1.5243164062499999
1.53720703125
1.5218994140625
1.5218994140625
1.5194824218749998
1.100537109375
1.2963134765625
1.6564453124999998
1.5009521484375
1.561376953125
1.6177734375
1.6250244140624999
1.944873046875
1.5404296874999999
1.5001464843749999
1.5001464843749999
1.4945068359375
1.506591796875
1.506591796875
1.513037109375
1.5138427734375
1.5106201171875
1.4977294921875
1.50498046875
1.5001464843749999
1.5025634765625
1.5017578125
2.05283203125
1.4042724609375
1.5025634765625
1.5186767578125
1.4510009765624998
1.3704345703124998
1.38896484375
1.3140380859374998
1.4445556640625
1.4800048828124999
1.49853515625
1.5090087890625
1.513037109375
1.5355957031249998
1.529150390625
1.5299560546875
1.5315673828124998
1.5235107421874998
1.5243164062499999
1.522705078125
1.509814453125
0.9555175781249999
1.6540283203125
1.5146484375
1.5251220703125
1.593603515625
1.61455078125
1.93359375
1.7499023437499999
1.506591796875
1.5009521484375
1.4993408203124998
1.4953124999999998
1.5090087890625
1.5073974609374998
1.5138427734375
1.5025634765625
1.490478515625
1.5001464843749999
1.5001464843749999
1.5073974609374998
1.5033691406249998
2.0415527343749997
1.4413330078125
1.482421875
1.5283447265624999
1.458251953125
1.4066894531249998
1.239111328125
1.345458984375
1.3921875
1.4888671875
1.4953124999999998
1.5057861328125
1.4896728515625
1.5476806640624998
1.5331787109375
1.52109375
1.5525146484374999
1.53076171875
1.522705078125
1.5315673828124998
1.51787109375
0.9112060546874999
1.6161621093749998
1.58232421875
1.4993408203124998
1.58232421875
1.6379150390625
1.8344970703124999
1.8199951171875
1.52109375
1.4953124999999998
1.4872558593749998
1.4953124999999998
1.522705078125
1.4928955078125
1.5162597656249999
1.4920898437499999
1.50498046875
1.5090087890625
1.5057861328125
1.4993408203124998
1.5057861328125
1.9795166015624999
1.6234130859375
1.41796875
1.53076171875
1.46953125
1.380908203125
1.405078125
1.3599609375
1.3502929687499998
1.464697265625
1.4920898437499999
1.5090087890625
1.506591796875
1.5251220703125
1.5186767578125
1.529150390625
1.53076171875
1.525927734375
1.522705078125
1.52109375
1.5186767578125
0.994189453125
1.3825195312499998
1.6532226562499999
1.4920898437499999
1.561376953125
1.6459716796875
1.635498046875
1.9666259765624998
1.5621826171875
1.5017578125
1.5033691406249998
1.506591796875
1.509814453125
1.5170654296875
1.5082031249999999
1.506591796875
1.4961181640624999
1.5057861328125
1.5073974609374998
1.5001464843749999
1.49853515625
1.5355957031249998
1.960986328125
1.4042724609375
1.5170654296875
1.5001464843749999
1.432470703125
1.3849365234375
1.3591552734374999
1.329345703125
1.4542236328125
1.490478515625
1.4993408203124998
1.5106201171875
1.5186767578125
1.53076171875
1.52109375
1.542041015625
1.525927734375
1.5218994140625
1.5235107421874998
1.5275390624999998
1.4622802734375
1.03447265625
1.6508056640625
1.50498046875
1.5355957031249998
1.59521484375
1.609716796875
1.9867675781249998
1.6886718749999998
1.5114257812499998
1.5057861328125
1.4920898437499999
1.4961181640624999
1.5122314453124999
1.5033691406249998
1.4977294921875
1.4920898437499999
1.4977294921875
1.5122314453124999
1.5138427734375
1.4993408203124998
1.5073974609374998
2.10439453125
1.4123291015625
1.4993408203124998
1.5186767578125
1.4284423828125
1.4091064453125
1.2399169921875
1.3527099609375
1.4187744140624998
1.5001464843749999
1.5025634765625
1.5122314453124999
1.4840332031249999
1.5492919921875
1.5275390624999998
1.51787109375
1.5597656249999998
1.5243164062499999
1.5275390624999998
1.5243164062499999
1.5090087890625
0.8677001953125
1.6427490234375
1.5492919921875
1.509814453125
1.59521484375
1.6201904296874998
1.8900878906249998
1.7958251953125
1.5331787109375
1.493701171875
1.493701171875
1.5001464843749999
1.52109375
1.4912841796874998
1.52109375
1.496923828125
1.4953124999999998
1.5025634765625
1.5073974609374998
1.5073974609374998
1.49853515625
2.075390625
1.55009765625
1.429248046875
1.5170654296875
1.4590576171874998
1.3857421875
1.3559326171875
1.3422363281249998
1.3664062499999998
1.4711425781249998
1.4945068359375
1.506591796875
1.4993408203124998
1.5517089843749998
1.5364013671874999
1.5412353515625
1.5404296874999999
1.51787109375
1.5235107421874998
1.5186767578125
1.5194824218749998
0.903955078125
1.4630859374999998
1.6266357421875
1.4953124999999998
1.574267578125
1.658056640625
1.6411376953124999
1.9376220703125
1.554931640625
1.506591796875
1.50498046875
1.4961181640624999
1.506591796875
1.5146484375
1.5114257812499998
1.5009521484375
1.493701171875
1.5033691406249998
1.5073974609374998
1.5057861328125
1.506591796875
1.6620849609375
1.8546386718749999
1.400244140625
1.525927734375
1.5001464843749999
1.413134765625
1.3382080078124998
1.3664062499999998
1.329345703125
1.4332763671875
1.4872558593749998
1.4953124999999998
1.5073974609374998
1.5355957031249998
1.5267333984375
1.52109375
1.5380126953125
1.5347900390625
1.5267333984375
1.52109375
1.5194824218749998
1.335791015625
1.139208984375
1.6524169921874998
1.5001464843749999
1.5484863281249999
1.6056884765625
1.6242187499999998
2.0294677734374997
1.61455078125
1.5090087890625
1.4928955078125
1.4912841796874998
1.5009521484375
1.5025634765625
1.5106201171875
1.5146484375
1.4912841796874998
1.5017578125
1.509814453125
1.49853515625
1.4993408203124998
1.49853515625
2.1140624999999997
1.4058837890625
1.5122314453124999
1.529150390625
1.4655029296875
1.397021484375
1.2221923828124999
1.368017578125
1.426025390625
1.490478515625
1.4993408203124998
1.5090087890625
1.5017578125
1.5460693359375
1.52109375
1.525927734375
1.5517089843749998
1.5218994140625
1.525927734375
1.5283447265624999
1.509814453125
0.8749511718749999
1.654833984375
1.5380126953125
1.5162597656249999
1.5799072265624998
1.6056884765625
1.909423828125
1.7821289062499999
1.5186767578125
1.5017578125
1.496923828125
1.4977294921875
1.522705078125
1.509814453125
1.5114257812499998
1.5017578125
1.490478515625
1.5082031249999999
1.5073974609374998
1.5033691406249998
1.5017578125
1.8868652343749999
1.4840332031249999
1.4550292968749998
1.5299560546875
1.4590576171874998
1.3954101562499999
1.319677734375
1.348681640625
1.3873535156249999
1.4840332031249999
1.4848388671875
1.5025634765625
1.4872558593749998
1.5323730468749999
1.52109375
1.5355957031249998
1.5275390624999998
1.5251220703125
1.529150390625
1.5251220703125
1.5218994140625
1.0675048828125
1.5525146484374999
1.6040771484374998
1.496923828125
1.574267578125
1.6612792968749999
1.6459716796875
2.0044921875
1.53720703125
1.5009521484375
1.5017578125
1.4928955078125
1.5106201171875
1.5162597656249999
1.5235107421874998
1.5090087890625
1.482421875
1.4977294921875
1.5082031249999999
1.5057861328125
1.5017578125
1.4880615234374999
1.7474853515625
1.4139404296875
1.509814453125
1.4767822265625
1.397021484375
1.3962158203125
1.3688232421875
1.3390136718749999
1.4477783203124999
1.4961181640624999
1.5122314453124999
1.5057861328125
1.5041748046874999
1.5170654296875
1.53076171875
1.533984375
1.5444580078124999
1.53076171875
1.5267333984375
1.522705078125
1.1698242187499999
1.24716796875
1.6524169921874998
1.5073974609374998
1.5509033203125
1.625830078125
1.6072998046875
2.0109375
1.5831298828125
1.5057861328125
1.5009521484375
1.4896728515625
1.5017578125
1.5202880859374999
1.5122314453124999
1.50498046875
1.4888671875
1.5001464843749999
1.5146484375
1.5138427734375
1.5186767578125
1.5017578125
2.07216796875
1.4332763671875
1.5001464843749999
1.5090087890625
1.4518066406249999
1.4147460937499998
1.2302490234374999
1.35673828125
1.3921875
1.49853515625
1.506591796875
1.506591796875
1.5057861328125
1.5404296874999999
1.51787109375
1.5243164062499999
1.5444580078124999
1.5235107421874998
1.52109375
1.5170654296875
1.5114257812499998
0.9216796875
1.6153564453125
1.513037109375
1.5138427734375
1.590380859375
1.6411376953124999
1.9489013671875
1.735400390625
1.5243164062499999
1.493701171875
1.49853515625
1.49853515625
1.5218994140625
1.506591796875
1.5057861328125
1.5041748046874999
1.4840332031249999
1.5146484375
1.5057861328125
1.5017578125
1.50498046875
2.018994140625
1.60166015625
1.474365234375
1.533984375
1.47275390625
1.4107177734374998
1.2576416015624998
1.3502929687499998
1.400244140625
1.4816162109375
1.48564453125
1.5106201171875
1.4848388671875
1.5460693359375
1.49853515625
1.533984375
1.5331787109375
1.5138427734375
1.5251220703125
1.5275390624999998
1.5235107421874998
0.9676025390624999
1.5863525390625
1.5815185546875
1.5001464843749999
1.56943359375
1.6540283203125
1.6556396484375
1.9835449218749999
1.6081054687499998
1.5001464843749999
1.4993408203124998
1.5041748046874999
1.51787109375
1.493701171875
1.5170654296875
1.5073974609374998
1.48564453125
1.49853515625
1.5025634765625
1.5017578125
1.50498046875
1.5565429687499999
1.6564453124999998
1.4091064453125
1.5154541015624998
1.4751708984374998
1.3849365234375
1.377685546875
1.329345703125
1.3575439453125
1.46953125
1.4961181640624999
1.5025634765625
1.5057861328125
1.5170654296875
1.533984375
1.5267333984375
1.5315673828124998
1.5436523437499998
1.53076171875
1.5251220703125
1.5194824218749998
1.41796875
1.364794921875
1.6435546875
1.4953124999999998
1.5565429687499999
1.6443603515624998
1.606494140625
2.0488037109375
1.5396240234374998
1.5114257812499998
1.4961181640624999
1.4953124999999998
1.5025634765625
1.513037109375
1.5082031249999999
1.5082031249999999
1.5001464843749999
1.5041748046874999
1.5009521484375
1.5017578125
1.5009521484375
1.5106201171875
1.996435546875
1.41796875
1.5073974609374998
1.5090087890625
1.442138671875
1.4147460937499998
1.26005859375
1.3446533203125
1.4187744140624998
1.4953124999999998
1.5001464843749999
1.5090087890625
1.49853515625
1.5275390624999998
1.5202880859374999
1.5283447265624999
1.538818359375
1.525927734375
1.5243164062499999
1.5275390624999998
1.477587890625
0.9982177734375
1.6322753906249998
1.5533203125
1.5331787109375
1.5919921874999998
1.635498046875
2.00771484375
1.65966796875
1.5194824218749998
1.4993408203124998
1.4993408203124998
1.50498046875
1.5202880859374999
1.5001464843749999
1.509814453125
1.5009521484375
1.4888671875
1.5033691406249998
1.5017578125
1.49853515625
1.5082031249999999
2.0955322265625
1.5267333984375
1.5009521484375
1.53076171875
1.4638916015624999
1.416357421875
1.2785888671874999
1.3253173828125
1.3744628906249998
1.4864501953125
1.4888671875
1.5122314453124999
1.4888671875
1.5509033203125
1.5251220703125
1.542041015625
1.5243164062499999
1.529150390625
1.52109375
1.525927734375
1.5251220703125
0.8709228515624999
1.50498046875
1.5597656249999998
1.5114257812499998
1.561376953125
1.66611328125
1.9537353515625
1.780517578125
1.5251220703125
1.50498046875
1.5033691406249998
1.5001464843749999
1.513037109375
1.4888671875
1.5057861328125
1.5082031249999999
1.4783935546875
1.5025634765625
1.4977294921875
1.5114257812499998
1.5090087890625
1.6967285156249998
1.8280517578125
1.4284423828125
1.5194824218749998
1.493701171875
1.3768798828125
1.2656982421874998
1.37607421875
1.353515625
1.46953125
1.4872558593749998
1.5025634765625
1.493701171875
1.5202880859374999
1.546875
1.5170654296875
1.5404296874999999
1.5380126953125
1.5251220703125
1.5235107421874998
1.5251220703125
1.2568359375
1.18271484375
1.6298583984375
1.5009521484375
1.5315673828124998
1.65966796875
1.8465820312499999
1.87236328125
1.5122314453124999
1.5017578125
1.5001464843749999
1.4945068359375
1.5017578125
1.51787109375
1.5122314453124999
1.4993408203124998
1.4945068359375
1.49853515625
1.506591796875
1.506591796875
1.506591796875
1.5073974609374998
1.893310546875
1.40830078125
1.513037109375
1.4977294921875
1.4308593749999998
1.41796875
1.348681640625
1.303564453125
1.43408203125
1.4953124999999998
1.506591796875
1.5146484375
1.509814453125
1.5396240234374998
1.5194824218749998
1.5267333984375
1.533984375
1.529150390625
1.5283447265624999
1.5251220703125
1.5154541015624998
1.1287353515625
1.6588623046875
1.5299560546875
1.5283447265624999
1.606494140625
1.6153564453125
1.9617919921875
1.5911865234375
1.5057861328125
1.5033691406249998
1.5001464843749999
1.5009521484375
1.52109375
1.5082031249999999
1.506591796875
1.496923828125
1.4687255859375
1.5114257812499998
1.5090087890625
1.5082031249999999
1.493701171875
2.1148681640625
1.4711425781249998
1.4655029296875
1.5355957031249998
1.4679199218749999
1.3994384765624999
1.3631835937499999
1.3043701171875
1.3905761718749998
1.48564453125
1.4928955078125
1.513037109375
1.490478515625
1.53720703125
1.522705078125
1.529150390625
1.5355957031249998
1.529150390625
1.525927734375
1.529150390625
1.5186767578125
0.8741455078125
1.5565429687499999
1.5766845703124999
1.5138427734375
1.5807128906249999
1.6653076171874999
1.8618896484374998
1.812744140625
1.5283447265624999
1.5057861328125
1.49853515625
1.5017578125
1.5154541015624998
1.506591796875
1.5154541015624998
1.5057861328125
1.4864501953125
1.5041748046874999
1.5017578125
1.509814453125
1.5090087890625
1.8425537109374999
1.7257324218749999
1.4469726562499998
1.52109375
1.477587890625
1.3857421875
1.35673828125
1.3414306640625
1.34384765625
1.4840332031249999
1.4880615234374999
1.5122314453124999
1.4896728515625
1.5364013671874999
1.5251220703125
1.5154541015624998
1.545263671875
1.5315673828124998
1.5283447265624999
1.522705078125
1.52109375
1.1335693359374999
1.276171875
1.6081054687499998
1.4993408203124998
1.5380126953125
1.6201904296874998
1.6395263671875
1.993212890625
1.56943359375
1.5017578125
1.5041748046874999
1.493701171875
1.509814453125
1.506591796875
1.509814453125
1.5041748046874999
1.4759765624999999
1.490478515625
1.5017578125
1.4961181640624999
1.5025634765625
1.5057861328125
1.786962890625
1.4123291015625
1.5122314453124999
1.51787109375
1.3946044921874998
1.4034667968749999
1.268115234375
1.3494873046875
1.4550292968749998
1.5009521484375
1.5106201171875
1.5146484375
1.5267333984375
1.5412353515625
1.5275390624999998
1.5323730468749999
1.5235107421874998
1.5267333984375
1.5299560546875
1.5146484375
1.5114257812499998
1.203662109375
1.6443603515624998
1.5146484375
1.533984375
1.6129394531249999
1.6121337890624998
1.848193359375
1.6435546875
1.4993408203124998
1.5017578125
1.4953124999999998
1.4993408203124998
1.5138427734375
1.5041748046874999
1.5122314453124999
1.509814453125
1.490478515625
1.5162597656249999
1.5017578125
1.5114257812499998
1.50498046875
2.07216796875
1.4348876953124998
1.4816162109375
1.5154541015624998
1.4477783203124999
1.4155517578124999
1.2769775390625
1.3317626953125
1.409912109375
1.4888671875
1.4993408203124998
1.5218994140625
1.4961181640624999
1.5428466796875
1.5170654296875
1.5106201171875
1.5436523437499998
1.5122314453124999
1.5267333984375
1.5275390624999998
1.5186767578125
0.8983154296875
1.6000488281249998
1.5645996093749999
1.50498046875
1.577490234375
1.6620849609375
1.7047851562499998
1.7587646484375
1.525927734375
1.506591796875
1.4912841796874998
1.4848388671875
1.509814453125
1.48564453125
1.5114257812499998
1.4920898437499999
1.4928955078125
1.5025634765625
1.4977294921875
1.4888671875
1.509814453125
1.9948242187499998
1.6645019531249998
1.4912841796874998
1.5347900390625
1.4711425781249998
1.3825195312499998
1.335791015625
1.3301513671874998
1.3551269531249999
1.4953124999999998
1.5033691406249998
1.5194824218749998
1.496923828125
1.5460693359375
1.5186767578125
1.5090087890625
1.5476806640624998
1.5194824218749998
1.522705078125
1.4501953125
1.5186767578125
1.0030517578125
1.3510986328124999
1.5726562499999999
1.506591796875
1.5645996093749999
1.6508056640625
1.6645019531249998
1.9916015624999999
1.587158203125
1.5057861328125
1.5138427734375
1.5122314453124999
1.5162597656249999
1.5001464843749999
1.5154541015624998
1.5146484375
1.482421875
1.5073974609374998
1.5073974609374998
1.4953124999999998
1.5041748046874999
1.5404296874999999
1.9859619140625
1.4042724609375
1.5146484375
1.5041748046874999
1.3849365234375
1.3849365234375
1.2745605468749999
1.3470703124999999
1.456640625
1.4928955078125
1.4961181640624999
1.4872558593749998
1.5251220703125
1.546875
1.5347900390625
1.53076171875
1.51787109375
1.5194824218749998
1.5090087890625
1.506591796875
1.4872558593749998
1.2906738281249999
1.6612792968749999
1.5106201171875
1.542041015625
1.6588623046875
1.6483886718749998
1.931982421875
1.6403320312499998
1.5170654296875
1.5073974609374998
1.4880615234374999
1.4880615234374999
1.5073974609374998
1.4993408203124998
1.49853515625
1.5009521484375
1.482421875
1.5082031249999999
1.4920898437499999
1.496923828125
1.4993408203124998
2.022216796875
1.40185546875
1.480810546875
1.5017578125
1.4316650390624999
1.4058837890625
1.24072265625
1.3333740234375
1.4042724609375
1.5057861328125
1.5090087890625
1.5202880859374999
1.4920898437499999
1.5428466796875
1.5275390624999998
1.5509033203125
1.574267578125
1.53720703125
1.538818359375
1.5315673828124998
1.5146484375
0.9482666015625
1.6282470703124998
1.55009765625
1.5364013671874999
1.5919921874999998
1.6242187499999998
2.01416015625
1.699951171875
1.5243164062499999
1.5041748046874999
1.4912841796874998
1.496923828125
1.5218994140625
1.5082031249999999
1.5154541015624998
1.5017578125
1.5025634765625
1.5073974609374998
1.5138427734375
1.5114257812499998
1.5154541015624998
2.1197021484375
1.5637939453124998
1.4767822265625
1.5138427734375
1.4461669921875
1.3672119140624999
1.271337890625
1.340625
1.3631835937499999
1.4888671875
1.480810546875
1.482421875
1.4598632812499999
1.55009765625
1.5146484375
1.5186767578125
1.5718505859374998
1.5460693359375
1.5404296874999999
1.542041015625
1.5251220703125
0.8701171875
1.4751708984374998
1.593603515625
1.5235107421874998
1.56943359375
1.64677734375
1.7080078125
1.9505126953124998
1.5718505859374998
1.5170654296875
1.506591796875
1.4864501953125
1.4888671875
1.4872558593749998
1.5073974609374998
1.4977294921875
1.4816162109375
1.5170654296875
1.5009521484375
1.4961181640624999
1.50498046875
1.6427490234375
1.590380859375
1.4147460937499998
1.542041015625
1.51787109375
1.3857421875
1.3446533203125
1.3100097656249998
1.34384765625
1.4655029296875
1.480810546875
1.490478515625
1.4735595703125
1.5194824218749998
1.529150390625
1.5460693359375
1.55009765625
1.5380126953125
1.5275390624999998
1.5186767578125
1.4872558593749998
1.3510986328124999
1.33740234375
1.6089111328124999
1.4526123046875
1.525927734375
1.6935058593749999
1.6653076171874999
2.047998046875
1.622607421875
1.522705078125
1.5057861328125
1.490478515625
1.4977294921875
1.5202880859374999
1.5436523437499998
1.5734619140625
1.5702392578125
1.554931640625
1.538818359375
1.5090087890625
1.4800048828124999
1.4671142578124998
1.9585693359374998
1.35673828125
1.482421875
1.5073974609374998
1.4236083984374999
1.3792968749999999
1.2503906249999999
1.3011474609375
1.4147460937499998
1.4816162109375
1.4800048828124999
1.4928955078125
1.477587890625
1.5380126953125
1.5162597656249999
1.522705078125
1.5621826171875
1.5146484375
1.5218994140625
1.53076171875
1.5154541015624998
0.9732421874999999
1.6653076171874999
1.542041015625
1.538818359375
1.6089111328124999
1.625830078125
2.0230224609375
1.6185791015625
1.5017578125
1.4840332031249999
1.482421875
1.4800048828124999
1.5082031249999999
1.4864501953125
1.5033691406249998
1.4840332031249999
1.50498046875
1.513037109375
1.5122314453124999
1.5009521484375
1.5082031249999999
2.244580078125
1.493701171875
1.4252197265625
1.529150390625
1.4638916015624999
1.364794921875
1.1738525390624999
1.3140380859374998
1.3317626953125
1.4912841796874998
1.4759765624999999
1.4920898437499999
1.4703369140625
1.5355957031249998
1.5025634765625
1.4840332031249999
1.4542236328125
1.5243164062499999
1.53076171875
1.546875
1.5525146484374999
0.7669921875
1.558154296875
1.6483886718749998
1.5235107421874998
1.6153564453125
1.7217041015624999
1.7740722656249999
2.0197998046875
1.5565429687499999
1.48564453125
1.5073974609374998
1.5090087890625
1.4767822265625
1.4187744140624998
1.464697265625
1.4719482421874999
1.4558349609374999
1.4920898437499999
1.509814453125
1.5122314453124999
1.5138427734375
1.8336914062499998
1.8578613281249998
1.4316650390624999
1.5283447265624999
1.49853515625
1.3801025390625
1.3148437499999999
1.3269287109374999
1.3446533203125
1.4638916015624999
1.4397216796874999
1.4735595703125
1.4687255859375
1.53076171875
1.53720703125
1.529150390625
1.5267333984375
1.5218994140625
1.5323730468749999
1.5404296874999999
1.525927734375
1.1641845703125
1.100537109375
1.619384765625
1.4864501953125
1.5404296874999999
1.6910888671875
1.6564453124999998
2.151123046875
1.6822265625
1.5122314453124999
1.482421875
1.4800048828124999
1.5082031249999999
1.5073974609374998
1.5331787109375
1.5267333984375
1.46630859375
1.5073974609374998
1.490478515625
1.48564453125
1.4920898437499999
1.4928955078125
1.9352050781249999
1.351904296875
1.4912841796874998
1.4912841796874998
1.3929931640625
1.3881591796875
1.15048828125
1.3059814453124998
1.4429443359374998
1.5355957031249998
1.5323730468749999
1.53720703125
1.5009521484375
1.5267333984375
1.5146484375
1.5355957031249998
1.5517089843749998
1.525927734375
1.5170654296875
1.4880615234374999
1.474365234375
0.9877441406249999
1.6306640625
1.5186767578125
1.5396240234374998
1.65
1.6411376953124999
2.0625
1.6540283203125
1.53076171875
1.5218994140625
1.5090087890625
1.5186767578125
1.5533203125
1.5404296874999999
1.5243164062499999
1.4872558593749998
1.5146484375
1.5235107421874998
1.4550292968749998
1.4381103515625
1.4655029296875
2.2711669921874997
1.4284423828125
1.4356933593749999
1.5114257812499998
1.4356933593749999
1.3704345703124998
1.2262207031249999
1.2987304687499999
1.364794921875
1.490478515625
1.50498046875
1.5194824218749998
1.4912841796874998
1.5597656249999998
1.5114257812499998
1.5275390624999998
1.546875
1.5186767578125
1.525927734375
1.5267333984375
1.5202880859374999
0.704150390625
1.58232421875
1.6153564453125
1.522705078125
1.622607421875
1.7345947265625
1.72734375
1.972265625
1.5315673828124998
1.4872558593749998
1.4880615234374999
1.4840332031249999
1.49853515625
1.49853515625
1.5170654296875
1.4953124999999998
1.4606689453125
1.493701171875
1.5025634765625
1.5009521484375
1.496923828125
2.01416015625
1.7168701171874998
1.380908203125
1.5315673828124998
1.456640625
1.340625
1.22138671875
1.3075927734375
1.3204833984375
1.4501953125
1.4961181640624999
1.51787109375
1.5154541015624998
1.55009765625
1.5235107421874998
1.5267333984375
1.5557373046874998
1.5122314453124999
1.5283447265624999
1.52109375
1.5122314453124999
0.961962890625
1.2705322265624999
1.7007568359374998
1.5154541015624998
1.5887695312499999
1.6830322265625
1.6508056640625
2.151123046875
1.5960205078124998
1.4679199218749999
1.4389160156249998
1.45341796875
1.4671142578124998
1.4977294921875
1.5436523437499998
1.5323730468749999
1.5082031249999999
1.5235107421874998
1.5218994140625
1.52109375
1.5251220703125
1.5154541015624998
2.164013671875
1.40185546875
1.529150390625
1.5017578125
1.3664062499999998
1.3188720703124999
1.132763671875
1.3108154296874999
1.4381103515625
1.5122314453124999
1.5202880859374999
1.5283447265624999
1.5533203125
1.5686279296874999
1.5275390624999998
1.5235107421874998
1.545263671875
1.5315673828124998
1.5323730468749999
1.5106201171875
1.4800048828124999
0.7742431640624999
1.6806152343749998
1.5170654296875
1.53076171875
1.6105224609375
1.6290527343749999
2.09150390625
1.76279296875
1.5017578125
1.4864501953125
1.4791992187499998
1.4816162109375
1.4993408203124998
1.4800048828124999
1.5057861328125
1.4816162109375
1.4848388671875
1.496923828125
1.4791992187499998
1.4961181640624999
1.4928955078125
2.23974609375
1.4252197265625
1.522705078125
1.546875
1.4115234374999999
1.3728515625
1.1657958984374999
1.3269287109374999
1.4123291015625
1.4945068359375
1.493701171875
1.522705078125
1.506591796875
1.5702392578125
1.5090087890625
1.5057861328125
1.5106201171875
1.53720703125
1.5484863281249999
1.5202880859374999
1.49853515625
0.7307373046875
1.6427490234375
1.59521484375
1.5186767578125
1.5355957031249998
1.6975341796874999
1.7442626953125
2.1060058593749997
1.55009765625
1.5202880859374999
1.5114257812499998
1.482421875
1.4880615234374999
1.4687255859375
1.4993408203124998
1.4759765624999999
1.44052734375
1.4791992187499998
1.48564453125
1.4888671875
1.4816162109375
2.1535400390625
1.5911865234375
1.3833251953124999
1.513037109375
1.464697265625
1.35673828125
1.3543212890624998
1.327734375
1.3212890625
1.46630859375
1.51787109375
1.5686279296874999
1.554931640625
1.5492919921875
1.5202880859374999
1.5347900390625
1.56943359375
1.5364013671874999
1.5017578125
1.5009521484375
1.5162597656249999
0.8000244140624999
1.4026611328124998
1.6773925781249999
1.4864501953125
1.5718505859374998
1.690283203125
1.6483886718749998
2.1422607421874997
1.561376953125
1.48564453125
1.4928955078125
1.5025634765625
1.4928955078125
1.4945068359375
1.5017578125
1.4928955078125
1.490478515625
1.4977294921875
1.4920898437499999
1.493701171875
1.4791992187499998
1.5428466796875
2.0407470703125
1.3905761718749998
1.5404296874999999
1.5170654296875
1.4244140625
1.4123291015625
1.19560546875
1.3261230468749998
1.4300537109375
1.5154541015624998
1.5162597656249999
1.5218994140625
1.506591796875
1.5194824218749998
1.506591796875
1.5033691406249998
1.5251220703125
1.5170654296875
1.51787109375
1.5122314453124999
1.442138671875
0.9152343749999999
1.6935058593749999
1.509814453125
1.5404296874999999
1.625830078125
1.6475830078125
2.131787109375
1.7152587890625
1.5186767578125
1.4848388671875
1.4872558593749998
1.4872558593749998
1.5057861328125
1.4961181640624999
1.506591796875
1.496923828125
1.4759765624999999
1.4993408203124998
1.4912841796874998
1.4872558593749998
1.4977294921875
2.3154785156249997
1.4816162109375
1.506591796875
1.5517089843749998
1.45341796875
1.3994384765624999
1.152099609375
1.313232421875
1.34384765625
1.480810546875
1.4896728515625
1.5082031249999999
1.4840332031249999
1.5460693359375
1.52109375
1.53720703125
1.5082031249999999
1.5041748046874999
1.5275390624999998
1.5283447265624999
1.53720703125
0.6856201171874999
1.545263671875
1.5726562499999999
1.5170654296875
1.6072998046875
1.7418457031249999
1.7595703125
2.051220703125
1.5847412109374999
1.5114257812499998
1.4977294921875
1.4574462890625
1.480810546875
1.4791992187499998
1.506591796875
1.4993408203124998
1.4493896484375
1.4961181640624999
1.5122314453124999
1.5122314453124999
1.4759765624999999
1.848193359375
1.5017578125
1.3825195312499998
1.5267333984375
1.5154541015624998
1.3801025390625
1.3229003906249999
1.2753662109375
1.3341796874999998
1.4671142578124998
1.4880615234374999
1.5251220703125
1.5267333984375
1.5863525390625
1.5645996093749999
1.52109375
1.5315673828124998
1.4928955078125
1.493701171875
1.5057861328125
1.5146484375
1.0836181640625
1.4880615234374999
1.6346923828125
1.477587890625
1.5194824218749998
1.6717529296875
1.611328125
2.1358154296875
1.5645996093749999
1.5444580078124999
1.542041015625
1.5283447265624999
1.5412353515625
1.5299560546875
1.5460693359375
1.5243164062499999
1.542041015625
1.542041015625
1.53720703125
1.4993408203124998
1.4791992187499998
1.4928955078125
1.92392578125
1.335791015625
1.4445556640625
1.4542236328125
1.36962890625
1.3817138671875
1.0973144531249999
1.281005859375
1.3913818359374999
1.4880615234374999
1.5009521484375
1.5114257812499998
1.5267333984375
1.5621826171875
1.5428466796875
1.542041015625
1.5589599609375
1.533984375
1.5202880859374999
1.5170654296875
1.4961181640624999
1.074755859375
1.7136474609374999
1.55009765625
1.5355957031249998
1.619384765625
1.6322753906249998
1.9585693359374998
1.6781982421875
1.5009521484375
1.4800048828124999
1.4872558593749998
1.5235107421874998
1.5605712890624999
1.506591796875
1.4993408203124998
1.48564453125
1.4477783203124999
1.4888671875
1.4920898437499999
1.4961181640624999
1.4816162109375
2.281640625
1.4091064453125
1.448583984375
1.522705078125
1.46630859375
1.4042724609375
1.1738525390624999
1.3043701171875
1.3768798828125
1.5009521484375
1.5170654296875
1.5202880859374999
1.4864501953125
1.55009765625
1.5315673828124998
1.5517089843749998
1.5154541015624998
1.5106201171875
1.522705078125
1.5283447265624999
1.5186767578125
0.6840087890625
1.6153564453125
1.6024658203125
1.5186767578125
1.5992431640625
1.687060546875
1.6693359374999999
1.93681640625
1.5251220703125
1.46630859375
1.4864501953125
1.4880615234374999
1.5186767578125
1.4840332031249999
1.5170654296875
1.509814453125
1.4751708984374998
1.5122314453124999
1.5082031249999999
1.506591796875
1.5138427734375
2.101171875
1.6886718749999998
1.3744628906249998
1.52109375
1.4413330078125
1.3253173828125
1.2544189453124999
1.3172607421875
1.3156494140625
1.4461669921875
1.4590576171874998
1.5033691406249998
1.5428466796875
1.5992431640625
1.561376953125
1.5565429687499999
1.5565429687499999
1.542041015625
1.5484863281249999
1.538818359375
1.4880615234374999
0.8499755859375
1.3019531249999998
1.6806152343749998
1.4840332031249999
1.5428466796875
1.6749755859375
1.6991455078125
2.0955322265625
1.5589599609375
1.4735595703125
1.4872558593749998
1.506591796875
1.4993408203124998
1.49853515625
1.5194824218749998
1.493701171875
1.4840332031249999
1.5001464843749999
1.5057861328125
1.5025634765625
1.4993408203124998
1.49853515625
2.151123046875
1.3986328124999998
1.513037109375
1.496923828125
1.4026611328124998
1.3849365234375
1.190771484375
1.3229003906249999
1.464697265625
1.5170654296875
1.5033691406249998
1.4703369140625
1.5525146484374999
1.56298828125
1.525927734375
1.513037109375
1.5186767578125
1.513037109375
1.5186767578125
1.5243164062499999
1.4840332031249999
0.8419189453125
1.7039794921875
1.5541259765625
1.6024658203125
1.662890625
1.635498046875
2.0568603515625
1.7120361328125
1.47275390625
1.4912841796874998
1.482421875
1.4687255859375
1.490478515625
1.458251953125
1.5001464843749999
1.4993408203124998
1.461474609375
1.4791992187499998
1.5122314453124999
1.5235107421874998
1.51787109375
2.34287109375
1.393798828125
1.4872558593749998
1.5267333984375
1.4389160156249998
1.4348876953124998
1.1802978515625
1.284228515625
1.3664062499999998
1.4912841796874998
1.52109375
1.5517089843749998
1.4848388671875
1.538818359375
1.4993408203124998
1.533984375
1.52109375
1.5194824218749998
1.525927734375
1.5347900390625
1.5267333984375
0.6630615234374999
1.6556396484375
1.5791015625
1.5186767578125
1.6161621093749998
1.7128417968749998
1.7668212890625
2.051220703125
1.4872558593749998
1.4590576171874998
1.4542236328125
1.4711425781249998
1.5082031249999999
1.48564453125
1.529150390625
1.4928955078125
1.4719482421874999
1.4872558593749998
1.5041748046874999
1.509814453125
1.5114257812499998
2.2614990234375
1.6048828124999999
1.4413330078125
1.5517089843749998
1.445361328125
1.3019531249999998
1.3043701171875
1.3261230468749998
1.3188720703124999
1.4590576171874998
1.4638916015624999
1.5009521484375
1.4896728515625
1.5202880859374999
1.5235107421874998
1.5283447265624999
1.55009765625
1.5509033203125
1.545263671875
1.5460693359375
1.538818359375
0.7387939453125
1.429248046875
1.6645019531249998
1.5251220703125
1.5968261718749999
1.7047851562499998
1.6669189453125
2.0375244140624997
1.5484863281249999
1.46953125
1.461474609375
1.4783935546875
1.5122314453124999
1.496923828125
1.5114257812499998
1.4791992187499998
1.464697265625
1.4888671875
1.4953124999999998
1.4945068359375
1.496923828125
1.6572509765624999
1.9924072265625
1.3744628906249998
1.5122314453124999
1.5001464843749999
1.3688232421875
1.3865478515624998
1.2455566406249998
1.30517578125
1.4203857421875
1.4735595703125
1.5001464843749999
1.5001464843749999
1.506591796875
1.5436523437499998
1.5355957031249998
1.5605712890624999
1.5331787109375
1.5299560546875
1.5235107421874998
1.506591796875
1.364794921875
0.9692138671874999
1.7120361328125
1.5090087890625
1.56298828125
1.6290527343749999
1.6201904296874998
2.0560546875
1.767626953125
1.5114257812499998
1.490478515625
1.4864501953125
1.482421875
1.4977294921875
1.5033691406249998
1.5146484375
1.5057861328125
1.496923828125
1.5235107421874998
1.5114257812499998
1.50498046875
1.482421875
2.3033935546874997
1.4373046875
1.5009521484375
1.5541259765625
1.4671142578124998
1.3712402343749999
1.1255126953124999
1.3092041015625
1.3599609375
1.4961181640624999
1.4896728515625
1.5218994140625
1.5170654296875
1.554931640625
1.5194824218749998
1.4501953125
1.5299560546875
1.5202880859374999
1.5283447265624999
1.5396240234374998
1.5090087890625
0.6469482421874999
1.5791015625
1.554931640625
1.51787109375
1.60166015625
1.6403320312499998
1.9271484374999999
1.9247314453125
1.533984375
1.4711425781249998
1.41796875
1.397021484375
1.4880615234374999
1.5017578125
1.5565429687499999
1.5525146484374999
1.52109375
1.5355957031249998
1.5106201171875
1.5114257812499998
1.522705078125
2.0117431640625
1.5517089843749998
1.5154541015624998
1.6201904296874998
1.4767822265625
1.2640869140625
1.2479736328125
1.2076904296875
1.3108154296874999
1.4542236328125
1.490478515625
1.5218994140625
1.5082031249999999
1.5323730468749999
1.5122314453124999
1.5251220703125
1.5565429687499999
1.5331787109375
1.53076171875
1.5235107421874998
1.490478515625
0.942626953125
1.5243164062499999
1.6242187499999998
1.5082031249999999
1.5799072265624998
1.7362060546875
1.7088134765624998
2.1583740234374997
1.561376953125
1.5025634765625
1.49853515625
1.4977294921875
1.5267333984375
1.5404296874999999
1.5355957031249998
1.4791992187499998
1.4429443359374998
1.47275390625
1.4832275390624998
1.48564453125
1.490478515625
1.4912841796874998
1.8441650390625
1.3623779296874998
1.4864501953125
1.4638916015624999
1.3478759765625
1.3833251953124999
1.2995361328125
1.3075927734375
1.4526123046875
1.5009521484375
1.5025634765625
1.496923828125
1.5057861328125
1.5323730468749999
1.5444580078124999
1.561376953125
1.546875
1.5460693359375
1.522705078125
1.5162597656249999
1.4550292968749998
1.1303466796875
1.73056640625
1.5565429687499999
1.5766845703124999
1.67900390625
1.64677734375
1.915869140625
1.67578125
1.482421875
1.47275390625
1.474365234375
1.4912841796874998
1.5138427734375
1.4953124999999998
1.506591796875
1.5025634765625
1.4719482421874999
1.4832275390624998
1.4493896484375
1.4735595703125
1.5041748046874999
2.2808349609375
1.416357421875
1.482421875
1.5106201171875
1.4252197265625
1.3817138671875
1.158544921875
1.3027587890624999
1.3962158203125
1.5041748046874999
1.5202880859374999
1.5428466796875
1.529150390625
1.5662109375
1.509814453125
1.5082031249999999
1.5404296874999999
1.5347900390625
1.554931640625
1.5565429687499999
1.5323730468749999
0.704150390625
1.6242187499999998
1.574267578125
1.5106201171875
1.6185791015625
1.716064453125
2.0955322265625
1.7499023437499999
1.4574462890625
1.4308593749999998
1.4679199218749999
1.4791992187499998
1.5251220703125
1.5090087890625
1.533984375
1.5001464843749999
1.5057861328125
1.5122314453124999
1.52109375
1.52109375
1.5090087890625
2.1503173828124997
1.6725585937499998
1.4800048828124999
1.5323730468749999
1.43408203125
1.351904296875
1.248779296875
1.2826171874999999
1.2947021484374999
1.4888671875
1.4888671875
1.5146484375
1.4598632812499999
1.5090087890625
1.5106201171875
1.5364013671874999
1.5637939453124998
1.5396240234374998
1.5364013671874999
1.5380126953125
1.5364013671874999
0.82177734375
1.3857421875
1.6451660156249999
1.542041015625
1.622607421875
1.722509765625
1.740234375
2.0415527343749997
1.5122314453124999
1.47275390625
1.4912841796874998
1.46630859375
1.493701171875
1.4848388671875
1.5122314453124999
1.5017578125
1.4759765624999999
1.5082031249999999
1.5138427734375
1.5041748046874999
1.4993408203124998
1.5275390624999998
1.7104248046875
1.34384765625
1.477587890625
1.493701171875
1.3253173828125
1.3607666015625
1.2721435546875
1.303564453125
1.456640625
1.506591796875
1.6105224609375
1.5082031249999999
1.5476806640624998
1.5758789062499998
1.56298828125
1.5476806640624998
1.5235107421874998
1.5106201171875
1.5162597656249999
1.5243164062499999
1.4719482421874999
1.2544189453124999
1.6975341796874999
1.5114257812499998
1.5404296874999999
1.667724609375
1.6201904296874998
2.0431640625
1.6290527343749999
1.4896728515625
1.4832275390624998
1.4888671875
1.4928955078125
1.5218994140625
1.5202880859374999
1.5106201171875
1.5057861328125
1.4840332031249999
1.5202880859374999
1.5186767578125
1.496923828125
1.496923828125
2.1841552734375
1.3607666015625
1.480810546875
1.5001464843749999
1.4026611328124998
1.36962890625
1.1835205078125
1.3067871093749999
1.3946044921874998
1.4759765624999999
1.4961181640624999
1.48564453125
1.4655029296875
1.55009765625
1.53720703125
1.5218994140625
1.5251220703125
1.5146484375
1.5186767578125
1.509814453125
1.5218994140625
0.7879394531249999
1.7104248046875
1.6403320312499998
1.5541259765625
1.6266357421875
1.6693359374999999
1.9408447265625
1.7660156249999999
1.5645996093749999
1.5025634765625
1.4501953125
1.448583984375
1.5082031249999999
1.4461669921875
1.4759765624999999
1.4638916015624999
1.4864501953125
1.49853515625
1.4977294921875
1.5025634765625
1.496923828125
2.286474609375
1.554931640625
1.4026611328124998
1.533984375
1.4389160156249998
1.3309570312499999
1.1947998046875
1.316455078125
1.313232421875
1.490478515625
1.4993408203124998
1.5146484375
1.493701171875
1.5637939453124998
1.5202880859374999
1.5299560546875
1.5621826171875
1.5299560546875
1.5323730468749999
1.5323730468749999
1.52109375
0.6759521484375
1.4445556640625
1.6636962890625
1.5082031249999999
1.5911865234375
1.7120361328125
1.73056640625
2.086669921875
1.5831298828125
1.4896728515625
1.4945068359375
1.4791992187499998
1.5025634765625
1.48564453125
1.5331787109375
1.4993408203124998
1.4638916015624999
1.5090087890625
1.5090087890625
1.4953124999999998
1.493701171875
1.69189453125
1.980322265625
1.393798828125
1.5106201171875
1.480810546875
1.303564453125
1.3156494140625
1.2737548828124998
1.2995361328125
1.4574462890625
1.48564453125
1.513037109375
1.5017578125
1.5444580078124999
1.5541259765625
1.5380126953125
1.5509033203125
1.5283447265624999
1.5243164062499999
1.53076171875
1.5170654296875
1.3212890625
0.9772705078124999
1.6862548828125
1.5017578125
1.5404296874999999
1.716064453125
1.6572509765624999
2.1454833984375
1.73056640625
1.4767822265625
1.4872558593749998
1.4880615234374999
1.509814453125
1.5009521484375
1.5122314453124999
1.5017578125
1.4751708984374998
1.4840332031249999
1.5082031249999999
1.4912841796874998
1.4872558593749998
1.493701171875
2.338037109375
1.3704345703124998
1.4961181640624999
1.5194824218749998
1.3954101562499999
1.3688232421875
1.123095703125
1.297119140625
1.40830078125
1.4920898437499999
1.5162597656249999
1.52109375
1.5009521484375
1.5541259765625
1.5146484375
1.51787109375
1.5654052734375
1.529150390625
1.5267333984375
1.53076171875
1.52109375
0.6356689453125
1.7007568359374998
1.558154296875
1.5218994140625
1.6290527343749999
1.6403320312499998
2.0423583984375
1.8780029296874998
1.5073974609374998
1.4840332031249999
1.4816162109375
1.4912841796874998
1.5154541015624998
1.4920898437499999
1.506591796875
1.4719482421874999
1.4888671875
1.4961181640624999
1.4953124999999998
1.5033691406249998
1.49853515625
2.360595703125
1.4800048828124999
1.4316650390624999
1.5404296874999999
1.4437499999999999
1.3478759765625
1.2528076171875
1.2882568359375
1.3470703124999999
1.4687255859375
1.4840332031249999
1.5186767578125
1.4961181640624999
1.558154296875
1.5243164062499999
1.5323730468749999
1.5509033203125
1.5299560546875
1.5283447265624999
1.5275390624999998
1.5138427734375
0.6340576171875
1.5380126953125
1.62744140625
1.5170654296875
1.603271484375
1.719287109375
1.7047851562499998
2.04638671875
1.56943359375
1.4880615234374999
1.4896728515625
1.4783935546875
1.5041748046874999
1.5090087890625
1.513037109375
1.493701171875
1.480810546875
1.5082031249999999
1.5082031249999999
1.5025634765625
1.4953124999999998
1.9166748046875
1.8296630859374998
1.3599609375
1.5347900390625
1.4848388671875
1.3462646484374998
1.361572265625
1.2979248046874998
1.2930908203125
1.4268310546874998
1.5033691406249998
1.5243164062499999
1.506591796875
1.4638916015624999
1.5186767578125
1.522705078125
1.561376953125
1.509814453125
1.4888671875
1.5073974609374998
1.5283447265624999
1.0973144531249999
1.1657958984374999
1.7297607421874999
1.5009521484375
1.5702392578125
1.66611328125
1.641943359375
2.1889892578125
1.6363037109374998
1.4920898437499999
1.4888671875
1.4896728515625
1.4880615234374999
1.5073974609374998
1.5041748046874999
1.5017578125
1.4800048828124999
1.5025634765625
1.5073974609374998
1.5041748046874999
1.4920898437499999
1.4920898437499999
2.27841796875
1.3986328124999998
1.5001464843749999
1.513037109375
1.4276367187499999
1.351904296875
1.103759765625
1.3124267578125
1.4316650390624999
1.496923828125
1.506591796875
1.5146484375
1.5082031249999999
1.5436523437499998
1.522705078125
1.5275390624999998
1.56943359375
1.5323730468749999
1.538818359375
1.52109375
1.5106201171875
0.6993164062499999
1.6427490234375
1.5243164062499999
1.5267333984375
1.6081054687499998
1.625830078125
2.0906982421875
1.8095214843749998
1.5194824218749998
1.4864501953125
1.4888671875
1.4977294921875
1.5235107421874998
1.5017578125
1.5154541015624998
1.506591796875
1.48564453125
1.4961181640624999
1.4791992187499998
1.490478515625
1.49853515625
2.2002685546875
1.4115234374999999
1.4510009765624998
1.5170654296875
1.4437499999999999
1.3913818359374999
1.1996337890625
1.2987304687499999
1.3631835937499999
1.4751708984374998
1.480810546875
1.5009521484375
1.4832275390624998
1.5597656249999998
1.533984375
1.542041015625
1.55009765625
1.5299560546875
1.5444580078124999
1.5283447265624999
1.5275390624999998
0.791162109375
1.6201904296874998
1.6089111328124999
1.5017578125
1.5831298828125
1.7015624999999999
1.703173828125
2.1277587890625
1.53720703125
1.4840332031249999
1.4953124999999998
1.4920898437499999
1.5218994140625
1.4888671875
1.5146484375
1.4945068359375
1.4574462890625
1.4872558593749998
1.5017578125
1.496923828125
1.4953124999999998
1.5621826171875
1.6862548828125
1.3792968749999999
1.49853515625
1.456640625
1.327734375
1.340625
1.2568359375
1.3059814453124998
1.4598632812499999
1.4993408203124998
1.5218994140625
1.509814453125
1.5331787109375
1.5364013671874999
1.525927734375
1.558154296875
1.529150390625
1.5323730468749999
1.52109375
1.506591796875
1.432470703125
1.2914794921875
1.6951171875
1.5106201171875
1.58232421875
1.687060546875
1.6532226562499999
2.1728759765625
1.593603515625
1.4928955078125
1.4791992187499998
1.480810546875
1.4961181640624999
1.5017578125
1.513037109375
1.5162597656249999
1.4953124999999998
1.4993408203124998
1.5001464843749999
1.5001464843749999
1.5025634765625
1.5009521484375
2.14951171875
1.37607421875
1.4896728515625
1.50498046875
1.4115234374999999
1.377685546875
1.1512939453125
1.2995361328125
1.3929931640625
1.4993408203124998
1.4912841796874998
1.509814453125
1.5009521484375
1.5436523437499998
1.525927734375
1.5235107421874998
1.55009765625
1.5283447265624999
1.5380126953125
1.533984375
1.50498046875
0.8201660156249999
1.6701416015625
1.56943359375
1.529150390625
1.6185791015625
1.65
2.1624023437499997
1.71123046875
1.5073974609374998
1.4872558593749998
1.490478515625
1.490478515625
1.5251220703125
1.5041748046874999
1.5114257812499998
1.5041748046874999
1.46953125
1.5090087890625
1.5025634765625
1.4961181640624999
1.5017578125
2.2832519531249997
1.5235107421874998
1.4671142578124998
1.5275390624999998
1.445361328125
1.3333740234375
1.1432373046875
1.3019531249999998
1.335791015625
1.4832275390624998
1.4993408203124998
1.5082031249999999
1.5001464843749999
1.5662109375
1.5243164062499999
1.5396240234374998
1.5380126953125
1.5283447265624999
1.529150390625
1.529150390625
1.51787109375
0.7130126953125
1.4767822265625
1.5847412109374999
1.5082031249999999
1.593603515625
1.7080078125
1.73056640625
2.070556640625
1.5654052734375
1.4864501953125
1.5001464843749999
1.490478515625
1.5025634765625
1.4848388671875
1.5138427734375
1.49853515625
1.4751708984374998
1.5025634765625
1.5114257812499998
1.5001464843749999
1.5073974609374998
1.74345703125
1.91748046875
1.3978271484375
1.5194824218749998
1.4791992187499998
1.3301513671874998
1.3365966796875
1.2673095703125
1.3075927734375
1.4735595703125
1.50498046875
1.5146484375
1.4977294921875
1.5492919921875
1.53076171875
1.5412353515625
1.5831298828125
1.5573486328125
1.55009765625
1.53720703125
1.5299560546875
1.2665039062499999
1.06669921875
1.6653076171874999
1.5001464843749999
1.5412353515625
1.6298583984375
1.654833984375
2.1632080078125
1.6427490234375
1.4872558593749998
1.482421875
1.4872558593749998
1.49853515625
1.490478515625
1.5073974609374998
1.5057861328125
1.4953124999999998
1.4953124999999998
1.490478515625
1.496923828125
1.4912841796874998
1.5009521484375
2.3235351562499997
1.3792968749999999
1.5025634765625
1.5122314453124999
1.3825195312499998
1.3905761718749998
1.142431640625
1.3220947265624998
1.4147460937499998
1.4993408203124998
1.4896728515625
1.5082031249999999
1.509814453125
1.5412353515625
1.52109375
1.5251220703125
1.55009765625
1.525927734375
1.5283447265624999
1.5235107421874998
1.5138427734375
0.994189453125
1.6822265625
1.5412353515625
1.5194824218749998
1.6282470703124998
1.6403320312499998
1.9118408203125
1.6886718749999998
1.5057861328125
1.4864501953125
1.4816162109375
1.4953124999999998
1.5235107421874998
1.4920898437499999
1.5122314453124999
1.4920898437499999
1.464697265625
1.5090087890625
1.5186767578125
1.509814453125
1.5122314453124999
2.2695556640625
1.4655029296875
1.442138671875
1.5122314453124999
1.44052734375
1.361572265625
1.2415283203124998
1.2995361328125
1.3631835937499999
1.4767822265625
1.5041748046874999
1.5090087890625
1.4832275390624998
1.5444580078124999
1.5186767578125
1.5460693359375
1.5315673828124998
1.5331787109375
1.533984375
1.533984375
1.50498046875
0.720263671875
1.5541259765625
1.625830078125
1.5404296874999999
1.5992431640625
1.6935058593749999
1.654833984375
1.96904296875
1.5492919921875
1.4961181640624999
1.4953124999999998
1.4888671875
1.5001464843749999
1.4928955078125
1.5041748046874999
1.4953124999999998
1.46630859375
1.496923828125
1.5073974609374998
1.5009521484375
1.5057861328125
1.9078125
1.7772949218749998
1.38896484375
1.5323730468749999
1.4679199218749999
1.3583496093749998
1.3156494140625
1.3172607421875
1.316455078125
1.4510009765624998
1.4880615234374999
1.513037109375
1.5090087890625
1.538818359375
1.5251220703125
1.5267333984375
1.5162597656249999
1.5380126953125
1.533984375
1.5323730468749999
1.5235107421874998
1.084423828125
1.2109130859375
1.6701416015625
1.4977294921875
1.5541259765625
1.6532226562499999
1.6290527343749999
2.0955322265625
1.590380859375
1.5001464843749999
1.4816162109375
1.490478515625
1.5001464843749999
1.4888671875
1.50498046875
1.49853515625
1.4872558593749998
1.4993408203124998
1.5057861328125
1.5009521484375
1.5001464843749999
1.49853515625
2.1744873046874997
1.3881591796875
1.5122314453124999
1.51787109375
1.4381103515625
1.384130859375
1.164990234375
1.3285400390625
1.4316650390624999
1.4864501953125
1.50498046875
1.5082031249999999
1.525927734375
1.5412353515625
1.5146484375
1.5364013671874999
1.5436523437499998
1.5267333984375
1.5299560546875
1.5267333984375
1.5146484375
0.7968017578125
1.6725585937499998
1.52109375
1.5315673828124998
1.59521484375
1.6322753906249998
1.9263427734374998
1.8328857421875
1.5017578125
1.5057861328125
1.4977294921875
1.50498046875
1.525927734375
1.5009521484375
1.5025634765625
1.490478515625
1.4671142578124998
1.4953124999999998
1.5017578125
1.5009521484375
1.5106201171875
2.1438720703125
1.42119140625
1.47275390625
1.5275390624999998
1.44052734375
1.3978271484375
1.2060791015624999
1.316455078125
1.3905761718749998
1.4816162109375
1.4832275390624998
1.5057861328125
1.4848388671875
1.5621826171875
1.51787109375
1.5484863281249999
1.5355957031249998
1.5283447265624999
1.5267333984375
1.525927734375
1.5154541015624998
0.8725341796874999
1.6024658203125
1.5895751953125
1.4993408203124998
1.5976318359375
1.6798095703125
1.66611328125
2.0697509765624997
1.53720703125
1.4848388671875
1.4896728515625
1.4945068359375
1.5146484375
1.490478515625
1.5194824218749998
1.5025634765625
1.4767822265625
1.4993408203124998
1.5001464843749999
1.5033691406249998
1.50498046875
2.0415527343749997
1.667724609375
1.4010498046875
1.513037109375
1.461474609375
1.351904296875
1.3672119140624999
1.3140380859374998
1.3430419921874999
1.4590576171874998
1.4912841796874998
1.506591796875
1.5033691406249998
1.5380126953125
1.542041015625
1.525927734375
1.5283447265624999
1.5364013671874999
1.5146484375
1.5202880859374999
1.5331787109375
0.9466552734375
1.3212890625
1.6556396484375
1.4888671875
1.5589599609375
1.662890625
1.6403320312499998
2.028662109375
1.5670166015625
1.5090087890625
1.4848388671875
1.4961181640624999
1.496923828125
1.5122314453124999
1.5186767578125
1.5090087890625
1.4791992187499998
1.5017578125
1.5073974609374998
1.5041748046874999
1.5041748046874999
1.5122314453124999
2.0737792968749997
1.3954101562499999
1.5106201171875
1.513037109375
1.4300537109375
1.4066894531249998
1.2431396484375
1.3220947265624998
1.4147460937499998
1.48564453125
1.513037109375
1.5001464843749999
1.493701171875
1.5251220703125
1.5235107421874998
1.5275390624999998
1.5275390624999998
1.529150390625
1.5315673828124998
1.5243164062499999
1.5033691406249998
0.8918701171875
1.6604736328124998
1.5847412109374999
1.533984375
1.603271484375
1.6443603515624998
1.9456787109375
1.7877685546875
1.5235107421874998
1.496923828125
1.4993408203124998
1.5057861328125
1.5162597656249999
1.50498046875
1.5057861328125
1.5122314453124999
1.4703369140625
1.50498046875
1.506591796875
1.5057861328125
1.4953124999999998
2.1954345703125
1.5162597656249999
1.490478515625
1.5323730468749999
1.4526123046875
1.4034667968749999
1.18271484375
1.316455078125
1.3502929687499998
1.480810546875
1.490478515625
1.5162597656249999
1.4977294921875
1.5573486328125
1.51787109375
1.522705078125
1.53720703125
1.5106201171875
1.522705078125
1.5235107421874998
1.522705078125
0.807275390625
1.46630859375
1.5645996093749999
1.5090087890625
1.5863525390625
1.69833984375
1.732177734375
1.9867675781249998
1.56298828125
1.4993408203124998
1.4928955078125
1.4961181640624999
1.5146484375
1.4751708984374998
1.50498046875
1.496923828125
1.4888671875
1.506591796875
1.5017578125
1.4961181640624999
1.5041748046874999
1.703173828125
1.58232421875
1.41796875
1.5186767578125
1.4864501953125
1.3559326171875
1.3583496093749998
1.2544189453124999
1.3543212890624998
1.482421875
1.4880615234374999
1.5025634765625
1.4961181640624999
1.5396240234374998
1.538818359375
1.5194824218749998
1.55009765625
1.538818359375
1.5275390624999998
1.5243164062499999
1.5186767578125
1.2914794921875
1.4066894531249998
1.6451660156249999
1.50498046875
1.5436523437499998
1.6645019531249998
1.651611328125
2.09150390625
1.561376953125
1.4961181640624999
1.49853515625
1.4864501953125
1.5001464843749999
1.509814453125
1.5138427734375
1.5082031249999999
1.4735595703125
1.5017578125
1.506591796875
1.506591796875
1.4993408203124998
1.490478515625
1.948095703125
1.3913818359374999
1.50498046875
1.5090087890625
1.405078125
1.3897705078125
1.2938964843749998
1.3188720703124999
1.4308593749999998
1.4872558593749998
1.50498046875
1.5073974609374998
1.50498046875
1.5275390624999998
1.53076171875
1.5412353515625
1.5315673828124998
1.529150390625
1.5331787109375
1.533984375
1.4066894531249998
1.026416015625
1.66611328125
1.542041015625
1.529150390625
1.6008544921874999
1.625830078125
1.996435546875
1.738623046875
1.5114257812499998
1.4977294921875
1.4928955078125
1.4928955078125
1.51787109375
1.5082031249999999
1.5186767578125
1.4993408203124998
1.4711425781249998
1.496923828125
1.5009521484375
1.4953124999999998
1.5009521484375
2.209130859375
1.482421875
1.4961181640624999
1.5355957031249998
1.4550292968749998
1.3784912109374998
1.1899658203124999
1.3341796874999998
1.3672119140624999
1.48564453125
1.4880615234374999
1.5017578125
1.4832275390624998
1.5517089843749998
1.5267333984375
1.5283447265624999
1.5637939453124998
1.5267333984375
1.5275390624999998
1.5267333984375
1.51787109375
0.7871337890625
1.5404296874999999
1.5436523437499998
1.5090087890625
1.5791015625
1.6822265625
1.8425537109374999
1.8892822265625
1.545263671875
1.493701171875
1.4816162109375
1.490478515625
1.5106201171875
1.4880615234374999
1.5138427734375
1.4848388671875
1.4953124999999998
1.5090087890625
1.4928955078125
1.5017578125
1.506591796875
1.8586669921874999
1.7829345703125
1.4373046875
1.525927734375
1.480810546875
1.3728515625
1.3527099609375
1.2826171874999999
1.3527099609375
1.477587890625
1.4872558593749998
1.5194824218749998
1.4928955078125
1.533984375
1.525927734375
1.5323730468749999
1.5541259765625
1.5355957031249998
1.5251220703125
1.5186767578125
1.5243164062499999
1.13115234375
1.493701171875
1.6185791015625
1.496923828125
1.5533203125
1.6733642578124999
1.658056640625
2.0625
1.55009765625
1.4993408203124998
1.4961181640624999
1.4977294921875
1.5025634765625
1.509814453125
1.509814453125
1.5082031249999999
1.4759765624999999
1.4977294921875
1.5025634765625
1.496923828125
1.5025634765625
1.506591796875
1.8441650390625
1.3929931640625
1.50498046875
1.4840332031249999
1.3833251953124999
1.397021484375
1.2479736328125
1.3212890625
1.4510009765624998
1.493701171875
1.5122314453124999
1.5082031249999999
1.5218994140625
1.5396240234374998
1.5243164062499999
1.542041015625
1.53076171875
1.5251220703125
1.5299560546875
1.5186767578125
1.2697265624999998
1.11181640625
1.6483886718749998
1.5162597656249999
1.5380126953125
1.638720703125
1.6161621093749998
2.02705078125
1.7047851562499998
1.509814453125
1.5033691406249998
1.4920898437499999
1.48564453125
1.513037109375
1.5041748046874999
1.509814453125
1.4953124999999998
1.4961181640624999
1.5033691406249998
1.5017578125
1.4993408203124998
1.5017578125
2.19140625
1.448583984375
1.50498046875
1.5154541015624998
1.45341796875
1.3905761718749998
1.1899658203124999
1.3253173828125
1.3857421875
1.4953124999999998
1.496923828125
1.5114257812499998
1.5033691406249998
1.5428466796875
1.5315673828124998
1.5235107421874998
1.5557373046874998
1.525927734375
1.5251220703125
1.52109375
1.509814453125
0.8145263671874999
1.6564453124999998
1.5347900390625
1.522705078125
1.5895751953125
1.6177734375
2.0020751953125
1.7797119140625
1.5106201171875
1.4945068359375
1.4961181640624999
1.4945068359375
1.5122314453124999
1.496923828125
1.5122314453124999
1.48564453125
1.496923828125
1.5017578125
1.5009521484375
1.5073974609374998
1.5009521484375
2.196240234375
1.4622802734375
1.448583984375
1.5218994140625
1.4606689453125
1.3768798828125
1.3317626953125
1.3382080078124998
1.368017578125
1.48564453125
1.4928955078125
1.5146484375
1.4928955078125
1.538818359375
1.5251220703125
1.52109375
1.5509033203125
1.5283447265624999
1.5315673828124998
1.529150390625
1.5194824218749998
0.8040527343749999
1.5517089843749998
1.585546875
1.4832275390624998
1.5791015625
1.6725585937499998
1.658056640625
1.87236328125
1.5428466796875
1.4920898437499999
1.4953124999999998
1.5001464843749999
1.513037109375
1.4993408203124998
1.5138427734375
1.5001464843749999
1.4832275390624998
1.50498046875
1.5082031249999999
1.4872558593749998
1.4961181640624999
1.915869140625
1.7490966796874998
1.4066894531249998
1.5283447265624999
1.4791992187499998
1.3712402343749999
1.2955078125
1.3261230468749998
1.3422363281249998
1.4461669921875
1.48564453125
1.5122314453124999
1.5082031249999999
1.5492919921875
1.522705078125
1.538818359375
1.5323730468749999
1.5235107421874998
1.5267333984375
1.5283447265624999
1.51787109375
1.0965087890625
1.2383056640624999
1.6540283203125
1.4896728515625
1.5525146484374999
1.6459716796875
1.635498046875
2.0496093749999997
1.6524169921874998
1.5082031249999999
1.50498046875
1.4953124999999998
1.5017578125
1.4977294921875
1.5090087890625
1.5041748046874999
1.482421875
1.4888671875
1.5001464843749999
1.493701171875
1.493701171875
1.50498046875
2.1245361328125
1.400244140625
1.5138427734375
1.5001464843749999
1.3817138671875
1.3744628906249998
1.2076904296875
1.3341796874999998
1.44052734375
1.4977294921875
1.4993408203124998
1.5073974609374998
1.513037109375
1.5428466796875
1.5331787109375
1.53076171875
1.5436523437499998
1.5331787109375
1.5235107421874998
1.5122314453124999
1.5154541015624998
0.8870361328124999
1.6532226562499999
1.50498046875
1.5202880859374999
1.5911865234375
1.6298583984375
2.0407470703125
1.7249267578124998
1.5017578125
1.4920898437499999
1.493701171875
1.506591796875
1.5235107421874998
1.5017578125
1.5009521484375
1.4993408203124998
1.5082031249999999
1.50498046875
1.5017578125
1.4977294921875
1.493701171875
2.1543457031249997
1.4268310546874998
1.4816162109375
1.529150390625
1.4477783203124999
1.3921875
1.2350830078125
1.3317626953125
1.380908203125
1.4920898437499999
1.4953124999999998
1.5146484375
1.5001464843749999
1.5597656249999998
1.5235107421874998
1.525927734375
1.5444580078124999
1.5186767578125
1.5146484375
1.53076171875
1.5186767578125
0.845947265625
1.6105224609375
1.5678222656249998
1.5041748046874999
1.5887695312499999
1.6822265625
1.7047851562499998
1.8167724609375
1.53076171875
1.4961181640624999
1.496923828125
1.49853515625
1.5154541015624998
1.4977294921875
1.5138427734375
1.4961181640624999
1.474365234375
1.4993408203124998
1.5041748046874999
1.5009521484375
1.5025634765625
2.0657226562499997
1.6330810546874999
1.4123291015625
1.529150390625
1.4606689453125
1.3639892578125
1.222998046875
1.327734375
1.34384765625
1.4622802734375
1.48564453125
1.5114257812499998
1.50498046875
1.5533203125
1.5218994140625
1.5218994140625
1.5428466796875
1.5243164062499999
1.522705078125
1.522705078125
1.5194824218749998
0.9337646484375
1.361572265625
1.6443603515624998
1.5001464843749999
1.56298828125
1.6636962890625
1.6653076171874999
2.051220703125
1.6000488281249998
1.5033691406249998
1.4928955078125
1.482421875
1.4993408203124998
1.4848388671875
1.513037109375
1.5114257812499998
1.482421875
1.5009521484375
1.50498046875
1.4953124999999998
1.4920898437499999
1.5428466796875
2.0109375
1.40830078125
1.5138427734375
1.4977294921875
1.3712402343749999
1.37607421875
1.239111328125
1.3430419921874999
1.4606689453125
1.4920898437499999
1.4977294921875
1.5090087890625
1.5235107421874998
1.5251220703125
1.5267333984375
1.529150390625
1.5509033203125
1.5267333984375
1.5299560546875
1.52109375
1.45341796875
0.9893554687499999
1.6524169921874998
1.4961181640624999
1.5323730468749999
1.5984375
1.6290527343749999
2.086669921875
1.670947265625
1.5138427734375
1.5001464843749999
1.4912841796874998
1.5017578125
1.5082031249999999
1.50498046875
1.506591796875
1.477587890625
1.4977294921875
1.506591796875
1.49853515625
1.5041748046874999
1.4977294921875
2.075390625
1.4058837890625
1.493701171875
1.522705078125
1.4461669921875
1.40185546875
1.1947998046875
1.32451171875
1.4010498046875
1.4832275390624998
1.4961181640624999
1.513037109375
1.506591796875
1.554931640625
1.5283447265624999
1.5355957031249998
1.5331787109375
1.5194824218749998
1.52109375
1.5154541015624998
1.5138427734375
0.9160400390625
1.6451660156249999
1.558154296875
1.5041748046874999
1.6040771484374998
1.65
1.7362060546875
1.7909912109375
1.5315673828124998
1.49853515625
1.5017578125
1.5082031249999999
1.5170654296875
1.4872558593749998
1.5082031249999999
1.506591796875
1.461474609375
1.493701171875
1.4920898437499999
1.4872558593749998
1.49853515625
2.1543457031249997
1.5533203125
1.4316650390624999
1.529150390625
1.464697265625
1.35673828125
1.2044677734375
1.340625
1.353515625
1.4703369140625
1.4920898437499999
1.5154541015624998
1.4961181640624999
1.5597656249999998
1.5186767578125
1.5243164062499999
1.5533203125
1.5235107421874998
1.5267333984375
1.522705078125
1.525927734375
0.8628662109374999
1.4550292968749998
1.6209960937499999
1.5033691406249998
1.5734619140625
1.674169921875
1.7265380859375
1.9706542968749998
1.5637939453124998
1.4928955078125
1.493701171875
1.4896728515625
1.509814453125
1.4888671875
1.5186767578125
1.4928955078125
1.4912841796874998
1.5017578125
1.5017578125
1.5001464843749999
1.5017578125
1.662890625
1.9102294921874998
1.4195800781249999
1.5243164062499999
1.4896728515625
1.40185546875
1.3591552734374999
1.2616699218749998
1.3253173828125
1.46630859375
1.4840332031249999
1.49853515625
1.5138427734375
1.5380126953125
1.53720703125
1.525927734375
1.5380126953125
1.5396240234374998
1.5323730468749999
1.522705078125
1.5218994140625
1.32451171875
1.087646484375
1.6411376953124999
1.49853515625
1.5299560546875
1.61455078125
1.6379150390625
2.0689453125
1.6314697265625
1.5009521484375
1.5025634765625
1.5090087890625
1.506591796875
1.5082031249999999
1.506591796875
1.513037109375
1.4896728515625
1.5009521484375
1.5106201171875
1.496923828125
1.4961181640624999
1.4848388671875
2.1938232421875
1.4026611328124998
1.50498046875
1.525927734375
1.4187744140624998
1.397021484375
1.1835205078125
1.319677734375
1.4147460937499998
1.4880615234374999
1.49853515625
1.5090087890625
1.5041748046874999
1.5557373046874998
1.529150390625
1.5404296874999999
1.5251220703125
1.5154541015624998
1.5323730468749999
1.5202880859374999
1.5162597656249999
1.010302734375
1.6572509765624999
1.5323730468749999
1.5073974609374998
1.6040771484374998
1.6250244140624999
1.7893798828124998
1.7458740234374999
1.50498046875
1.4977294921875
1.496923828125
1.493701171875
1.5186767578125
1.4961181640624999
1.513037109375
1.5057861328125
1.4687255859375
1.5122314453124999
1.506591796875
1.5001464843749999
1.50498046875
2.1970458984375
1.4896728515625
1.4373046875
1.52109375
1.4655029296875
1.380908203125
1.2745605468749999
1.3382080078124998
1.364794921875
1.4735595703125
1.4961181640624999
1.513037109375
1.4880615234374999
1.5347900390625
1.5202880859374999
1.5275390624999998
1.546875
1.5218994140625
1.52109375
1.51787109375
1.5146484375
0.8201660156249999
1.53076171875
1.5984375
1.5138427734375
1.5863525390625
1.67900390625
1.6540283203125
1.8860595703124998
1.53720703125
1.4888671875
1.4840332031249999
1.4993408203124998
1.5138427734375
1.5154541015624998
1.52109375
1.4896728515625
1.4888671875
1.5033691406249998
1.5146484375
1.5073974609374998
1.5009521484375
1.8143554687499999
1.80791015625
1.400244140625
1.52109375
1.4945068359375
1.380908203125
1.3559326171875
1.281005859375
1.329345703125
1.4477783203124999
1.48564453125
1.4961181640624999
1.493701171875
1.529150390625
1.5275390624999998
1.5283447265624999
1.542041015625
1.5347900390625
1.5331787109375
1.5267333984375
1.5235107421874998
1.15693359375
1.2044677734375
1.6653076171874999
1.4864501953125
1.5476806640624998
1.6395263671875
1.622607421875
2.04638671875
1.6072998046875
1.509814453125
1.4977294921875
1.4912841796874998
1.5025634765625
1.5218994140625
1.5170654296875
1.5001464843749999
1.5082031249999999
1.4920898437499999
1.50498046875
1.5057861328125
1.5041748046874999
1.50498046875
2.1503173828124997
1.4187744140624998
1.50498046875
1.513037109375
1.4510009765624998
1.393798828125
1.2544189453124999
1.3188720703124999
1.4364990234375
1.4872558593749998
1.493701171875
1.5090087890625
1.5082031249999999
1.538818359375
1.5243164062499999
1.538818359375
1.5267333984375
1.5235107421874998
1.5283447265624999
1.529150390625
1.5057861328125
0.8548095703124999
1.6121337890624998
1.5194824218749998
1.51787109375
1.5799072265624998
1.6209960937499999
1.8522216796875
1.8780029296874998
1.585546875
1.490478515625
1.4977294921875
1.4977294921875
1.5170654296875
1.506591796875
1.5194824218749998
1.5025634765625
1.4767822265625
1.5090087890625
1.5009521484375
1.509814453125
1.49853515625
2.0504150390625
1.4461669921875
1.4598632812499999
1.53720703125
1.4590576171874998
1.38896484375
1.2366943359375
1.348681640625
1.3768798828125
1.4953124999999998
1.4953124999999998
1.51787109375
1.4840332031249999
1.5525146484374999
1.5202880859374999
1.522705078125
1.5517089843749998
1.525927734375
1.529150390625
1.525927734375
1.5194824218749998
0.9313476562499999
1.5726562499999999
1.5791015625
1.513037109375
1.5968261718749999
1.6830322265625
1.714453125
1.9827392578124998
1.529150390625
1.4896728515625
1.4864501953125
1.4953124999999998
1.5122314453124999
1.4880615234374999
1.5170654296875
1.4880615234374999
1.5001464843749999
1.506591796875
1.5033691406249998
1.4993408203124998
1.5009521484375
1.5364013671874999
1.6894775390624999
1.4066894531249998
1.51787109375
1.4622802734375
1.3639892578125
1.3905761718749998
1.3269287109374999
1.327734375
1.461474609375
1.49853515625
1.5114257812499998
1.4977294921875
1.5251220703125
1.5235107421874998
1.52109375
1.53720703125
1.5412353515625
1.5202880859374999
1.5275390624999998
1.522705078125
0.9901611328125
1.3180664062499998
1.6508056640625
1.4993408203124998
1.5605712890624999
1.651611328125
1.6371093749999999
2.0149658203125
1.56943359375
1.4872558593749998
1.5001464843749999
1.5025634765625
1.5106201171875
1.5251220703125
1.5090087890625
1.5057861328125
1.4977294921875
1.48564453125
1.4961181640624999
1.4880615234374999
1.5057861328125
1.5033691406249998
2.05927734375
1.400244140625
1.5017578125
1.5082031249999999
1.4429443359374998
1.413134765625
1.3075927734375
1.3317626953125
1.4058837890625
1.4751708984374998
1.4993408203124998
1.5033691406249998
1.4864501953125
1.5347900390625
1.5235107421874998
1.545263671875
1.525927734375
1.5243164062499999
1.529150390625
1.51787109375
1.5218994140625
0.9087890624999999
1.6379150390625
1.50498046875
1.5283447265624999
1.587158203125
1.6363037109374998
1.9142578124999998
1.803076171875
1.5202880859374999
1.496923828125
1.4888671875
1.4977294921875
1.5114257812499998
1.5106201171875
1.51787109375
1.5082031249999999
1.4945068359375
1.5090087890625
1.5082031249999999
1.5001464843749999
1.496923828125
2.144677734375
1.5863525390625
1.4791992187499998
1.529150390625
1.4638916015624999
1.3986328124999998
1.24716796875
1.3446533203125
1.3962158203125
1.4953124999999998
1.4888671875
1.5154541015624998
1.4759765624999999
1.5412353515625
1.5243164062499999
1.52109375
1.5734619140625
1.5355957031249998
1.5315673828124998
1.522705078125
1.509814453125
0.8403076171874999
1.622607421875
1.5637939453124998
1.5001464843749999
1.5662109375
1.6564453124999998
1.8119384765625
1.90458984375
1.55009765625
1.4912841796874998
1.496923828125
1.4961181640624999
1.5218994140625
1.4848388671875
1.525927734375
1.5025634765625
1.5090087890625
1.50498046875
1.5009521484375
1.493701171875
1.496923828125
1.65
1.6048828124999999
1.4107177734374998
1.5202880859374999
1.46953125
1.364794921875
1.380908203125
1.2769775390625
1.3470703124999999
1.4679199218749999
1.4840332031249999
1.5194824218749998
1.4977294921875
1.53720703125
1.529150390625
1.529150390625
1.5436523437499998
1.525927734375
1.5267333984375
1.51787109375
1.5202880859374999
1.35673828125
1.3865478515624998
1.638720703125
1.5025634765625
1.5702392578125
1.6588623046875
1.6403320312499998
1.9996582031249999
1.603271484375
1.4993408203124998
1.5001464843749999
1.4993408203124998
1.5114257812499998
