1.525927734375
1.506591796875
1.5025634765625
1.50498046875
1.5162597656249999
1.5001464843749999
1.5106201171875
1.5025634765625
2.296142578125
1.490478515625
1.509814453125
1.5444580078124999
1.46630859375
1.4066894531249998
1.1738525390624999
1.2528076171875
1.3229003906249999
1.4719482421874999
1.4655029296875
1.4872558593749998
1.4687255859375
1.5251220703125
1.5170654296875
1.5057861328125
1.5331787109375
1.5162597656249999
1.5267333984375
1.5194824218749998
1.50498046875
0.6993164062499999
1.5412353515625
1.5315673828124998
1.4928955078125
1.5766845703124999
1.6475830078125
1.9182861328124998
1.9867675781249998
1.5758789062499998
1.5146484375
1.50498046875
1.5090087890625
1.5323730468749999
1.50498046875
1.5114257812499998
1.509814453125
1.509814453125
1.5033691406249998
1.5057861328125
1.50498046875
1.506591796875
2.0020751953125
1.7909912109375
1.456640625
1.546875
1.5017578125
1.3929931640625
1.3140380859374998
1.264892578125
1.3188720703124999
1.4397216796874999
1.464697265625
1.4783935546875
1.4526123046875
1.5186767578125
1.5218994140625
1.5194824218749998
1.52109375
1.522705078125
1.5202880859374999
1.52109375
1.5202880859374999
0.9152343749999999
1.2012451171875
1.60166015625
1.4735595703125
1.5347900390625
1.6693359374999999
1.7217041015624999
2.1551513671875
1.5605712890624999
1.5106201171875
1.5138427734375
1.5082031249999999
1.52109375
1.5106201171875
1.5170654296875
1.49853515625
1.5025634765625
1.5073974609374998
1.509814453125
1.5033691406249998
1.506591796875
1.4977294921875
1.9029785156249999
1.4236083984374999
1.506591796875
1.5162597656249999
1.4010498046875
1.3728515625
1.213330078125
1.24716796875
1.3905761718749998
1.4735595703125
1.477587890625
1.4880615234374999
1.490478515625
1.5275390624999998
1.5186767578125
1.5162597656249999
1.5283447265624999
1.513037109375
1.5170654296875
1.5170654296875
1.456640625
1.0820068359375
1.6524169921874998
1.5146484375
1.5235107421874998
1.609716796875
1.6250244140624999
1.9867675781249998
1.732177734375
1.5412353515625
1.5090087890625
1.5057861328125
1.5154541015624998
1.5275390624999998
1.5057861328125
1.5090087890625
1.50498046875
1.506591796875
1.5106201171875
1.50498046875
1.506591796875
1.5017578125
2.280029296875
1.490478515625
1.4791992187499998
1.542041015625
1.4598632812499999
1.409912109375
1.142431640625
1.2850341796875
1.329345703125
1.4526123046875
1.47275390625
1.4888671875
1.464697265625
1.5202880859374999
1.5162597656249999
1.51787109375
1.5194824218749998
1.5146484375
1.5218994140625
1.5170654296875
1.5082031249999999
0.710595703125
1.5517089843749998
1.5831298828125
1.493701171875
1.5927978515624999
1.6459716796875
1.960986328125
1.9521240234375
1.5645996093749999
1.5170654296875
1.5057861328125
1.5025634765625
1.513037109375
1.49853515625
1.5146484375
1.5025634765625
1.5082031249999999
1.5170654296875
1.5106201171875
1.5057861328125
1.509814453125
2.0246337890625
1.7821289062499999
1.4574462890625
1.5476806640624998
1.4928955078125
1.377685546875
1.2858398437499998
1.284228515625
1.2705322265624999
1.4469726562499998
1.464697265625
1.4872558593749998
1.48564453125
1.5299560546875
1.525927734375
1.5194824218749998
1.5275390624999998
1.522705078125
1.5170654296875
1.5146484375
1.5122314453124999
0.9353759765624999
1.1996337890625
1.6733642578124999
1.4735595703125
1.5436523437499998
1.6266357421875
1.67578125
2.1849609375
1.6645019531249998
1.5073974609374998
1.5162597656249999
1.5162597656249999
1.5194824218749998
1.4993408203124998
1.52109375
1.5146484375
1.5057861328125
1.5025634765625
1.513037109375
1.5033691406249998
1.5033691406249998
1.5106201171875
2.20751953125
1.4219970703125
1.5033691406249998
1.5396240234374998
1.400244140625
1.380908203125
1.1545166015625
1.2753662109375
1.3978271484375
1.477587890625
1.4703369140625
1.490478515625
1.4953124999999998
1.52109375
1.52109375
1.5073974609374998
1.5202880859374999
1.5073974609374998
1.525927734375
1.52109375
1.5041748046874999
0.7863281249999999
1.6645019531249998
1.5122314453124999
1.5073974609374998
1.6137451171875
1.6346923828125
2.0713623046875
1.8659179687499998
1.538818359375
1.5162597656249999
1.5082031249999999
1.5146484375
1.53720703125
1.5009521484375
1.5122314453124999
1.5114257812499998
1.5025634765625
1.5082031249999999
1.506591796875
1.5025634765625
1.49853515625
2.27197265625
1.4816162109375
1.4832275390624998
1.538818359375
1.464697265625
1.4066894531249998
1.213330078125
1.284228515625
1.3253173828125
1.4574462890625
1.4711425781249998
1.4848388671875
1.4630859374999998
1.5323730468749999
1.5194824218749998
1.522705078125
1.525927734375
1.5243164062499999
1.5235107421874998
1.5202880859374999
1.5114257812499998
0.7114013671874999
1.5597656249999998
1.5791015625
1.4735595703125
1.577490234375
1.65966796875
1.6975341796874999
1.9907958984374998
1.5815185546875
1.5146484375
1.5162597656249999
1.5025634765625
1.525927734375
1.4896728515625
1.5154541015624998
1.509814453125
1.4993408203124998
1.5073974609374998
1.506591796875
1.5009521484375
1.5057861328125
2.0471923828125
1.7635986328125
1.4300537109375
1.5396240234374998
1.4977294921875
1.3857421875
1.3019531249999998
1.2640869140625
1.2745605468749999
1.4042724609375
1.4671142578124998
1.4872558593749998
1.4888671875
1.5283447265624999
1.513037109375
1.52109375
1.5218994140625
1.5162597656249999
1.5194824218749998
1.5243164062499999
1.5154541015624998
0.9571289062499999
1.1915771484375
1.6314697265625
1.474365234375
1.554931640625
1.6290527343749999
1.67900390625
2.164013671875
1.69833984375
1.5323730468749999
1.525927734375
1.5122314453124999
1.5186767578125
1.5009521484375
1.5170654296875
1.5033691406249998
1.496923828125
1.5114257812499998
1.5082031249999999
1.5057861328125
1.5001464843749999
1.513037109375
2.1946289062499997
1.4276367187499999
1.5114257812499998
1.542041015625
1.47275390625
1.3736572265625
1.1432373046875
1.2769775390625
1.3978271484375
1.46953125
1.4719482421874999
1.4880615234374999
1.49853515625
1.5331787109375
1.5146484375
1.5267333984375
1.5154541015624998
1.5114257812499998
1.5275390624999998
1.5202880859374999
1.5017578125
0.7742431640624999
1.64677734375
1.50498046875
1.5009521484375
1.587158203125
1.6363037109374998
1.998046875
1.899755859375
1.5364013671874999
1.5235107421874998
1.5017578125
1.5122314453124999
1.53076171875
1.5041748046874999
1.5170654296875
1.5041748046874999
1.5057861328125
1.5194824218749998
1.5017578125
1.5114257812499998
1.5001464843749999
2.18818359375
1.474365234375
1.493701171875
1.546875
1.4679199218749999
1.4139404296875
1.248779296875
1.2882568359375
1.3333740234375
1.4590576171874998
1.4679199218749999
1.48564453125
1.458251953125
1.542041015625
1.5218994140625
1.5202880859374999
1.5267333984375
1.5170654296875
1.5186767578125
1.5146484375
1.5114257812499998
0.708984375
1.554931640625
1.571044921875
1.4928955078125
1.5686279296874999
1.6532226562499999
1.699951171875
2.1744873046874997
1.5791015625
1.529150390625
1.5194824218749998
1.5033691406249998
1.5267333984375
1.4888671875
1.5146484375
1.5041748046874999
1.5017578125
1.5057861328125
1.5073974609374998
1.5001464843749999
1.5114257812499998
2.0657226562499997
1.7507080078125
1.4332763671875
1.5517089843749998
1.4953124999999998
1.3825195312499998
1.361572265625
1.2745605468749999
1.2785888671874999
1.4058837890625
1.4671142578124998
1.477587890625
1.480810546875
1.5122314453124999
1.5194824218749998
1.5251220703125
1.522705078125
1.51787109375
1.5170654296875
1.5235107421874998
1.5243164062499999
0.9224853515625
1.2181640624999999
1.6395263671875
1.4832275390624998
1.5364013671874999
1.6209960937499999
1.6491943359374999
2.1470947265625
1.6886718749999998
1.542041015625
1.5202880859374999
1.509814453125
1.5162597656249999
1.5758789062499998
1.51787109375
1.5082031249999999
1.50498046875
1.5154541015624998
1.5138427734375
1.506591796875
1.5009521484375
1.5033691406249998
2.1849609375
1.456640625
1.5194824218749998
1.5267333984375
1.4461669921875
1.377685546875
1.1408203125
1.2777832031249998
1.4010498046875
1.4630859374999998
1.4735595703125
1.4953124999999998
1.5082031249999999
1.5251220703125
1.51787109375
1.5154541015624998
1.5243164062499999
1.5154541015624998
1.52109375
1.5154541015624998
1.513037109375
0.7645751953125
1.590380859375
1.50498046875
1.5162597656249999
1.5766845703124999
1.6242187499999998
1.9263427734374998
1.9432617187499999
1.5533203125
1.525927734375
1.5073974609374998
1.5082031249999999
1.5267333984375
1.5082031249999999
1.5033691406249998
1.5033691406249998
1.5082031249999999
1.5106201171875
1.5041748046874999
1.5025634765625
1.50498046875
2.20751953125
1.4735595703125
1.4928955078125
1.5509033203125
1.46630859375
1.400244140625
1.2447509765625
1.284228515625
1.3390136718749999
1.456640625
1.464697265625
1.4928955078125
1.4550292968749998
1.5444580078124999
1.52109375
1.5202880859374999
1.5283447265624999
1.5154541015624998
1.522705078125
1.5218994140625
1.5057861328125
0.7549072265625
1.5654052734375
1.5597656249999998
1.4888671875
1.5686279296874999
1.6475830078125
1.6951171875
2.14306640625
1.5831298828125
1.5315673828124998
1.5186767578125
1.5057861328125
1.5323730468749999
1.4888671875
1.5162597656249999
1.49853515625
1.5017578125
1.509814453125
1.5057861328125
1.5025634765625
1.5009521484375
1.5315673828124998
1.7362060546875
1.4413330078125
1.5267333984375
1.4800048828124999
1.3881591796875
1.35673828125
1.27939453125
1.2858398437499998
1.41796875
1.4655029296875
1.4832275390624998
1.4848388671875
1.5017578125
1.51787109375
1.522705078125
1.525927734375
1.5202880859374999
1.5218994140625
1.5202880859374999
1.5106201171875
0.8523925781249999
1.2665039062499999
1.63388671875
1.5001464843749999
1.5460693359375
1.6346923828125
1.6459716796875
2.165625
1.662890625
1.533984375
1.522705078125
1.509814453125
1.513037109375
1.5202880859374999
1.5138427734375
1.496923828125
1.49853515625
1.50498046875
1.509814453125
1.5033691406249998
1.5017578125
1.5138427734375
2.1648193359375
1.4501953125
1.5202880859374999
1.5347900390625
1.4413330078125
1.409912109375
1.1432373046875
1.2769775390625
1.3607666015625
1.464697265625
1.4671142578124998
1.490478515625
1.47275390625
1.5251220703125
1.52109375
1.52109375
1.5194824218749998
1.51787109375
1.5331787109375
1.5251220703125
1.5025634765625
0.7951904296875
1.606494140625
1.4993408203124998
1.5090087890625
1.5815185546875
1.622607421875
1.98837890625
1.8900878906249998
1.56943359375
1.52109375
1.5138427734375
1.5025634765625
1.5315673828124998
1.5114257812499998
1.5090087890625
1.496923828125
1.5025634765625
1.506591796875
1.50498046875
1.5025634765625
1.5033691406249998
2.2244384765625
1.6330810546874999
1.5025634765625
1.542041015625
1.4759765624999999
1.4107177734374998
1.232666015625
1.284228515625
1.353515625
1.4445556640625
1.461474609375
1.4864501953125
1.4622802734375
1.5412353515625
1.5162597656249999
1.522705078125
1.5202880859374999
1.5186767578125
1.5243164062499999
1.5235107421874998
1.5162597656249999
0.7412109375
1.3664062499999998
1.5573486328125
1.4848388671875
1.554931640625
1.6491943359374999
1.69833984375
2.1325927734375
1.654833984375
1.5355957031249998
1.5146484375
1.5082031249999999
1.5315673828124998
1.493701171875
1.5154541015624998
1.4977294921875
1.5017578125
1.513037109375
1.5001464843749999
1.49853515625
1.5017578125
1.625830078125
1.716064453125
1.4389160156249998
1.5243164062499999
1.4848388671875
1.3881591796875
1.3543212890624998
1.1754638671875
1.2906738281249999
1.4155517578124999
1.4703369140625
1.4872558593749998
1.4783935546875
1.52109375
1.5243164062499999
1.51787109375
1.522705078125
1.5090087890625
1.51787109375
1.522705078125
1.522705078125
1.3994384765624999
1.2640869140625
1.625830078125
1.4791992187499998
1.5170654296875
1.6443603515624998
1.6459716796875
2.03671875
1.6798095703125
1.5364013671874999
1.5194824218749998
1.5090087890625
1.5057861328125
1.5251220703125
1.513037109375
1.5057861328125
1.506591796875
1.5017578125
1.513037109375
1.5090087890625
1.5041748046874999
1.50498046875
2.15595703125
1.4429443359374998
1.5041748046874999
1.5355957031249998
1.448583984375
1.4042724609375
1.184326171875
1.2689208984375
1.351904296875
1.4622802734375
1.4711425781249998
1.4961181640624999
1.464697265625
1.5283447265624999
1.5251220703125
1.5235107421874998
1.51787109375
1.5170654296875
1.5186767578125
1.5202880859374999
1.4848388671875
0.8201660156249999
1.6201904296874998
1.5476806640624998
1.4993408203124998
1.5799072265624998
1.6250244140624999
1.7990478515625
1.85302734375
1.5557373046874998
1.522705078125
1.509814453125
1.50498046875
1.5315673828124998
1.4920898437499999
1.5138427734375
1.496923828125
1.5025634765625
1.5114257812499998
1.5041748046874999
1.5122314453124999
1.506591796875
2.2494140625
1.6314697265625
1.4501953125
1.542041015625
1.4783935546875
1.3801025390625
1.2020507812499999
1.2947021484374999
1.2938964843749998
1.456640625
1.4622802734375
1.4848388671875
1.4719482421874999
1.5444580078124999
1.51787109375
1.5194824218749998
1.5235107421874998
1.51787109375
1.5275390624999998
1.5235107421874998
1.5122314453124999
0.726708984375
1.380908203125
1.5565429687499999
1.4783935546875
1.5541259765625
1.6435546875
1.7072021484375
2.1325927734375
1.6314697265625
1.53076171875
1.5162597656249999
1.5041748046874999
1.5122314453124999
1.4920898437499999
1.5122314453124999
1.5033691406249998
1.496923828125
1.5073974609374998
1.5122314453124999
1.5082031249999999
1.5017578125
1.6532226562499999
2.0310791015625
1.4381103515625
1.5267333984375
1.5315673828124998
1.3849365234375
1.345458984375
1.1770751953125
1.276171875
1.41796875
1.4655029296875
1.4759765624999999
1.4767822265625
1.513037109375
1.525927734375
1.5235107421874998
1.5194824218749998
1.5218994140625
1.5186767578125
1.5299560546875
1.5162597656249999
1.35673828125
0.9345703125
1.625830078125
1.4767822265625
1.5154541015624998
1.5637939453124998
1.654833984375
2.0665283203125
1.8167724609375
1.53720703125
1.5170654296875
1.5114257812499998
1.5251220703125
1.5218994140625
1.5154541015624998
1.513037109375
1.4993408203124998
1.509814453125
1.506591796875
1.5082031249999999
1.5033691406249998
1.4920898437499999
2.128564453125
1.4373046875
1.5186767578125
1.5396240234374998
1.4510009765624998
1.4058837890625
1.1529052734375
1.2721435546875
1.3551269531249999
1.4638916015624999
1.46630859375
1.4928955078125
1.4655029296875
1.5355957031249998
1.5267333984375
1.5194824218749998
1.522705078125
1.5202880859374999
1.5218994140625
1.5218994140625
1.5122314453124999
0.8451416015625
1.6209960937499999
1.542041015625
1.4945068359375
1.574267578125
1.6201904296874998
1.7901855468749999
1.8506103515624999
1.5573486328125
1.5202880859374999
1.5122314453124999
1.506591796875
1.5412353515625
1.4977294921875
1.5138427734375
1.4977294921875
1.4953124999999998
1.5057861328125
1.5073974609374998
1.4993408203124998
1.5017578125
2.260693359375
1.5960205078124998
1.445361328125
1.546875
1.474365234375
1.3784912109374998
1.1899658203124999
1.300341796875
1.3124267578125
1.4316650390624999
1.464697265625
1.4928955078125
1.474365234375
1.5412353515625
1.5194824218749998
1.5218994140625
1.5299560546875
1.5202880859374999
1.5218994140625
1.5194824218749998
1.5090087890625
0.71220703125
1.40185546875
1.5476806640624998
1.4864501953125
1.5686279296874999
1.667724609375
1.706396484375
2.131787109375
1.6403320312499998
1.5162597656249999
1.5146484375
1.509814453125
1.5235107421874998
1.4912841796874998
1.509814453125
1.5073974609374998
1.49853515625
1.4783935546875
1.4872558593749998
1.493701171875
1.493701171875
1.6894775390624999
1.6854492187499999
1.448583984375
1.53720703125
1.5323730468749999
1.3865478515624998
1.3664062499999998
1.190771484375
1.29228515625
1.4276367187499999
1.474365234375
1.474365234375
1.4791992187499998
1.5243164062499999
1.533984375
1.53720703125
1.5436523437499998
1.525927734375
1.5243164062499999
1.525927734375
1.53076171875
1.3220947265624998
1.2858398437499998
1.593603515625
1.4735595703125
1.5218994140625
1.6572509765624999
1.6540283203125
2.080224609375
1.6636962890625
1.533984375
1.5154541015624998
1.506591796875
1.5106201171875
1.5194824218749998
1.49853515625
1.482421875
1.4961181640624999
1.5122314453124999
1.506591796875
1.5082031249999999
1.5106201171875
1.5726562499999999
2.1205078125
1.4413330078125
1.50498046875
1.5235107421874998
1.4348876953124998
1.3921875
1.1577392578124999
1.276171875
1.3631835937499999
1.4598632812499999
1.474365234375
1.4630859374999998
1.4356933593749999
1.5122314453124999
1.5267333984375
1.53076171875
1.5194824218749998
1.5138427734375
1.529150390625
1.5202880859374999
1.458251953125
0.8338623046875
1.6169677734374999
1.5347900390625
1.5235107421874998
1.5984375
1.6379150390625
2.0520263671875
1.9029785156249999
1.574267578125
1.5436523437499998
1.533984375
1.5275390624999998
1.5476806640624998
1.4993408203124998
1.5001464843749999
1.4880615234374999
1.4977294921875
1.4977294921875
1.5001464843749999
1.5057861328125
1.5001464843749999
2.2792236328124997
1.5960205078124998
1.4872558593749998
1.5428466796875
1.4655029296875
1.4026611328124998
1.1883544921875
1.2753662109375
1.3059814453124998
1.45341796875
1.4630859374999998
1.48564453125
1.458251953125
1.5380126953125
1.52109375
1.5090087890625
1.5073974609374998
1.509814453125
1.522705078125
1.5194824218749998
1.5170654296875
0.6952880859374999
1.4356933593749999
1.554931640625
1.4896728515625
1.5541259765625
1.6290527343749999
1.7176757812499999
2.1342041015624997
1.6298583984375
1.5323730468749999
1.51787109375
1.52109375
1.5412353515625
1.506591796875
1.5315673828124998
1.5033691406249998
1.4912841796874998
1.5033691406249998
1.5033691406249998
1.5041748046874999
1.5017578125
1.7208984374999998
1.6862548828125
1.4316650390624999
1.5218994140625
1.4888671875
1.380908203125
1.34384765625
1.1690185546875
1.27939453125
1.4244140625
1.461474609375
1.4751708984374998
1.4719482421874999
1.5275390624999998
1.53076171875
1.5001464843749999
1.5106201171875
1.509814453125
1.533984375
1.525927734375
1.5186767578125
1.300341796875
1.303564453125
1.61455078125
1.46953125
1.5444580078124999
1.6524169921874998
1.6564453124999998
2.10439453125
1.6806152343749998
1.5404296874999999
1.5090087890625
1.4920898437499999
1.5073974609374998
1.5106201171875
1.5090087890625
1.5057861328125
1.5001464843749999
1.4993408203124998
1.5218994140625
1.5009521484375
1.5057861328125
1.5799072265624998
2.13984375
1.4679199218749999
1.538818359375
1.5460693359375
1.4364990234375
1.397021484375
1.1295410156249999
1.24072265625
1.3543212890624998
1.47275390625
1.4800048828124999
1.4840332031249999
1.4848388671875
1.5396240234374998
1.529150390625
1.5412353515625
1.4961181640624999
1.4832275390624998
1.5073974609374998
1.5114257812499998
1.4767822265625
0.8830078124999999
1.6540283203125
1.5436523437499998
1.4872558593749998
1.5734619140625
1.611328125
2.03994140625
1.8739746093749998
1.5621826171875
1.49853515625
1.4953124999999998
1.509814453125
1.542041015625
1.5235107421874998
1.522705078125
1.4832275390624998
1.4783935546875
1.4928955078125
1.5146484375
1.4945068359375
1.4993408203124998
2.325146484375
1.593603515625
1.513037109375
1.5718505859374998
1.4945068359375
1.4034667968749999
1.1625732421875
1.2890625
1.2592529296875
1.4171630859375
1.4598632812499999
1.4896728515625
1.4550292968749998
1.5186767578125
1.5275390624999998
1.5194824218749998
1.533984375
1.546875
1.5315673828124998
1.5041748046874999
1.5041748046874999
0.6888427734375
1.405078125
1.5218994140625
1.46630859375
1.56298828125
1.6604736328124998
1.7692382812499998
2.2026855468749997
1.670947265625
1.5299560546875
1.513037109375
1.5106201171875
1.5154541015624998
1.4767822265625
1.52109375
1.4816162109375
1.5194824218749998
1.5428466796875
1.5073974609374998
1.5001464843749999
1.5017578125
1.7450683593749998
2.0302734375
1.4147460937499998
1.5283447265624999
1.52109375
1.3784912109374998
1.3204833984375
1.1577392578124999
1.2584472656249999
1.4074951171874999
1.474365234375
1.5033691406249998
1.4912841796874998
1.509814453125
1.5090087890625
1.5009521484375
1.5041748046874999
1.5082031249999999
1.4993408203124998
1.509814453125
1.5114257812499998
1.229443359375
0.8950927734374999
1.5670166015625
1.477587890625
1.4920898437499999
1.62744140625
1.6830322265625
2.1712646484375
1.8312744140625
1.5517089843749998
1.5267333984375
1.5275390624999998
1.5299560546875
1.52109375
1.542041015625
1.545263671875
1.5267333984375
1.525927734375
1.4510009765624998
1.46630859375
1.4928955078125
1.493701171875
2.40087890625
1.474365234375
1.56298828125
1.5218994140625
1.4066894531249998
1.368017578125
1.0981201171875
1.2334716796875
1.3261230468749998
1.445361328125
1.4332763671875
1.4679199218749999
1.5122314453124999
1.603271484375
1.4880615234374999
1.4961181640624999
1.5275390624999998
1.4912841796874998
1.522705078125
1.53720703125
1.538818359375
0.6195556640625
1.6209960937499999
1.5122314453124999
1.4864501953125
1.585546875
1.6427490234375
1.8119384765625
2.1309814453125
1.5847412109374999
1.525927734375
1.4816162109375
1.4953124999999998
1.5243164062499999
1.4791992187499998
1.509814453125
1.49853515625
1.5170654296875
1.52109375
1.51787109375
1.493701171875
1.5025634765625
2.4016845703125
1.58232421875
1.4364990234375
1.5533203125
1.4735595703125
1.3921875
1.3229003906249999
1.319677734375
1.2834228515625
1.3897705078125
1.4276367187499999
1.458251953125
1.4461669921875
1.5436523437499998
1.5299560546875
1.5251220703125
1.545263671875
1.5380126953125
1.5154541015624998
1.482421875
1.4840332031249999
0.575244140625
1.4373046875
1.60166015625
1.4832275390624998
1.5815185546875
1.6636962890625
1.66611328125
2.173681640625
1.6290527343749999
1.5525146484374999
1.5597656249999998
1.5202880859374999
1.5041748046874999
1.4977294921875
1.5251220703125
1.5194824218749998
1.496923828125
1.5283447265624999
1.5122314453124999
1.5404296874999999
1.5202880859374999
1.8546386718749999
2.0278564453125
1.4244140625
1.5009521484375
1.4920898437499999
1.3865478515624998
1.3599609375
1.16337890625
1.2560302734375
1.3527099609375
1.4316650390624999
1.4759765624999999
1.4711425781249998
1.493701171875
1.5138427734375
1.5283447265624999
1.5243164062499999
1.529150390625
1.5146484375
1.5154541015624998
1.5218994140625
1.181103515625
0.910400390625
1.6371093749999999
1.4928955078125
1.5162597656249999
1.6169677734374999
1.6435546875
2.1325927734375
1.7748779296875
1.5541259765625
1.5275390624999998
1.5170654296875
1.533984375
1.5597656249999998
1.5323730468749999
1.5396240234374998
1.52109375
1.5041748046874999
1.5082031249999999
1.5355957031249998
1.5436523437499998
1.5750732421875
2.4202148437499997
1.5025634765625
1.482421875
1.5017578125
1.4147460937499998
1.3575439453125
1.0763671875
1.248779296875
1.2777832031249998
1.4518066406249999
1.4348876953124998
1.458251953125
1.4791992187499998
1.5243164062499999
1.5243164062499999
1.538818359375
1.5154541015624998
1.5138427734375
1.522705078125
1.5275390624999998
1.493701171875
0.5687988281249999
1.53720703125
1.5251220703125
1.5033691406249998
1.577490234375
1.667724609375
1.8900878906249998
2.1462890624999997
1.6129394531249999
1.5025634765625
1.5114257812499998
1.4928955078125
1.5275390624999998
1.5033691406249998
1.4953124999999998
1.4840332031249999
1.4953124999999998
1.522705078125
1.5138427734375
1.51787109375
1.50498046875
2.11728515625
1.8957275390625
1.4542236328125
1.58232421875
1.5057861328125
1.3672119140624999
1.2189697265625
1.1754638671875
1.139208984375
1.36962890625
1.464697265625
1.5090087890625
1.4590576171874998
1.5186767578125
1.5380126953125
1.546875
1.554931640625
1.5315673828124998
1.5484863281249999
1.5637939453124998
1.5726562499999999
0.887841796875
1.1061767578125
1.5492919921875
1.456640625
1.5162597656249999
1.6975341796874999
1.6910888671875
2.230078125
1.7410400390624998
1.513037109375
1.5009521484375
1.493701171875
1.4687255859375
1.49853515625
1.5138427734375
1.5146484375
1.5170654296875
1.542041015625
1.5186767578125
1.5436523437499998
1.477587890625
1.4800048828124999
1.9682373046875
1.4655029296875
1.5541259765625
1.5839355468749998
1.3897705078125
1.3712402343749999
1.084423828125
1.24716796875
1.3631835937499999
1.4389160156249998
1.4735595703125
1.46953125
1.4711425781249998
1.5235107421874998
1.5170654296875
1.513037109375
1.5218994140625
1.5194824218749998
1.5154541015624998
1.49853515625
1.5001464843749999
0.9756591796874999
1.651611328125
1.49853515625
1.4928955078125
1.6346923828125
1.6443603515624998
1.980322265625
1.819189453125
1.56298828125
1.5186767578125
1.4993408203124998
1.5025634765625
1.5251220703125
1.5009521484375
1.5025634765625
1.50498046875
1.5017578125
1.5146484375
1.490478515625
1.5114257812499998
1.4945068359375
2.4210205078125
1.5090087890625
1.4703369140625
1.5533203125
1.4590576171874998
1.40185546875
1.2399169921875
1.255224609375
1.2737548828124998
1.4187744140624998
1.4203857421875
1.4510009765624998
1.4397216796874999
1.574267578125
1.5533203125
1.5323730468749999
1.522705078125
1.5243164062499999
1.53076171875
1.545263671875
1.52109375
0.5671875
1.561376953125
1.585546875
1.49853515625
1.5758789062499998
1.6532226562499999
1.7047851562499998
2.0939208984374997
1.585546875
1.506591796875
1.509814453125
1.5122314453124999
1.49853515625
1.4630859374999998
1.4961181640624999
1.5009521484375
1.5025634765625
1.509814453125
1.52109375
1.5235107421874998
1.5315673828124998
2.1704589843749997
1.8465820312499999
1.4284423828125
1.5734619140625
1.55009765625
1.4219970703125
1.26328125
1.1851318359375
1.203662109375
1.3220947265624998
1.4010498046875
1.46953125
1.4759765624999999
1.5484863281249999
1.5331787109375
1.5347900390625
1.529150390625
1.5347900390625
1.5541259765625
1.5645996093749999
1.5202880859374999
0.7822998046874999
1.1400146484375
1.61455078125
1.44052734375
1.5025634765625
1.6532226562499999
1.6314697265625
2.3235351562499997
1.7200927734375
1.5428466796875
1.5202880859374999
1.5057861328125
1.5243164062499999
1.5323730468749999
1.5283447265624999
1.4864501953125
1.4928955078125
1.4880615234374999
1.509814453125
1.5017578125
1.5090087890625
1.506591796875
2.354150390625
1.4042724609375
1.5154541015624998
1.5460693359375
1.41796875
1.33740234375
1.061865234375
1.2318603515625
1.351904296875
1.4510009765624998
1.46630859375
1.48564453125
1.5154541015624998
1.5533203125
1.522705078125
1.525927734375
1.5404296874999999
1.5404296874999999
1.5331787109375
1.5114257812499998
1.5025634765625
0.6171386718749999
1.6733642578124999
1.4920898437499999
1.5017578125
1.5831298828125
1.6346923828125
2.0713623046875
2.0254394531249997
1.5484863281249999
1.4816162109375
1.4848388671875
1.4896728515625
1.5323730468749999
1.506591796875
1.5146484375
1.513037109375
1.5138427734375
1.5170654296875
1.50498046875
1.506591796875
1.5041748046874999
2.3468994140625
1.5162597656249999
1.5017578125
1.571044921875
1.445361328125
1.3591552734374999
1.1666015625
1.2254150390625
1.2544189453124999
1.4115234374999999
1.4397216796874999
1.47275390625
1.4244140625
1.53720703125
1.538818359375
1.533984375
1.53720703125
1.53076171875
1.53720703125
1.53720703125
1.545263671875
0.55751953125
1.587158203125
1.5782958984375
1.4622802734375
1.5734619140625
1.6878662109375
1.735400390625
2.29775390625
1.5984375
1.5331787109375
1.5315673828124998
1.49853515625
1.5267333984375
1.4252197265625
1.46630859375
1.4574462890625
1.474365234375
1.5009521484375
1.5162597656249999
1.5138427734375
1.5186767578125
2.2034912109375
1.8417480468749998
1.4510009765624998
1.5444580078124999
1.5114257812499998
1.4195800781249999
1.3720458984375
1.1947998046875
1.1915771484375
1.3865478515624998
1.4638916015624999
1.46953125
1.477587890625
1.5428466796875
1.513037109375
1.5017578125
1.4945068359375
1.4864501953125
1.5025634765625
1.522705078125
1.5267333984375
0.768603515625
1.1158447265625
1.6218017578125
1.4735595703125
1.5243164062499999
1.66611328125
1.67578125
2.32998046875
1.7329833984374998
1.5484863281249999
1.5194824218749998
1.51787109375
1.5243164062499999
1.5355957031249998
1.5218994140625
1.5114257812499998
1.490478515625
1.496923828125
1.4896728515625
1.4735595703125
1.4816162109375
1.5041748046874999
2.360595703125
1.464697265625
1.533984375
1.546875
1.4413330078125
1.3462646484374998
1.058642578125
1.2366943359375
1.3285400390625
1.4840332031249999
1.4800048828124999
1.4606689453125
1.464697265625
1.51787109375
1.5106201171875
1.5170654296875
1.5170654296875
1.506591796875
1.4896728515625
1.509814453125
1.4888671875
0.533349609375
1.5960205078124998
1.4872558593749998
1.4953124999999998
1.6048828124999999
1.6798095703125
2.0939208984374997
2.0794189453125
1.6137451171875
1.56943359375
1.545263671875
1.5106201171875
1.5605712890624999
1.5686279296874999
1.5283447265624999
1.4550292968749998
1.4469726562499998
1.464697265625
1.4840332031249999
1.490478515625
1.49853515625
2.4129638671875
1.683837890625
1.480810546875
1.5565429687499999
1.4711425781249998
1.3905761718749998
1.155322265625
1.2189697265625
1.2818115234374998
1.4518066406249999
1.4550292968749998
1.477587890625
1.4816162109375
1.5847412109374999
1.51787109375
1.506591796875
1.529150390625
1.5106201171875
1.5090087890625
1.480810546875
1.464697265625
0.49064941406249996
1.2495849609374998
1.5718505859374998
1.47275390625
1.5509033203125
1.7055908203124999
1.786962890625
2.376708984375
1.7499023437499999
1.6000488281249998
1.509814453125
1.4356933593749999
1.5412353515625
1.4872558593749998
1.48564453125
1.5122314453124999
1.5275390624999998
1.5235107421874998
1.5041748046874999
1.5001464843749999
1.50498046875
1.6379150390625
1.8586669921874999
1.456640625
1.554931640625
1.5275390624999998
1.3156494140625
1.2431396484375
0.9732421874999999
1.1496826171874999
1.3390136718749999
1.432470703125
1.464697265625
1.4832275390624998
1.5444580078124999
1.5887695312499999
1.5718505859374998
1.6024658203125
1.5976318359375
1.5315673828124998
1.5347900390625
1.5702392578125
1.4155517578124999
1.0932861328124999
1.6395263671875
1.4961181640624999
1.4864501953125
1.6056884765625
1.6056884765625
2.1712646484375
1.7579589843749999
1.5533203125
1.5355957031249998
1.5235107421874998
1.5162597656249999
1.4896728515625
1.4848388671875
1.4783935546875
1.506591796875
1.533984375
1.506591796875
1.5444580078124999
1.5235107421874998
1.442138671875
2.3178955078125
1.4034667968749999
1.5251220703125
1.6411376953124999
1.5073974609374998
1.38896484375
1.0481689453125
1.21494140625
1.3333740234375
1.4864501953125
1.4816162109375
1.545263671875
1.5404296874999999
1.56943359375
1.4630859374999998
1.44052734375
1.4751708984374998
1.4735595703125
1.5033691406249998
1.49853515625
1.4993408203124998
0.5043457031249999
1.587158203125
1.55009765625
1.5122314453124999
1.585546875
1.6572509765624999
1.819189453125
2.080224609375
1.6153564453125
1.542041015625
1.5202880859374999
1.5025634765625
1.538818359375
1.490478515625
1.5082031249999999
1.4953124999999998
1.48564453125
1.4896728515625
1.4711425781249998
1.4397216796874999
1.4300537109375
2.47177734375
1.690283203125
1.4397216796874999
1.5984375
1.5138427734375
1.340625
1.14404296875
1.1674072265625
1.1722412109375
1.36962890625
1.4638916015624999
1.5122314453124999
1.522705078125
1.5331787109375
1.4574462890625
1.5323730468749999
1.5766845703124999
1.5331787109375
1.577490234375
1.6451660156249999
1.58232421875
0.4310302734375
1.2777832031249998
1.6653076171874999
1.4888671875
1.5033691406249998
1.6105224609375
1.6483886718749998
2.441162109375
1.7555419921875
1.5331787109375
1.4767822265625
1.4816162109375
1.5041748046874999
1.4977294921875
1.5202880859374999
1.50498046875
1.4945068359375
1.4912841796874998
1.5090087890625
1.5090087890625
1.5057861328125
1.6556396484375
2.30419921875
1.3946044921874998
1.5331787109375
1.5444580078124999
1.3728515625
1.271337890625
1.00546875
1.1303466796875
1.3688232421875
1.4590576171874998
1.4679199218749999
1.5017578125
1.4751708984374998
1.5186767578125
1.4993408203124998
1.53720703125
1.5114257812499998
1.5194824218749998
1.5106201171875
1.4590576171874998
1.2560302734375
0.5091796875
1.619384765625
1.5670166015625
1.585546875
1.6967285156249998
1.740234375
2.383154296875
2.08505859375
1.69833984375
1.635498046875
1.5428466796875
1.4816162109375
1.43408203125
1.4010498046875
1.4316650390624999
1.461474609375
1.48564453125
1.5033691406249998
1.4880615234374999
1.4679199218749999
1.43408203125
2.6482177734374996
1.4203857421875
1.5315673828124998
1.6363037109374998
1.48564453125
1.3664062499999998
0.966796875
1.200439453125
1.340625
1.5347900390625
1.5138427734375
1.4977294921875
1.5138427734375
1.5041748046874999
1.3712402343749999
1.4187744140624998
1.45341796875
1.506591796875
1.5323730468749999
1.5122314453124999
1.5347900390625
0.1893310546875
1.6129394531249999
1.5621826171875
1.5194824218749998
1.558154296875
1.714453125
1.896533203125
2.4500244140625
1.61455078125
1.5412353515625
1.5702392578125
1.546875
1.5476806640624998
1.5404296874999999
1.5839355468749998
1.49853515625
1.4364990234375
1.4276367187499999
1.448583984375
1.4655029296875
1.480810546875
2.647412109375
1.7104248046875
1.4203857421875
1.5154541015624998
1.4236083984374999
1.2898681640624998
1.2511962890625
1.1867431640625
1.1496826171874999
1.3631835937499999
1.4510009765624998
1.490478515625
1.493701171875
1.58232421875
1.5090087890625
1.4888671875
1.5009521484375
1.5001464843749999
1.513037109375
1.5283447265624999
1.5114257812499998
1.052197265625
1.200439453125
1.6234130859375
1.364794921875
1.4550292968749998
1.7490966796874998
1.8119384765625
2.5547607421875
1.79501953125
1.5927978515624999
1.5509033203125
1.5589599609375
1.6886718749999998
1.751513671875
1.585546875
1.393798828125
1.3656005859375
1.3801025390625
1.4510009765624998
1.4791992187499998
1.493701171875
1.7096191406249999
2.402490234375
1.4356933593749999
1.53076171875
1.5637939453124998
1.4598632812499999
1.4493896484375
1.0707275390625
1.04736328125
1.1609619140625
1.345458984375
1.413134765625
1.448583984375
1.4364990234375
1.5154541015624998
1.4977294921875
1.52109375
1.5984375
1.5138427734375
1.5138427734375
1.5492919921875
1.3333740234375
0.5035400390625
1.6024658203125
1.4671142578124998
1.4034667968749999
1.529150390625
1.6564453124999998
2.405712890625
2.070556640625
1.6363037109374998
1.587158203125
1.6218017578125
1.6185791015625
1.674169921875
1.606494140625
1.5460693359375
1.4961181640624999
1.4711425781249998
1.5170654296875
1.5476806640624998
1.5251220703125
1.4107177734374998
2.6997802734375
1.6572509765624999
1.554931640625
1.52109375
1.380908203125
1.268115234375
0.8612548828125
1.0771728515624999
1.0868408203125
1.4155517578124999
1.4437499999999999
1.5194824218749998
1.4840332031249999
1.5726562499999999
1.5355957031249998
1.5782958984375
1.6572509765624999
1.5428466796875
1.5090087890625
1.5654052734375
1.493701171875
0.0990966796875
1.327734375
1.5968261718749999
1.5202880859374999
1.5919921874999998
1.7507080078125
1.89169921875
2.5209228515624997
1.6878662109375
1.506591796875
1.4518066406249999
1.4389160156249998
1.4791992187499998
1.4832275390624998
1.4510009765624998
1.4711425781249998
1.5073974609374998
1.52109375
1.5275390624999998
1.5001464843749999
1.474365234375
1.9940185546875
2.296142578125
1.4880615234374999
1.53076171875
1.4526123046875
1.276171875
1.2254150390625
1.0723388671875
1.1303466796875
1.3897705078125
1.448583984375
1.458251953125
1.4477783203124999
1.5831298828125
1.5444580078124999
1.4953124999999998
1.5662109375
1.5299560546875
1.480810546875
1.4880615234374999
1.513037109375
1.0159423828125
0.7194580078124999
1.603271484375
1.37607421875
1.461474609375
1.6669189453125
1.7893798828124998
2.5193115234374996
1.9593749999999999
1.5847412109374999
1.5396240234374998
1.5396240234374998
1.6024658203125
1.5791015625
1.4945068359375
1.4501953125
1.458251953125
1.4912841796874998
1.4977294921875
1.49853515625
1.4928955078125
1.464697265625
2.31064453125
1.3382080078124998
1.4236083984374999
1.4671142578124998
1.364794921875
1.3575439453125
0.9402099609375
1.1835205078125
1.2963134765625
1.4920898437499999
1.525927734375
1.5605712890624999
1.55009765625
1.6781982421875
1.53720703125
1.4413330078125
1.426025390625
1.5235107421874998
1.5541259765625
1.574267578125
1.4848388671875
0.44230957031249996
1.5919921874999998
1.5138427734375
1.4711425781249998
1.6298583984375
1.6862548828125
2.012548828125
2.002880859375
1.5944091796875
1.51787109375
1.513037109375
1.5057861328125
1.5283447265624999
1.4542236328125
1.4896728515625
1.513037109375
1.5114257812499998
1.5243164062499999
1.5299560546875
1.4945068359375
1.477587890625
2.8270751953124997
1.66611328125
1.474365234375
1.533984375
1.4074951171874999
1.3019531249999998
0.9603515625
1.1593505859375
1.152099609375
1.3510986328124999
1.4236083984374999
1.4638916015624999
1.4268310546874998
1.5654052734375
1.5412353515625
1.5283447265624999
1.5436523437499998
1.5460693359375
1.5412353515625
1.5484863281249999
1.5380126953125
0.103125
1.3543212890624998
1.593603515625
1.474365234375
1.6000488281249998
1.7652099609374998
1.796630859375
2.4403564453124997
1.6894775390624999
1.561376953125
1.561376953125
1.5355957031249998
1.509814453125
1.4759765624999999
1.5033691406249998
1.4920898437499999
1.4961181640624999
1.533984375
1.5025634765625
1.480810546875
1.4791992187499998
2.01416015625
2.160791015625
1.42119140625
1.55009765625
1.5057861328125
1.3333740234375
1.222998046875
1.061865234375
1.0562255859375
1.2898681640624998
1.4348876953124998
1.4687255859375
1.48564453125
1.5565429687499999
1.5484863281249999
1.55009765625
1.545263671875
1.593603515625
1.5444580078124999
1.4945068359375
1.4791992187499998
0.9128173828124999
0.752490234375
1.674169921875
1.4791992187499998
1.5202880859374999
1.667724609375
1.7926025390625
2.5483154296875
1.92392578125
1.5927978515624999
1.5355957031249998
1.513037109375
1.509814453125
1.506591796875
1.490478515625
1.4703369140625
1.4413330078125
1.47275390625
1.509814453125
1.5146484375
1.53720703125
1.5009521484375
2.7739013671875
1.4268310546874998
1.50498046875
1.5509033203125
1.4606689453125
1.3180664062499998
0.878173828125
1.1351806640625
1.2592529296875
1.4171630859375
1.4300537109375
1.4679199218749999
1.456640625
1.5525146484374999
1.5428466796875
1.5444580078124999
1.5323730468749999
1.5315673828124998
1.5299560546875
1.522705078125
1.5033691406249998
0.14501953125
1.5033691406249998
1.5315673828124998
1.4953124999999998
1.606494140625
1.6669189453125
2.1277587890625
2.321923828125
1.67900390625
1.55009765625
1.522705078125
1.5082031249999999
1.5436523437499998
1.4928955078125
1.506591796875
1.4864501953125
1.5009521484375
1.4993408203124998
1.4977294921875
1.5114257812499998
1.4832275390624998
2.38154296875
1.5992431640625
1.4510009765624998
1.558154296875
1.4550292968749998
1.3188720703124999
1.158544921875
1.0771728515624999
1.1545166015625
1.3752685546874999
1.4276367187499999
1.4751708984374998
1.4389160156249998
1.55009765625
1.542041015625
1.538818359375
1.5484863281249999
1.5267333984375
1.533984375
1.5299560546875
1.496923828125
0.53818359375
1.3946044921874998
1.587158203125
1.4622802734375
1.5919921874999998
1.7700439453124999
1.8119384765625
2.6103515625
1.7088134765624998
1.5758789062499998
1.5355957031249998
1.5033691406249998
1.53720703125
1.5170654296875
1.5218994140625
1.4920898437499999
1.4912841796874998
1.4945068359375
1.48564453125
1.5041748046874999
1.4953124999999998
2.101171875
2.1309814453125
1.4147460937499998
1.522705078125
1.513037109375
1.3204833984375
1.26005859375
1.0570312499999999
1.0803955078125
1.32451171875
1.4622802734375
1.4735595703125
1.4679199218749999
1.4800048828124999
1.5299560546875
1.529150390625
1.53076171875
1.53076171875
1.4872558593749998
1.4896728515625
1.5218994140625
1.5146484375
0.7790771484375
1.6242187499999998
1.49853515625
1.554931640625
1.6894775390624999
1.72412109375
2.2727783203125
1.92392578125
1.56943359375
1.5033691406249998
1.5218994140625
1.5041748046874999
1.542041015625
1.509814453125
1.5057861328125
1.480810546875
1.493701171875
1.5106201171875
1.4912841796874998
1.49853515625
1.4953124999999998
2.7787353515624997
1.5041748046874999
1.482421875
1.5533203125
1.445361328125
1.3261230468749998
0.8709228515624999
1.13115234375
1.1939941406249999
1.4026611328124998
1.4397216796874999
1.47275390625
1.4284423828125
1.546875
1.5355957031249998
1.5235107421874998
1.5412353515625
1.51787109375
1.5275390624999998
1.5323730468749999
1.5001464843749999
0.14501953125
1.5243164062499999
1.587158203125
1.5025634765625
1.6048828124999999
1.7555419921875
1.7821289062499999
2.3468994140625
1.6725585937499998
1.5436523437499998
1.5138427734375
1.5114257812499998
1.5331787109375
1.4896728515625
1.49853515625
1.4912841796874998
1.4759765624999999
1.5001464843749999
1.4961181640624999
1.4872558593749998
1.48564453125
2.4258544921875
1.9311767578124999
1.4364990234375
1.5992431640625
1.525927734375
1.3075927734375
1.1593505859375
1.094091796875
1.1053710937499999
1.3913818359374999
1.4268310546874998
1.448583984375
1.4429443359374998
1.5702392578125
1.5364013671874999
1.5162597656249999
1.542041015625
1.5355957031249998
1.533984375
1.538818359375
1.538818359375
0.5583251953125
1.0376953125
1.6024658203125
1.4671142578124998
1.5347900390625
1.7152587890625
1.786962890625
2.5386474609375
1.82080078125
1.525927734375
1.5162597656249999
1.49853515625
1.5025634765625
1.4880615234374999
1.5194824218749998
1.5073974609374998
1.4832275390624998
1.50498046875
1.496923828125
1.5001464843749999
1.4953124999999998
1.4945068359375
2.5757080078124996
1.4147460937499998
1.5090087890625
1.538818359375
1.3398193359375
1.2785888671874999
0.903955078125
1.1335693359374999
1.313232421875
1.4477783203124999
1.4445556640625
1.45341796875
1.4912841796874998
1.5396240234374998
1.5251220703125
1.5243164062499999
1.5299560546875
1.513037109375
1.5251220703125
1.5235107421874998
1.5114257812499998
0.39719238281249997
1.6830322265625
1.52109375
1.5033691406249998
1.667724609375
1.6878662109375
2.2260498046875
2.164013671875
1.5976318359375
1.5364013671874999
1.513037109375
1.493701171875
1.529150390625
1.4993408203124998
1.50498046875
1.5017578125
1.4880615234374999
1.4953124999999998
1.4848388671875
1.4671142578124998
1.4236083984374999
2.576513671875
1.480810546875
1.4880615234374999
1.5807128906249999
1.4493896484375
1.3631835937499999
1.119873046875
1.1770751953125
1.239111328125
1.4300537109375
1.4767822265625
1.4945068359375
1.4437499999999999
1.5662109375
1.53720703125
1.5243164062499999
1.5299560546875
1.5243164062499999
1.5243164062499999
1.5380126953125
1.5001464843749999
0.348046875
1.5509033203125
1.590380859375
1.4816162109375
1.6435546875
1.7337890624999999
1.780517578125
2.1865722656249997
1.6177734375
1.5162597656249999
1.5202880859374999
1.490478515625
1.52109375
1.461474609375
1.4977294921875
1.4800048828124999
1.48564453125
1.5082031249999999
1.5090087890625
1.513037109375
1.5001464843749999
2.3074218749999997
1.85947265625
1.413134765625
1.5476806640624998
1.4735595703125
1.313232421875
1.29228515625
1.184326171875
1.17626953125
1.3704345703124998
1.45341796875
1.474365234375
1.4791992187499998
1.5218994140625
1.529150390625
1.5275390624999998
1.5315673828124998
1.5275390624999998
1.5355957031249998
1.5202880859374999
1.53076171875
0.7097900390624999
1.123095703125
1.65966796875
1.4832275390624998
1.5444580078124999
1.7007568359374998
1.6886718749999998
2.3678466796874997
1.7466796875
1.538818359375
1.4791992187499998
1.4493896484375
1.5041748046874999
1.5541259765625
1.5283447265624999
1.5057861328125
1.49853515625
1.50498046875
1.5017578125
1.5082031249999999
1.4953124999999998
1.509814453125
2.376708984375
1.458251953125
1.5082031249999999
1.546875
1.4228027343749998
1.3108154296874999
1.052197265625
1.2028564453125
1.3108154296874999
1.46630859375
1.4703369140625
1.4848388671875
1.4816162109375
1.53076171875
1.5267333984375
1.529150390625
1.545263671875
1.5218994140625
1.5428466796875
1.5235107421874998
1.4864501953125
0.5599365234375
1.6475830078125
1.5364013671874999
1.5315673828124998
1.667724609375
1.6532226562499999
2.118896484375
2.0584716796875
1.5436523437499998
1.5186767578125
1.4791992187499998
1.4977294921875
1.522705078125
1.5138427734375
1.4953124999999998
1.5082031249999999
1.4848388671875
1.5033691406249998
1.4961181640624999
1.4864501953125
1.5114257812499998
2.454052734375
1.490478515625
1.4993408203124998
1.5331787109375
1.4389160156249998
1.3744628906249998
1.1367919921875
1.224609375
1.281005859375
1.4413330078125
1.4679199218749999
1.48564453125
1.4397216796874999
1.5557373046874998
1.546875
1.5533203125
1.5202880859374999
1.5154541015624998
1.5323730468749999
1.5323730468749999
1.49853515625
0.491455078125
1.5517089843749998
1.5839355468749998
1.5154541015624998
1.59521484375
1.6798095703125
1.7619873046874999
2.14306640625
1.6072998046875
1.506591796875
1.513037109375
1.4896728515625
1.5243164062499999
1.5009521484375
1.48564453125
1.52109375
1.509814453125
1.5017578125
1.4920898437499999
1.4800048828124999
1.5057861328125
2.230078125
1.8062988281249999
1.45341796875
1.5492919921875
1.4759765624999999
1.3744628906249998
1.2221923828124999
1.198828125
1.2254150390625
1.4356933593749999
1.4671142578124998
1.4840332031249999
1.4735595703125
1.558154296875
1.5299560546875
1.5299560546875
1.5275390624999998
1.5194824218749998
1.5218994140625
1.5323730468749999
1.52109375
0.7500732421874999
1.152099609375
1.5984375
1.477587890625
1.542041015625
1.6773925781249999
1.7281494140625
2.3138671875
1.7313720703125
1.5162597656249999
1.5033691406249998
1.490478515625
1.522705078125
1.4800048828124999
1.5057861328125
1.5041748046874999
1.5001464843749999
1.5106201171875
1.5025634765625
1.4912841796874998
1.4993408203124998
1.5194824218749998
1.93359375
1.416357421875
1.5017578125
1.533984375
1.3527099609375
1.3237060546875
1.0513916015625
1.232666015625
1.3833251953124999
1.456640625
1.47275390625
1.5009521484375
1.4928955078125
1.5299560546875
1.5235107421874998
1.522705078125
1.5355957031249998
1.5251220703125
1.5275390624999998
1.5186767578125
1.493701171875
1.05380859375
1.65966796875
1.5138427734375
1.5033691406249998
1.65
1.6749755859375
2.1213134765625
1.7724609375
1.5412353515625
1.509814453125
1.4953124999999998
1.5057861328125
1.5186767578125
1.5009521484375
1.5033691406249998
1.496923828125
1.5025634765625
1.4977294921875
1.496923828125
1.50498046875
1.4920898437499999
2.40732421875
1.4759765624999999
1.4783935546875
1.53720703125
1.4356933593749999
1.3833251953124999
1.0481689453125
1.22783203125
1.3148437499999999
1.4413330078125
1.4759765624999999
1.4977294921875
1.4598632812499999
1.554931640625
1.5283447265624999
1.533984375
1.5267333984375
1.5090087890625
1.5299560546875
1.5275390624999998
1.5114257812499998
0.5518798828125
1.5573486328125
1.5815185546875
1.5009521484375
1.5919921874999998
1.6645019531249998
1.977099609375
2.1019775390624997
1.6024658203125
1.5202880859374999
1.5033691406249998
1.4888671875
1.5202880859374999
1.4888671875
1.52109375
1.5057861328125
1.4977294921875
1.5073974609374998
1.4888671875
1.4945068359375
1.4880615234374999
2.2453857421875
1.7813232421874998
1.4671142578124998
1.558154296875
1.4800048828124999
1.3712402343749999
1.190771484375
1.2495849609374998
1.2447509765625
1.4316650390624999
1.461474609375
1.4542236328125
1.461474609375
1.5597656249999998
1.5299560546875
1.533984375
1.5347900390625
1.5154541015624998
1.5218994140625
1.5218994140625
1.50498046875
0.68642578125
1.4920898437499999
1.5887695312499999
1.4848388671875
1.5460693359375
1.6943115234375
1.738623046875
2.263916015625
1.5919921874999998
1.5033691406249998
1.5202880859374999
1.4832275390624998
1.5323730468749999
1.490478515625
1.4953124999999998
1.5090087890625
1.4767822265625
1.4872558593749998
1.5025634765625
1.5073974609374998
1.4896728515625
1.5275390624999998
1.8981445312499998
1.4300537109375
1.5146484375
1.4912841796874998
1.364794921875
1.3229003906249999
1.197216796875
1.235888671875
1.4026611328124998
1.4550292968749998
1.4671142578124998
1.4816162109375
1.5057861328125
1.5299560546875
1.5323730468749999
1.545263671875
1.5331787109375
1.52109375
1.5299560546875
1.5138427734375
0.889453125
1.084423828125
1.6508056640625
1.5017578125
1.5251220703125
1.6532226562499999
1.6556396484375
2.2824462890625
1.7635986328125
1.5436523437499998
1.5001464843749999
1.4783935546875
1.4977294921875
1.522705078125
1.5082031249999999
1.5033691406249998
1.5041748046874999
1.5090087890625
1.5106201171875
1.5025634765625
1.4945068359375
1.50498046875
2.37509765625
1.490478515625
1.4928955078125
1.5267333984375
1.45341796875
1.3422363281249998
1.055419921875
1.2463623046874999
1.2979248046874998
1.4630859374999998
1.47275390625
1.4767822265625
1.4638916015624999
1.5323730468749999
1.5283447265624999
1.5251220703125
1.5243164062499999
1.525927734375
1.5267333984375
1.5243164062499999
1.5154541015624998
0.6114990234375
1.56943359375
1.538818359375
1.5082031249999999
1.5895751953125
1.6443603515624998
2.0923095703125
2.006103515625
1.5791015625
1.5090087890625
1.4993408203124998
1.496923828125
1.5162597656249999
1.4920898437499999
1.4977294921875
1.506591796875
1.5025634765625
1.5017578125
1.5009521484375
1.5082031249999999
1.4945068359375
2.247802734375
1.5202880859374999
1.4671142578124998
1.545263671875
1.4598632812499999
1.3744628906249998
1.142431640625
1.2802001953125
1.287451171875
1.4469726562499998
1.4630859374999998
1.4896728515625
1.45341796875
1.545263671875
1.538818359375
1.525927734375
1.533984375
1.525927734375
1.5299560546875
1.5218994140625
1.5194824218749998
0.6646728515625
1.5154541015624998
1.5815185546875
1.4928955078125
1.58232421875
1.687060546875
1.7603759765625
2.2671386718749997
1.5887695312499999
1.5057861328125
1.513037109375
1.4945068359375
1.5235107421874998
1.4767822265625
1.506591796875
1.49853515625
1.4961181640624999
1.496923828125
1.4993408203124998
1.4953124999999998
1.4872558593749998
2.086669921875
1.869140625
1.4147460937499998
1.5444580078124999
1.4888671875
1.3639892578125
1.3390136718749999
1.27294921875
1.2318603515625
1.3954101562499999
1.4687255859375
1.48564453125
1.4888671875
1.5073974609374998
1.5194824218749998
1.529150390625
1.522705078125
1.5170654296875
1.5275390624999998
1.529150390625
1.5122314453124999
0.8548095703124999
1.1271240234375
1.6540283203125
1.5001464843749999
1.538818359375
1.6508056640625
1.7047851562499998
2.2921142578125
1.6959228515625
1.5396240234374998
1.5114257812499998
1.4977294921875
1.4993408203124998
1.5033691406249998
1.51787109375
1.5009521484375
1.4953124999999998
1.50498046875
1.509814453125
1.5017578125
1.5017578125
1.4945068359375
2.3404541015625
1.4219970703125
1.5057861328125
1.5267333984375
1.448583984375
1.3446533203125
1.077978515625
1.2334716796875
1.3712402343749999
1.4622802734375
1.4703369140625
1.4928955078125
1.4896728515625
1.5404296874999999
1.5275390624999998
1.5243164062499999
1.5251220703125
1.5243164062499999
1.529150390625
1.5251220703125
1.5106201171875
0.623583984375
1.6395263671875
1.5243164062499999
1.50498046875
1.5766845703124999
1.6508056640625
1.9835449218749999
2.0488037109375
1.5517089843749998
1.506591796875
1.5057861328125
1.5114257812499998
1.52109375
1.5033691406249998
1.50498046875
1.5017578125
1.4920898437499999
1.49853515625
1.4977294921875
1.5017578125
1.493701171875
2.3920166015624997
1.5082031249999999
1.464697265625
1.5533203125
1.4622802734375
1.3792968749999999
1.2125244140625
1.24716796875
1.3059814453124998
1.4469726562499998
1.46630859375
1.4896728515625
1.4606689453125
1.561376953125
1.5355957031249998
1.5267333984375
1.5380126953125
1.5122314453124999
1.5243164062499999
1.522705078125
1.5041748046874999
0.578466796875
1.5202880859374999
1.5831298828125
1.4920898437499999
1.59521484375
1.7007568359374998
1.719287109375
2.0818359374999997
1.590380859375
1.51787109375
1.5146484375
1.496923828125
1.52109375
1.4751708984374998
1.493701171875
1.490478515625
1.493701171875
1.5009521484375
1.4961181640624999
1.5041748046874999
1.49853515625
2.1213134765625
1.8248291015625
1.4332763671875
1.546875
1.4888671875
1.3639892578125
1.2737548828124998
1.22138671875
1.2439453125
1.4058837890625
1.46953125
1.4791992187499998
1.4783935546875
1.545263671875
1.5299560546875
1.533984375
1.5315673828124998
1.5170654296875
1.5243164062499999
1.5218994140625
1.5186767578125
0.8725341796874999
1.1271240234375
1.6371093749999999
1.477587890625
1.5355957031249998
1.6604736328124998
1.703173828125
2.2429687499999997
1.7587646484375
1.5267333984375
1.5162597656249999
1.5082031249999999
1.5017578125
1.4928955078125
1.5009521484375
1.4977294921875
1.4961181640624999
1.5033691406249998
1.5057861328125
1.5057861328125
1.4896728515625
1.4896728515625
2.29453125
1.426025390625
1.5154541015624998
1.53720703125
1.3801025390625
1.3510986328124999
1.094091796875
1.2350830078125
1.3897705078125
1.4510009765624998
1.47275390625
1.4912841796874998
1.496923828125
1.5331787109375
1.5323730468749999
1.5218994140625
1.529150390625
1.5235107421874998
1.52109375
1.5146484375
1.4993408203124998
1.0239990234375
1.638720703125
1.5090087890625
1.50498046875
1.638720703125
1.6556396484375
1.9658203125
1.8216064453124998
1.5492919921875
1.52109375
1.4993408203124998
1.4977294921875
1.5243164062499999
1.4993408203124998
1.50498046875
1.4961181640624999
1.4920898437499999
1.5025634765625
1.496923828125
1.5017578125
1.5001464843749999
2.3654296875
1.5017578125
1.4840332031249999
1.5517089843749998
1.4477783203124999
1.400244140625
1.0916748046875
1.2528076171875
1.3092041015625
1.4510009765624998
1.4687255859375
1.4961181640624999
1.4493896484375
1.542041015625
1.533984375
1.5194824218749998
1.52109375
1.5235107421874998
1.533984375
1.5323730468749999
1.5146484375
0.6066650390625
1.525927734375
1.5654052734375
1.5009521484375
1.574267578125
1.6645019531249998
1.87236328125
2.0947265625
1.6201904296874998
1.5275390624999998
1.5057861328125
1.4961181640624999
1.5170654296875
1.496923828125
1.5041748046874999
1.496923828125
1.5033691406249998
1.5017578125
1.5041748046874999
1.49853515625
1.4977294921875
2.1301757812499997
1.8095214843749998
1.4671142578124998
1.546875
1.4888671875
1.3631835937499999
1.3043701171875
1.203662109375
1.26005859375
1.4429443359374998
1.4598632812499999
1.4840332031249999
1.4598632812499999
1.5492919921875
1.5347900390625
1.5323730468749999
1.5243164062499999
1.5218994140625
1.525927734375
1.5251220703125
1.5033691406249998
0.8483642578124999
1.164990234375
1.5887695312499999
1.4783935546875
1.53076171875
1.6693359374999999
1.703173828125
2.23974609375
1.73056640625
1.53076171875
1.509814453125
1.5001464843749999
1.5283447265624999
1.4945068359375
1.5162597656249999
1.5057861328125
1.493701171875
1.496923828125
1.5146484375
1.4953124999999998
1.50498046875
1.5114257812499998
1.90458984375
1.4308593749999998
1.5057861328125
1.5766845703124999
1.3712402343749999
1.3470703124999999
1.095703125
1.2463623046874999
1.38896484375
1.4638916015624999
1.4759765624999999
1.4880615234374999
1.4953124999999998
1.5275390624999998
1.52109375
1.5283447265624999
1.5186767578125
1.5283447265624999
1.5202880859374999
1.5186767578125
1.5122314453124999
1.0570312499999999
1.6290527343749999
1.493701171875
1.5355957031249998
1.6483886718749998
1.6524169921874998
2.0552490234375
1.7595703125
1.5355957031249998
1.5001464843749999
1.4848388671875
1.5057861328125
1.5283447265624999
1.5170654296875
1.5073974609374998
1.4896728515625
1.5009521484375
1.5122314453124999
1.496923828125
1.5017578125
1.4953124999999998
2.3396484374999997
1.5033691406249998
1.5122314453124999
1.5428466796875
1.4622802734375
1.3954101562499999
1.09248046875
1.2463623046874999
1.3092041015625
1.4638916015624999
1.4791992187499998
1.4832275390624998
1.45341796875
1.5364013671874999
1.5251220703125
1.525927734375
1.5194824218749998
1.525927734375
1.5235107421874998
1.522705078125
1.5114257812499998
0.6493652343749999
1.5509033203125
1.51787109375
1.4945068359375
1.5839355468749998
1.651611328125
1.9916015624999999
2.01416015625
1.5927978515624999
1.5186767578125
1.513037109375
1.5122314453124999
1.53076171875
1.5090087890625
1.5106201171875
1.5001464843749999
1.5017578125
1.513037109375
1.4961181640624999
1.496923828125
1.50498046875
2.1454833984375
1.55009765625
1.46953125
1.55009765625
1.4945068359375
1.3921875
1.264892578125
1.2374999999999998
1.2947021484374999
1.4373046875
1.4638916015624999
1.482421875
1.4558349609374999
1.5541259765625
1.51787109375
1.525927734375
1.5444580078124999
1.5186767578125
1.525927734375
1.5299560546875
1.52109375
0.8419189453125
1.4719482421874999
1.5621826171875
1.4751708984374998
1.53720703125
1.6669189453125
1.6878662109375
2.22041015625
1.62744140625
1.5283447265624999
1.5235107421874998
1.509814453125
1.5202880859374999
1.496923828125
1.5162597656249999
1.5025634765625
1.5001464843749999
1.4912841796874998
1.4920898437499999
1.493701171875
1.5041748046874999
1.98837890625
1.893310546875
1.445361328125
1.5235107421874998
1.4953124999999998
1.3784912109374998
1.3631835937499999
1.2350830078125
1.2584472656249999
1.3849365234375
1.4703369140625
1.4783935546875
1.4872558593749998
1.49853515625
1.5299560546875
1.5251220703125
1.5218994140625
1.5243164062499999
1.5138427734375
1.52109375
1.5114257812499998
1.00546875
1.068310546875
1.619384765625
1.493701171875
1.5154541015624998
1.6306640625
1.6411376953124999
2.20751953125
1.7595703125
1.5541259765625
1.5186767578125
1.5041748046874999
1.5090087890625
1.5299560546875
1.5194824218749998
1.5090087890625
1.5033691406249998
1.5041748046874999
1.5082031249999999
1.5041748046874999
1.4953124999999998
1.5082031249999999
2.3243408203125
1.4961181640624999
1.5218994140625
1.542041015625
1.4526123046875
1.3728515625
1.0997314453125
1.252001953125
1.319677734375
1.46630859375
1.4735595703125
1.4872558593749998
1.4912841796874998
1.5364013671874999
1.5170654296875
1.5243164062499999
1.5170654296875
1.52109375
1.5299560546875
1.5114257812499998
1.509814453125
0.6485595703125
1.606494140625
1.5106201171875
1.4993408203124998
1.5702392578125
1.6201904296874998
1.920703125
2.0471923828125
1.5702392578125
1.5218994140625
1.5073974609374998
1.5025634765625
1.5331787109375
1.5082031249999999
1.5009521484375
1.5025634765625
1.493701171875
1.5033691406249998
1.4896728515625
1.513037109375
1.5073974609374998
2.165625
1.53720703125
1.4840332031249999
1.5702392578125
1.4679199218749999
1.400244140625
1.2528076171875
1.2608642578125
1.3027587890624999
1.43408203125
1.46630859375
1.4872558593749998
1.4542236328125
1.5460693359375
1.522705078125
1.5283447265624999
1.525927734375
1.5267333984375
1.5283447265624999
1.5235107421874998
1.5122314453124999
0.6114990234375
1.48564453125
1.56943359375
1.482421875
1.5670166015625
1.6612792968749999
1.6846435546874998
2.1003662109375
1.606494140625
1.5267333984375
1.5162597656249999
1.5114257812499998
1.522705078125
1.4888671875
1.51787109375
1.5057861328125
1.4977294921875
1.513037109375
1.5017578125
1.4920898437499999
1.4945068359375
2.0181884765625
1.8755859375
1.44052734375
1.55009765625
1.50498046875
1.37607421875
1.2963134765625
1.2205810546875
1.2544189453124999
1.3833251953124999
1.4630859374999998
1.4711425781249998
1.4832275390624998
1.5251220703125
1.5275390624999998
1.522705078125
1.525927734375
1.52109375
1.5170654296875
1.5194824218749998
1.5146484375
0.9353759765624999
1.1174560546874999
1.5678222656249998
1.4840332031249999
1.525927734375
1.6185791015625
1.6959228515625
2.2196044921875
1.7337890624999999
1.5315673828124998
1.5194824218749998
1.5082031249999999
1.5235107421874998
1.50498046875
1.5162597656249999
1.5033691406249998
1.5041748046874999
1.49853515625
1.5146484375
1.5001464843749999
1.4993408203124998
1.50498046875
1.977099609375
1.4518066406249999
1.5218994140625
1.545263671875
1.3986328124999998
1.3728515625
1.100537109375
1.2447509765625
1.3728515625
1.4606689453125
1.4687255859375
1.480810546875
1.4888671875
1.5315673828124998
1.52109375
1.522705078125
1.5243164062499999
1.5235107421874998
1.522705078125
1.5283447265624999
1.5162597656249999
0.9853271484374999
1.622607421875
1.49853515625
1.5017578125
1.5984375
1.6290527343749999
1.944873046875
1.7990478515625
1.56298828125
1.5235107421874998
1.5025634765625
1.506591796875
1.529150390625
1.5073974609374998
1.5033691406249998
1.5033691406249998
1.5082031249999999
1.5073974609374998
1.506591796875
1.4961181640624999
1.5009521484375
2.3436767578124997
1.533984375
1.4864501953125
1.5380126953125
1.4735595703125
1.3921875
1.1021484375
1.2665039062499999
1.30517578125
1.4429443359374998
1.461474609375
1.4735595703125
1.4493896484375
1.53076171875
1.5251220703125
1.5218994140625
1.529150390625
1.5154541015624998
1.5323730468749999
1.525927734375
1.5114257812499998
0.631640625
1.496923828125
1.5637939453124998
1.4928955078125
1.5621826171875
1.674169921875
1.8667236328124999
2.075390625
1.6081054687499998
1.5235107421874998
1.5122314453124999
1.5041748046874999
1.5243164062499999
1.49853515625
1.50498046875
1.5025634765625
1.5025634765625
1.5057861328125
1.5033691406249998
1.4912841796874998
1.5025634765625
2.0471923828125
1.8361083984375
1.4783935546875
1.554931640625
1.4993408203124998
1.3825195312499998
1.2834228515625
1.2584472656249999
1.252001953125
1.4332763671875
1.4550292968749998
1.4800048828124999
1.4598632812499999
1.5355957031249998
1.522705078125
1.5275390624999998
1.5331787109375
1.5243164062499999
1.5114257812499998
1.5170654296875
1.5202880859374999
0.920068359375
1.4381103515625
1.5654052734375
1.4735595703125
1.525927734375
1.6765869140624998
1.69189453125
2.2260498046875
1.6161621093749998
1.5364013671874999
1.5251220703125
1.5041748046874999
1.5025634765625
1.496923828125
1.5090087890625
1.5082031249999999
1.5146484375
1.5122314453124999
1.513037109375
1.5082031249999999
1.5122314453124999
1.5009521484375
1.9408447265625
1.4445556640625
1.5057861328125
1.5090087890625
1.4010498046875
1.3672119140624999
1.203662109375
1.255224609375
1.3720458984375
1.461474609375
1.4630859374999998
1.4888671875
1.49853515625
1.5323730468749999
1.5186767578125
1.533984375
1.5154541015624998
1.5170654296875
1.513037109375
1.5073974609374998
1.116650390625
1.007080078125
1.6185791015625
1.49853515625
1.5146484375
1.6153564453125
1.6346923828125
2.1849609375
1.791796875
1.558154296875
1.5275390624999998
1.5114257812499998
1.5090087890625
1.529150390625
1.5114257812499998
1.5057861328125
1.506591796875
1.5041748046874999
1.49853515625
1.5009521484375
1.4961181640624999
1.5017578125
2.3291748046875
1.5106201171875
1.5283447265624999
1.5396240234374998
1.4590576171874998
1.3946044921874998
1.0997314453125
1.2584472656249999
1.3204833984375
1.4655029296875
1.46953125
1.4767822265625
1.4872558593749998
1.5412353515625
1.525927734375
1.5243164062499999
1.5251220703125
1.5090087890625
1.522705078125
1.51787109375
1.5138427734375
0.652587890625
1.6121337890624998
1.522705078125
1.4864501953125
1.5654052734375
1.6282470703124998
1.9182861328124998
2.0407470703125
1.5597656249999998
1.5251220703125
1.5122314453124999
1.4977294921875
1.5364013671874999
1.5073974609374998
1.5194824218749998
1.5073974609374998
1.5017578125
1.50498046875
1.5082031249999999
1.4961181640624999
1.496923828125
2.0971435546875
1.5517089843749998
1.4791992187499998
1.5573486328125
1.480810546875
1.3873535156249999
1.2753662109375
1.2697265624999998
1.303564453125
1.4373046875
1.4590576171874998
1.4872558593749998
1.461474609375
1.5509033203125
1.529150390625
1.52109375
1.53076171875
1.5162597656249999
1.5138427734375
1.522705078125
1.5122314453124999
0.6251953124999999
1.4590576171874998
1.5726562499999999
1.4767822265625
1.554931640625
1.6685302734374998
1.6862548828125
2.1205078125
1.6411376953124999
1.533984375
1.5243164062499999
1.50498046875
1.5202880859374999
1.4945068359375
1.513037109375
1.5001464843749999
1.4977294921875
1.50498046875
1.5082031249999999
1.50498046875
1.5017578125
1.9432617187499999
1.9005615234375
1.4437499999999999
1.546875
1.5138427734375
1.384130859375
1.316455078125
1.2141357421874999
1.2479736328125
1.3905761718749998
1.4590576171874998
1.4751708984374998
1.4759765624999999
1.5323730468749999
1.525927734375
1.522705078125
1.5218994140625
1.5170654296875
1.5315673828124998
1.52109375
1.513037109375
1.0812011718749999
1.044140625
1.6201904296874998
1.474365234375
1.5146484375
1.6209960937499999
1.6773925781249999
2.151123046875
1.8014648437499998
1.5573486328125
1.529150390625
1.5057861328125
1.5114257812499998
1.5122314453124999
1.5170654296875
1.496923828125
1.4953124999999998
1.50498046875
1.5154541015624998
1.496923828125
1.5057861328125
1.49853515625
2.31064453125
1.4542236328125
1.5090087890625
1.5492919921875
1.40185546875
1.3736572265625
1.1013427734374999
1.2753662109375
1.368017578125
1.46630859375
1.4558349609374999
1.4840332031249999
1.4896728515625
1.529150390625
1.5251220703125
1.5275390624999998
1.5299560546875
1.51787109375
1.5243164062499999
1.5355957031249998
1.5001464843749999
0.66064453125
1.6040771484374998
1.496923828125
1.4953124999999998
1.5944091796875
1.61455078125
1.85625
2.0496093749999997
1.5678222656249998
1.5251220703125
1.5017578125
1.4993408203124998
1.5380126953125
1.506591796875
1.5106201171875
1.49853515625
1.509814453125
1.5170654296875
1.4993408203124998
1.50498046875
1.50498046875
2.3275634765624997
1.5605712890624999
1.4816162109375
1.546875
1.4679199218749999
1.4026611328124998
1.2898681640624998
1.2753662109375
1.2914794921875
1.43408203125
1.445361328125
1.4872558593749998
1.456640625
1.5460693359375
1.525927734375
1.525927734375
1.525927734375
1.522705078125
1.5235107421874998
1.51787109375
1.5090087890625
0.64775390625
1.4719482421874999
1.5565429687499999
1.4912841796874998
1.5654052734375
1.66611328125
1.8119384765625
2.0947265625
1.6306640625
1.5315673828124998
1.5090087890625
1.5082031249999999
1.5186767578125
1.5017578125
1.509814453125
1.4977294921875
1.5001464843749999
1.506591796875
1.496923828125
1.49853515625
1.5090087890625
1.9432617187499999
1.8868652343749999
1.4679199218749999
1.545263671875
1.5073974609374998
1.3849365234375
1.3156494140625
1.2205810546875
1.2592529296875
1.4244140625
1.4542236328125
1.4735595703125
1.4679199218749999
1.5267333984375
1.5299560546875
1.5299560546875
1.5283447265624999
1.51787109375
1.5243164062499999
1.5194824218749998
1.5090087890625
1.0852294921874999
1.3784912109374998
1.5750732421875
1.4759765624999999
1.506591796875
1.65966796875
1.6725585937499998
2.1422607421874997
1.6636962890625
1.5380126953125
1.522705078125
1.5122314453124999
1.5235107421874998
1.509814453125
1.4953124999999998
1.509814453125
1.4977294921875
1.5025634765625
1.5033691406249998
1.5114257812499998
1.506591796875
1.4977294921875
1.9948242187499998
1.4558349609374999
1.5162597656249999
1.5162597656249999
1.4107177734374998
1.3784912109374998
1.1698242187499999
1.252001953125
1.37607421875
1.4542236328125
1.47275390625
1.4791992187499998
1.490478515625
1.522705078125
1.522705078125
1.51787109375
1.51787109375
1.5243164062499999
1.5154541015624998
1.529150390625
1.2568359375
0.9474609374999999
1.6024658203125
1.5090087890625
1.5057861328125
1.58232421875
1.62744140625
2.1003662109375
1.8385253906249999
1.56943359375
1.5243164062499999
1.509814453125
1.5090087890625
1.5380126953125
1.509814453125
1.5138427734375
1.5090087890625
1.496923828125
1.5033691406249998
1.5033691406249998
1.5017578125
1.5009521484375
2.3154785156249997
1.5476806640624998
1.5194824218749998
1.554931640625
1.4791992187499998
1.3946044921874998
1.1287353515625
1.271337890625
1.3043701171875
1.445361328125
1.4590576171874998
1.4800048828124999
1.4687255859375
1.5396240234374998
1.5218994140625
1.5267333984375
1.5347900390625
1.52109375
1.5162597656249999
1.5186767578125
1.5041748046874999
0.64775390625
1.5799072265624998
1.53720703125
1.4953124999999998
1.5686279296874999
1.6056884765625
1.7853515624999998
