1.53720703125
1.67900390625
1.941650390625
1.9343994140624998
1.590380859375
1.529150390625
1.5251220703125
1.5162597656249999
1.533984375
1.5146484375
1.5202880859374999
1.5073974609374998
1.5041748046874999
1.5082031249999999
1.5106201171875
1.4912841796874998
1.5017578125
1.8989501953124999
1.58232421875
1.4864501953125
1.5565429687499999
1.509814453125
1.4228027343749998
1.3156494140625
1.2858398437499998
1.3229003906249999
1.4300537109375
1.456640625
1.4751708984374998
1.4590576171874998
1.509814453125
1.5041748046874999
1.5082031249999999
1.5186767578125
1.51787109375
1.5146484375
1.51787109375
1.5106201171875
1.045751953125
1.4316650390624999
1.5597656249999998
1.477587890625
1.5355957031249998
1.6298583984375
1.6540283203125
2.112451171875
1.6137451171875
1.5436523437499998
1.5170654296875
1.5170654296875
1.52109375
1.5154541015624998
1.525927734375
1.5082031249999999
1.506591796875
1.5122314453124999
1.5073974609374998
1.5162597656249999
1.5017578125
1.7934082031249998
1.8731689453125
1.4751708984374998
1.5404296874999999
1.5033691406249998
1.429248046875
1.3986328124999998
1.32451171875
1.2584472656249999
1.3986328124999998
1.46630859375
1.4751708984374998
1.4751708984374998
1.4759765624999999
1.5082031249999999
1.5106201171875
1.5202880859374999
1.5146484375
1.513037109375
1.5218994140625
1.5057861328125
1.1722412109375
1.1061767578125
1.587158203125
1.4928955078125
1.4977294921875
1.5863525390625
1.6306640625
2.1084228515625
1.716064453125
1.5678222656249998
1.5170654296875
1.5170654296875
1.5138427734375
1.525927734375
1.5299560546875
1.513037109375
1.5001464843749999
1.5154541015624998
1.513037109375
1.5001464843749999
1.5041748046874999
1.5057861328125
2.1664306640624997
1.4735595703125
1.5251220703125
1.5404296874999999
1.477587890625
1.4155517578124999
1.1819091796874999
1.287451171875
1.3873535156249999
1.458251953125
1.4630859374999998
1.4864501953125
1.464697265625
1.5162597656249999
1.509814453125
1.525927734375
1.5114257812499998
1.513037109375
1.5106201171875
1.5146484375
1.5057861328125
0.78955078125
1.5839355468749998
1.5154541015624998
1.4896728515625
1.5734619140625
1.5984375
1.9714599609374999
1.8925048828125
1.5637939453124998
1.5275390624999998
1.5267333984375
1.5138427734375
1.538818359375
1.5114257812499998
1.5194824218749998
1.5033691406249998
1.5041748046874999
1.51787109375
1.50498046875
1.4977294921875
1.5057861328125
2.18818359375
1.5436523437499998
1.5114257812499998
1.5404296874999999
1.4888671875
1.4244140625
1.2640869140625
1.284228515625
1.3285400390625
1.44052734375
1.4783935546875
1.4832275390624998
1.45341796875
1.5146484375
1.5138427734375
1.513037109375
1.5146484375
1.5082031249999999
1.5106201171875
1.5186767578125
1.5041748046874999
0.7758544921874999
1.4961181640624999
1.5605712890624999
1.490478515625
1.5331787109375
1.6201904296874998
1.977099609375
1.9086181640625
1.58232421875
1.5404296874999999
1.5299560546875
1.52109375
1.5202880859374999
1.50498046875
1.522705078125
1.5033691406249998
1.5057861328125
1.506591796875
1.5122314453124999
1.5090087890625
1.4928955078125
1.94970703125
1.7829345703125
1.4880615234374999
1.5565429687499999
1.4977294921875
1.4203857421875
1.2987304687499999
1.3092041015625
1.2834228515625
1.43408203125
1.4606689453125
1.4687255859375
1.4526123046875
1.5170654296875
1.506591796875
1.5243164062499999
1.5114257812499998
1.5122314453124999
1.513037109375
1.5114257812499998
1.5073974609374998
1.003857421875
1.2012451171875
1.5678222656249998
1.4783935546875
1.5138427734375
1.6266357421875
1.658056640625
2.1003662109375
1.670947265625
1.5355957031249998
1.5267333984375
1.5186767578125
1.5218994140625
1.5082031249999999
1.5251220703125
1.5122314453124999
1.506591796875
1.5082031249999999
1.5154541015624998
1.4993408203124998
1.5082031249999999
1.509814453125
1.8344970703124999
1.4719482421874999
1.5243164062499999
1.5122314453124999
1.426025390625
1.3825195312499998
1.1786865234375
1.2834228515625
1.4010498046875
1.4630859374999998
1.4655029296875
1.4759765624999999
1.4872558593749998
1.5162597656249999
1.5114257812499998
1.5186767578125
1.5114257812499998
1.5186767578125
1.5235107421874998
1.5267333984375
1.4840332031249999
1.1754638671875
1.60166015625
1.496923828125
1.5073974609374998
1.5847412109374999
1.6185791015625
2.08505859375
1.651611328125
1.5517089843749998
1.533984375
1.5090087890625
1.5146484375
1.5396240234374998
1.5170654296875
1.5057861328125
1.513037109375
1.50498046875
1.51787109375
1.5033691406249998
1.50498046875
1.5138427734375
2.1567626953125
1.509814453125
1.525927734375
1.538818359375
1.4800048828124999
1.4276367187499999
1.1657958984374999
1.2826171874999999
1.3494873046875
1.4598632812499999
1.4711425781249998
1.4848388671875
1.4590576171874998
1.5170654296875
1.509814453125
1.509814453125
1.5090087890625
1.5186767578125
1.5154541015624998
1.5170654296875
1.5114257812499998
0.8096923828125
1.5267333984375
1.5017578125
1.4848388671875
1.546875
1.5976318359375
1.899755859375
1.9263427734374998
1.5992431640625
1.5275390624999998
1.5154541015624998
1.51787109375
1.5436523437499998
1.513037109375
1.5162597656249999
1.4993408203124998
1.50498046875
1.513037109375
1.5057861328125
1.5082031249999999
1.4993408203124998
2.0818359374999997
1.53720703125
1.5218994140625
1.5428466796875
1.4832275390624998
1.4252197265625
1.252001953125
1.3083984375
1.3333740234375
1.4501953125
1.4598632812499999
1.4912841796874998
1.4518066406249999
1.5251220703125
1.5122314453124999
1.5162597656249999
1.5194824218749998
1.5033691406249998
1.5218994140625
1.506591796875
1.5154541015624998
0.8451416015625
1.525927734375
1.5557373046874998
1.4864501953125
1.5492919921875
1.6105224609375
1.7096191406249999
2.0552490234375
1.585546875
1.529150390625
1.5202880859374999
1.5090087890625
1.5202880859374999
1.50498046875
1.53076171875
1.5073974609374998
1.5041748046874999
1.5146484375
1.50498046875
1.5025634765625
1.5041748046874999
2.0085205078125
1.7507080078125
1.46630859375
1.542041015625
1.4953124999999998
1.4074951171874999
1.3768798828125
1.2963134765625
1.2890625
1.4171630859375
1.4550292968749998
1.482421875
1.4759765624999999
1.4961181640624999
1.52109375
1.529150390625
1.529150390625
1.5162597656249999
1.5082031249999999
1.5114257812499998
1.5073974609374998
0.9877441406249999
1.213330078125
1.5847412109374999
1.4751708984374998
1.5122314453124999
1.6153564453125
1.6669189453125
2.0826416015625
1.69189453125
1.561376953125
1.5315673828124998
1.5138427734375
1.51787109375
1.5082031249999999
1.5299560546875
1.5170654296875
1.4977294921875
1.5114257812499998
1.5090087890625
1.5082031249999999
1.5154541015624998
1.5275390624999998
2.09150390625
1.4655029296875
1.5267333984375
1.53720703125
1.4155517578124999
1.3857421875
1.1778808593749999
1.2882568359375
1.4034667968749999
1.4655029296875
1.4679199218749999
1.480810546875
1.4920898437499999
1.5033691406249998
1.5082031249999999
1.5218994140625
1.5186767578125
1.5122314453124999
1.5186767578125
1.5202880859374999
1.4840332031249999
0.8693115234375
1.5984375
1.490478515625
1.4888671875
1.60166015625
1.61455078125
1.957763671875
1.8683349609375
1.5557373046874998
1.5396240234374998
1.5154541015624998
1.5154541015624998
1.533984375
1.5202880859374999
1.513037109375
1.5057861328125
1.5009521484375
1.5082031249999999
1.5146484375
1.5033691406249998
1.493701171875
2.14306640625
1.5057861328125
1.522705078125
1.529150390625
1.477587890625
1.429248046875
1.203662109375
1.2721435546875
1.3623779296874998
1.4373046875
1.4687255859375
1.4872558593749998
1.4590576171874998
1.525927734375
1.5073974609374998
1.5090087890625
1.51787109375
1.5154541015624998
1.5299560546875
1.5146484375
1.5025634765625
0.8427246093749999
1.5436523437499998
1.546875
1.480810546875
1.5597656249999998
1.6056884765625
1.719287109375
1.8868652343749999
1.5847412109374999
1.5444580078124999
1.5154541015624998
1.5170654296875
1.525927734375
1.5235107421874998
1.5154541015624998
1.506591796875
1.493701171875
1.509814453125
1.5114257812499998
1.5033691406249998
1.5033691406249998
2.101171875
1.670947265625
1.5186767578125
1.5428466796875
1.4896728515625
1.4034667968749999
1.2737548828124998
1.2947021484374999
1.3124267578125
1.4477783203124999
1.4558349609374999
1.4759765624999999
1.4679199218749999
1.522705078125
1.5057861328125
1.5138427734375
1.5186767578125
1.5057861328125
1.5218994140625
1.51787109375
1.513037109375
0.8596435546875
1.3229003906249999
1.5565429687499999
1.4872558593749998
1.52109375
1.6048828124999999
1.6733642578124999
2.0697509765624997
1.6685302734374998
1.5347900390625
1.5267333984375
1.522705078125
1.5275390624999998
1.506591796875
1.52109375
1.5122314453124999
1.4977294921875
1.513037109375
1.5114257812499998
1.5090087890625
1.5106201171875
1.6266357421875
1.7208984374999998
1.4735595703125
1.5380126953125
1.4920898437499999
1.4010498046875
1.3736572265625
1.20849609375
1.300341796875
1.4074951171874999
1.4590576171874998
1.474365234375
1.4711425781249998
1.4945068359375
1.5154541015624998
1.5138427734375
1.5154541015624998
1.513037109375
1.513037109375
1.522705078125
1.5170654296875
1.416357421875
1.2697265624999998
1.5887695312499999
1.4961181640624999
1.5090087890625
1.6129394531249999
1.6209960937499999
2.0858642578124997
1.6927001953124998
1.5517089843749998
1.5355957031249998
1.5194824218749998
1.5186767578125
1.529150390625
1.5218994140625
1.5090087890625
1.49853515625
1.52109375
1.5122314453124999
1.5073974609374998
1.5082031249999999
1.5509033203125
2.0560546875
1.4840332031249999
1.53076171875
1.538818359375
1.45341796875
1.3921875
1.17626953125
1.281005859375
1.3607666015625
1.4711425781249998
1.4735595703125
1.493701171875
1.4977294921875
1.506591796875
1.5057861328125
1.5162597656249999
1.5146484375
1.5162597656249999
1.5235107421874998
1.5114257812499998
1.461474609375
0.8999267578125
1.561376953125
1.4872558593749998
1.4912841796874998
1.558154296875
1.6153564453125
1.9754882812499999
1.8441650390625
1.5831298828125
1.533984375
1.5090087890625
1.513037109375
1.5380126953125
1.5186767578125
1.509814453125
1.5082031249999999
1.5122314453124999
1.513037109375
1.5017578125
1.506591796875
1.5057861328125
2.183349609375
1.4896728515625
1.533984375
1.5492919921875
1.4679199218749999
1.42119140625
1.219775390625
1.2955078125
1.3607666015625
1.4550292968749998
1.4638916015624999
1.48564453125
1.458251953125
1.5202880859374999
1.5114257812499998
1.5202880859374999
1.5114257812499998
1.5170654296875
1.5162597656249999
1.5162597656249999
1.5082031249999999
0.79921875
1.55009765625
1.533984375
1.4888671875
1.5509033203125
1.5968261718749999
1.7184814453125
2.044775390625
1.5984375
1.5283447265624999
1.5243164062499999
1.5186767578125
1.5251220703125
1.5114257812499998
1.513037109375
1.496923828125
1.513037109375
1.5243164062499999
1.506591796875
1.506591796875
1.5025634765625
2.1503173828124997
1.6330810546874999
1.4630859374999998
1.5460693359375
1.496923828125
1.405078125
1.3462646484374998
1.2769775390625
1.300341796875
1.4115234374999999
1.4630859374999998
1.4840332031249999
1.46953125
1.51787109375
1.5122314453124999
1.5186767578125
1.51787109375
1.5235107421874998
1.5202880859374999
1.5162597656249999
1.5138427734375
0.8354736328125
1.3825195312499998
1.5726562499999999
1.4832275390624998
1.5396240234374998
1.6322753906249998
1.6620849609375
2.0890869140625
1.6685302734374998
1.529150390625
1.5057861328125
1.506591796875
1.5041748046874999
1.49853515625
1.5138427734375
1.5057861328125
1.5057861328125
1.5073974609374998
1.509814453125
1.5017578125
1.4977294921875
1.6975341796874999
1.9215087890625
1.4767822265625
1.5444580078124999
1.5267333984375
1.4381103515625
1.3510986328124999
1.1996337890625
1.2882568359375
1.4042724609375
1.4598632812499999
1.4735595703125
1.4759765624999999
1.5033691406249998
1.4993408203124998
1.5033691406249998
1.5186767578125
1.51787109375
1.5275390624999998
1.5275390624999998
1.51787109375
1.2302490234374999
1.071533203125
1.5766845703124999
1.5009521484375
1.5057861328125
1.5879638671874998
1.6298583984375
2.0947265625
1.7426513671875
1.5533203125
1.5235107421874998
1.4864501953125
1.5154541015624998
1.525927734375
1.513037109375
1.51787109375
1.5057861328125
1.5073974609374998
1.5114257812499998
1.5001464843749999
1.4961181640624999
1.4864501953125
1.98193359375
1.46953125
1.5243164062499999
1.609716796875
1.4590576171874998
1.4316650390624999
1.1835205078125
1.2890625
1.3607666015625
1.4518066406249999
1.4711425781249998
1.4598632812499999
1.4501953125
1.4961181640624999
1.5170654296875
1.5243164062499999
1.51787109375
1.5243164062499999
1.5380126953125
1.5251220703125
1.5218994140625
0.9482666015625
1.5645996093749999
1.4977294921875
1.4912841796874998
1.5815185546875
1.60166015625
1.80791015625
1.84013671875
1.5887695312499999
1.5436523437499998
1.5146484375
1.5017578125
1.5194824218749998
1.5017578125
1.4977294921875
1.5025634765625
1.49853515625
1.5122314453124999
1.5114257812499998
1.5090087890625
1.5114257812499998
2.2131591796875
1.5557373046874998
1.5251220703125
1.5444580078124999
1.480810546875
1.4058837890625
1.1722412109375
1.281005859375
1.3075927734375
1.4429443359374998
1.4574462890625
1.4864501953125
1.4840332031249999
1.5364013671874999
1.5170654296875
1.4961181640624999
1.4872558593749998
1.4945068359375
1.509814453125
1.525927734375
1.5404296874999999
0.7855224609375
1.4767822265625
1.5605712890624999
1.5170654296875
1.5517089843749998
1.6363037109374998
1.7797119140625
2.0278564453125
1.6153564453125
1.545263671875
1.5331787109375
1.5218994140625
1.5073974609374998
1.4759765624999999
1.4864501953125
1.490478515625
1.509814453125
1.5194824218749998
1.51787109375
1.4993408203124998
1.50498046875
1.9013671875
1.6209960937499999
1.5001464843749999
1.5557373046874998
1.52109375
1.40185546875
1.3285400390625
1.2503906249999999
1.3333740234375
1.4356933593749999
1.464697265625
1.482421875
1.4679199218749999
1.5218994140625
1.4791992187499998
1.4687255859375
1.477587890625
1.474365234375
1.4687255859375
1.496923828125
1.52109375
1.0868408203125
1.4373046875
1.587158203125
1.4993408203124998
1.4751708984374998
1.6508056640625
1.6725585937499998
2.118896484375
1.6475830078125
1.5557373046874998
1.533984375
1.5218994140625
1.50498046875
1.4912841796874998
1.5194824218749998
1.5218994140625
1.5380126953125
1.506591796875
1.4880615234374999
1.4953124999999998
1.5017578125
1.8111328125
1.9110351562499999
1.4767822265625
1.5347900390625
1.55009765625
1.4558349609374999
1.3946044921874998
1.16337890625
1.222998046875
1.3261230468749998
1.4147460937499998
1.4501953125
1.4622802734375
1.4872558593749998
1.5057861328125
1.5412353515625
1.5428466796875
1.53720703125
1.533984375
1.545263671875
1.546875
1.2125244140625
1.0973144531249999
1.6161621093749998
1.4977294921875
1.4920898437499999
1.5807128906249999
1.585546875
2.0923095703125
1.7595703125
1.554931640625
1.50498046875
1.4816162109375
1.496923828125
1.5243164062499999
1.49853515625
1.5073974609374998
1.4961181640624999
1.5186767578125
1.5275390624999998
1.5186767578125
1.5202880859374999
1.5444580078124999
2.2953369140624997
1.5847412109374999
1.5380126953125
1.5347900390625
1.4655029296875
1.3986328124999998
1.1432373046875
1.2802001953125
1.3100097656249998
1.4461669921875
1.4622802734375
1.4703369140625
1.4550292968749998
1.4912841796874998
1.4912841796874998
1.5073974609374998
1.5186767578125
1.5114257812499998
1.5114257812499998
1.52109375
1.5251220703125
0.7412109375
1.5154541015624998
1.482421875
1.4703369140625
1.5331787109375
1.6161621093749998
1.8747802734374999
1.9907958984374998
1.622607421875
1.5073974609374998
1.506591796875
1.4920898437499999
1.5267333984375
1.50498046875
1.5162597656249999
1.513037109375
1.5251220703125
1.52109375
1.5186767578125
1.5114257812499998
1.5146484375
2.11728515625
1.7660156249999999
1.5404296874999999
1.5839355468749998
1.4961181640624999
1.4195800781249999
1.2785888671874999
1.2334716796875
1.2560302734375
1.364794921875
1.3897705078125
1.4389160156249998
1.448583984375
1.5364013671874999
1.5170654296875
1.5218994140625
1.5509033203125
1.5355957031249998
1.546875
1.5533203125
1.5275390624999998
0.8950927734374999
1.2568359375
1.55009765625
1.4848388671875
1.5460693359375
1.606494140625
1.6564453124999998
2.147900390625
1.67578125
1.4993408203124998
1.513037109375
1.50498046875
1.53720703125
1.4993408203124998
1.5146484375
1.49853515625
1.5090087890625
1.5162597656249999
1.51787109375
1.5114257812499998
1.5090087890625
1.545263671875
1.8006591796875
1.4687255859375
1.5162597656249999
1.5718505859374998
1.4034667968749999
1.3583496093749998
1.126318359375
1.2802001953125
1.3954101562499999
1.4735595703125
1.4703369140625
1.461474609375
1.5025634765625
1.5299560546875
1.5525146484374999
1.5275390624999998
1.5025634765625
1.5057861328125
1.5460693359375
1.5194824218749998
1.4622802734375
1.1061767578125
1.5670166015625
1.480810546875
1.4832275390624998
1.5879638671874998
1.6242187499999998
1.998046875
1.735400390625
1.5605712890624999
1.538818359375
1.52109375
1.522705078125
1.53076171875
1.5033691406249998
1.4912841796874998
1.4912841796874998
1.4953124999999998
1.50498046875
1.53720703125
1.5380126953125
1.546875
2.2276611328125
1.4977294921875
1.5355957031249998
1.5605712890624999
1.477587890625
1.4171630859375
1.2286376953125
1.3083984375
1.34384765625
1.4219970703125
1.416357421875
1.4477783203124999
1.4115234374999999
1.4888671875
1.5033691406249998
1.5041748046874999
1.51787109375
1.5146484375
1.525927734375
1.5017578125
1.5090087890625
0.75732421875
1.546875
1.542041015625
1.4791992187499998
1.5758789062499998
1.6169677734374999
1.740234375
1.9746826171874998
1.6161621093749998
1.545263671875
1.5202880859374999
1.4888671875
1.5073974609374998
1.48564453125
1.4888671875
1.4896728515625
1.5057861328125
1.5218994140625
1.52109375
1.51787109375
1.5202880859374999
2.230078125
1.6669189453125
1.4711425781249998
1.5323730468749999
1.5033691406249998
1.432470703125
1.3583496093749998
1.2826171874999999
1.284228515625
1.38896484375
1.4518066406249999
1.4783935546875
1.480810546875
1.5645996093749999
1.5726562499999999
1.5114257812499998
1.4872558593749998
1.513037109375
1.5412353515625
1.50498046875
1.4703369140625
0.7154296874999999
1.2963134765625
1.5678222656249998
1.4759765624999999
1.5275390624999998
1.6443603515624998
1.6781982421875
2.152734375
1.69833984375
1.5525146484374999
1.52109375
1.496923828125
1.4840332031249999
1.4767822265625
1.4711425781249998
1.474365234375
1.4800048828124999
1.5299560546875
1.529150390625
1.5186767578125
1.513037109375
1.6854492187499999
2.075390625
1.53720703125
1.5799072265624998
1.5597656249999998
1.4945068359375
1.4228027343749998
1.18916015625
1.229443359375
1.30517578125
1.4276367187499999
1.456640625
1.464697265625
1.4832275390624998
1.4920898437499999
1.4928955078125
1.5017578125
1.4872558593749998
1.490478515625
1.4848388671875
1.41796875
1.2802001953125
0.8902587890625
1.6105224609375
1.5170654296875
1.5251220703125
1.603271484375
1.6959228515625
2.128564453125
1.9037841796875
1.6475830078125
1.5807128906249999
1.6056884765625
1.6008544921874999
1.55009765625
1.4542236328125
1.426025390625
1.4510009765624998
1.4759765624999999
1.4872558593749998
1.4800048828124999
1.474365234375
1.493701171875
2.3195068359374997
1.4880615234374999
1.5355957031249998
1.5557373046874998
1.4542236328125
1.4228027343749998
1.1593505859375
1.2584472656249999
1.35673828125
1.4655029296875
1.4687255859375
1.4703369140625
1.4638916015624999
1.5218994140625
1.482421875
1.48564453125
1.4791992187499998
1.4928955078125
1.5235107421874998
1.522705078125
1.51787109375
0.6614501953124999
1.5976318359375
1.525927734375
1.4816162109375
1.538818359375
1.6363037109374998
1.8014648437499998
2.1076171875
1.5726562499999999
1.52109375
1.5090087890625
1.509814453125
1.5154541015624998
1.4945068359375
1.5355957031249998
1.5186767578125
1.5202880859374999
1.50498046875
1.506591796875
1.5033691406249998
1.506591796875
2.3291748046875
1.6177734375
1.496923828125
1.574267578125
1.5484863281249999
1.4203857421875
1.3148437499999999
1.2495849609374998
1.2987304687499999
1.432470703125
1.4364990234375
1.4510009765624998
1.4244140625
1.4912841796874998
1.4912841796874998
1.5033691406249998
1.5138427734375
1.5033691406249998
1.5162597656249999
1.4993408203124998
1.5057861328125
0.6743408203125
1.393798828125
1.546875
1.448583984375
1.53720703125
1.6572509765624999
1.69833984375
2.1358154296875
1.6894775390624999
1.574267578125
1.5243164062499999
1.522705078125
1.5573486328125
1.561376953125
1.533984375
1.5106201171875
1.5082031249999999
1.5114257812499998
1.4219970703125
1.4469726562499998
1.4848388671875
1.7942138671874999
1.9021728515624998
1.4655029296875
1.5702392578125
1.542041015625
1.44052734375
1.3623779296874998
1.222998046875
1.3188720703124999
1.5090087890625
1.5444580078124999
1.4630859374999998
1.4219970703125
1.4518066406249999
1.482421875
1.4961181640624999
1.4751708984374998
1.4928955078125
1.525927734375
1.5009521484375
1.464697265625
1.14404296875
0.9974121093749999
1.5968261718749999
1.456640625
1.4493896484375
1.51787109375
1.658056640625
2.14306640625
1.82724609375
1.6105224609375
1.5927978515624999
1.6056884765625
1.5750732421875
1.5218994140625
1.513037109375
1.5726562499999999
1.58232421875
1.5605712890624999
1.542041015625
1.4912841796874998
1.4308593749999998
1.4308593749999998
2.260693359375
1.4590576171874998
1.5283447265624999
1.53720703125
1.464697265625
1.3736572265625
1.11181640625
1.26005859375
1.35673828125
1.4429443359374998
1.426025390625
1.45341796875
1.46953125
1.5170654296875
1.5170654296875
1.5170654296875
1.51787109375
1.5364013671874999
1.5299560546875
1.5283447265624999
1.5315673828124998
0.6590332031249999
1.5637939453124998
1.4719482421874999
1.4493896484375
1.522705078125
1.63388671875
1.8755859375
2.064111328125
1.5637939453124998
1.5162597656249999
1.5162597656249999
1.506591796875
1.5597656249999998
1.5364013671874999
1.5533203125
1.4880615234374999
1.48564453125
1.482421875
1.4671142578124998
1.4800048828124999
1.4977294921875
2.1825439453124997
1.5879638671874998
1.5275390624999998
1.5621826171875
1.4953124999999998
1.4381103515625
1.297119140625
1.2906738281249999
1.335791015625
1.4912841796874998
1.5146484375
1.442138671875
1.345458984375
1.4671142578124998
1.482421875
1.4993408203124998
1.5154541015624998
1.5082031249999999
1.49853515625
1.4880615234374999
1.48564453125
0.6195556640625
1.48564453125
1.5525146484374999
1.4751708984374998
1.5597656249999998
1.6524169921874998
1.719287109375
2.1100341796874997
1.6693359374999999
1.585546875
1.5283447265624999
1.4920898437499999
1.5073974609374998
1.5041748046874999
1.5194824218749998
1.5009521484375
1.4864501953125
1.480810546875
1.4880615234374999
1.496923828125
1.50498046875
2.0302734375
1.8256347656249998
1.4719482421874999
1.5525146484374999
1.51787109375
1.4171630859375
1.3261230468749998
1.2536132812499998
1.3019531249999998
1.3913818359374999
1.432470703125
1.4896728515625
1.4928955078125
1.5033691406249998
1.4791992187499998
1.50498046875
1.4977294921875
1.4671142578124998
1.442138671875
1.46953125
1.5138427734375
0.9305419921875
1.1416259765624999
1.6201904296874998
1.4397216796874999
1.4888671875
1.6161621093749998
1.7152587890625
2.26875
1.8304687499999999
1.590380859375
1.5082031249999999
1.49853515625
1.5082031249999999
1.55009765625
1.6040771484374998
1.5267333984375
1.5275390624999998
1.461474609375
1.5138427734375
1.53076171875
1.5025634765625
1.482421875
2.222021484375
1.4751708984374998
1.5122314453124999
1.53720703125
1.4679199218749999
1.348681640625
1.0449462890624999
1.2221923828124999
1.35673828125
1.458251953125
1.46630859375
1.5146484375
1.533984375
1.5114257812499998
1.496923828125
1.5057861328125
1.5380126953125
1.5194824218749998
1.51787109375
1.4107177734374998
1.4228027343749998
0.6678955078125
1.6322753906249998
1.5186767578125
1.525927734375
1.5960205078124998
1.6693359374999999
2.0117431640625
2.0093261718749997
1.6290527343749999
1.5525146484374999
1.461474609375
1.4195800781249999
1.493701171875
1.5323730468749999
1.5726562499999999
1.5589599609375
1.5243164062499999
1.533984375
1.5380126953125
1.5565429687499999
1.5517089843749998
2.3227294921875
1.5057861328125
1.5082031249999999
1.4993408203124998
1.4373046875
1.377685546875
1.1867431640625
1.232666015625
1.2963134765625
1.4107177734374998
1.4469726562499998
1.4767822265625
1.4332763671875
1.5162597656249999
1.50498046875
1.4840332031249999
1.4896728515625
1.5025634765625
1.5009521484375
1.4832275390624998
1.509814453125
0.6437255859375
1.533984375
1.554931640625
1.4767822265625
1.5839355468749998
1.6854492187499999
1.75634765625
2.0584716796875
1.6427490234375
1.5436523437499998
1.5243164062499999
1.5001464843749999
1.5122314453124999
1.496923828125
1.5154541015624998
1.5033691406249998
1.4977294921875
1.5009521484375
1.4896728515625
1.4872558593749998
1.4920898437499999
2.180126953125
1.7023681640625
1.4711425781249998
1.5654052734375
1.51787109375
1.413134765625
1.3752685546874999
1.2366943359375
1.2777832031249998
1.377685546875
1.4461669921875
1.5218994140625
1.5283447265624999
1.5138427734375
1.4679199218749999
1.482421875
1.4953124999999998
1.4783935546875
1.46953125
1.4276367187499999
1.4147460937499998
0.7138183593749999
1.24716796875
1.593603515625
1.513037109375
1.5799072265624998
1.6612792968749999
1.658056640625
2.27841796875
1.84013671875
1.7426513671875
1.5283447265624999
1.4389160156249998
1.477587890625
1.5033691406249998
1.51787109375
1.48564453125
1.46953125
1.4840332031249999
1.4993408203124998
1.49853515625
1.5073974609374998
1.5815185546875
2.1648193359375
1.47275390625
1.545263671875
1.529150390625
1.4373046875
1.3382080078124998
1.11181640625
1.22783203125
1.3502929687499998
1.4228027343749998
1.432470703125
1.4268310546874998
1.474365234375
1.5001464843749999
1.5001464843749999
1.5283447265624999
1.5347900390625
1.513037109375
1.533984375
1.558154296875
1.5114257812499998
0.8499755859375
1.6403320312499998
1.522705078125
1.4630859374999998
1.5114257812499998
1.6363037109374998
2.067333984375
1.9263427734374998
1.5533203125
1.51787109375
1.513037109375
1.5073974609374998
1.529150390625
1.5275390624999998
1.5275390624999998
1.5033691406249998
1.5057861328125
1.5106201171875
1.5122314453124999
1.4912841796874998
1.4993408203124998
2.344482421875
1.490478515625
1.538818359375
1.5573486328125
1.4510009765624998
1.4123291015625
1.1577392578124999
1.2350830078125
1.30517578125
1.4276367187499999
1.4510009765624998
1.4703369140625
1.4510009765624998
1.5001464843749999
1.4679199218749999
1.4961181640624999
1.5146484375
1.5364013671874999
1.5533203125
1.525927734375
1.49853515625
0.6952880859374999
1.4848388671875
1.4751708984374998
1.46953125
1.6177734375
1.6886718749999998
1.7877685546875
1.928759765625
1.6072998046875
1.587158203125
1.619384765625
1.5492919921875
1.587158203125
1.5766845703124999
1.5428466796875
1.456640625
1.4276367187499999
1.4719482421874999
1.49853515625
1.5154541015624998
1.4977294921875
2.2711669921874997
1.6185791015625
1.47275390625
1.5726562499999999
1.496923828125
1.384130859375
1.3100097656249998
1.2568359375
1.2673095703125
1.393798828125
1.4606689453125
1.4783935546875
1.4389160156249998
1.4630859374999998
1.4477783203124999
1.47275390625
1.522705078125
1.5347900390625
1.558154296875
1.542041015625
1.5202880859374999
0.6429199218749999
1.3510986328124999
1.6008544921874999
1.5235107421874998
1.5791015625
1.6620849609375
1.6483886718749998
2.1503173828124997
1.670947265625
1.5138427734375
1.5170654296875
1.5404296874999999
1.5347900390625
1.5146484375
1.5154541015624998
1.5122314453124999
1.50498046875
1.5138427734375
1.5138427734375
1.5154541015624998
1.5364013671874999
1.7490966796874998
1.993212890625
1.4574462890625
1.5122314453124999
1.51787109375
1.4703369140625
1.3494873046875
1.14404296875
1.2383056640624999
1.3365966796875
1.445361328125
1.4590576171874998
1.477587890625
1.5275390624999998
1.558154296875
1.5267333984375
1.4864501953125
1.5073974609374998
1.546875
1.5444580078124999
1.4630859374999998
1.2205810546875
0.8805908203124999
1.5992431640625
1.4574462890625
1.477587890625
1.5799072265624998
1.6645019531249998
2.152734375
1.85302734375
1.587158203125
1.5436523437499998
1.5235107421874998
1.5243164062499999
1.538818359375
1.5637939453124998
1.5476806640624998
1.506591796875
1.5041748046874999
1.456640625
1.4074951171874999
1.4348876953124998
1.5186767578125
2.405712890625
1.5202880859374999
1.5525146484374999
1.5557373046874998
1.456640625
1.445361328125
1.155322265625
1.297119140625
1.4477783203124999
1.496923828125
1.4236083984374999
1.3929931640625
1.4300537109375
1.4912841796874998
1.4767822265625
1.4864501953125
1.5106201171875
1.5033691406249998
1.49853515625
1.51787109375
1.5154541015624998
0.5889404296874999
1.606494140625
1.5041748046874999
1.4872558593749998
1.558154296875
1.5944091796875
1.8546386718749999
2.0923095703125
1.5831298828125
1.529150390625
1.5154541015624998
1.4977294921875
1.545263671875
1.5122314453124999
1.4928955078125
1.5041748046874999
1.5114257812499998
1.5347900390625
1.5146484375
1.52109375
1.5275390624999998
2.075390625
1.5758789062499998
1.4912841796874998
1.5766845703124999
1.5460693359375
1.432470703125
1.27939453125
1.222998046875
1.264892578125
1.4268310546874998
1.49853515625
1.4751708984374998
1.3962158203125
1.4630859374999998
1.482421875
1.51787109375
1.538818359375
1.5283447265624999
1.5235107421874998
1.5283447265624999
1.513037109375
0.9047607421874999
1.4429443359374998
1.5863525390625
1.4928955078125
1.5138427734375
1.6137451171875
1.6878662109375
2.212353515625
1.6588623046875
1.55009765625
1.5323730468749999
1.506591796875
1.5267333984375
1.5122314453124999
1.5001464843749999
1.4920898437499999
1.4945068359375
1.53076171875
1.5082031249999999
1.4920898437499999
1.509814453125
1.9811279296875
1.925537109375
1.496923828125
1.577490234375
1.4880615234374999
1.364794921875
1.3382080078124998
1.2503906249999999
1.2447509765625
1.37607421875
1.4445556640625
1.4638916015624999
1.45341796875
1.458251953125
1.4920898437499999
1.5815185546875
1.5654052734375
1.4880615234374999
1.5025634765625
1.5170654296875
1.5041748046874999
1.042529296875
1.0610595703124999
1.7047851562499998
1.5315673828124998
1.5251220703125
1.5686279296874999
1.5662109375
2.1680419921875
1.7974365234374998
1.5791015625
1.5017578125
1.4832275390624998
1.493701171875
1.525927734375
1.5412353515625
1.5186767578125
1.4953124999999998
1.5073974609374998
1.5082031249999999
1.4977294921875
1.5025634765625
1.5057861328125
2.31064453125
1.5122314453124999
1.5331787109375
1.5380126953125
1.4791992187499998
1.3817138671875
1.1077880859375
1.2914794921875
1.3269287109374999
1.4284423828125
1.461474609375
1.4912841796874998
1.506591796875
1.529150390625
1.4800048828124999
1.4800048828124999
1.4920898437499999
1.5001464843749999
1.5146484375
1.5073974609374998
1.4864501953125
0.6123046875
1.5162597656249999
1.4953124999999998
1.4840332031249999
1.5460693359375
1.6137451171875
1.9634033203124999
2.0407470703125
1.62744140625
1.5484863281249999
1.52109375
1.51787109375
1.5283447265624999
1.4848388671875
1.5041748046874999
1.5146484375
1.53720703125
1.545263671875
1.525927734375
1.5194824218749998
1.5347900390625
2.29775390625
1.6081054687499998
1.5476806640624998
1.53720703125
1.409912109375
1.3631835937499999
1.222998046875
1.21494140625
1.2858398437499998
1.413134765625
1.4461669921875
1.4598632812499999
1.4268310546874998
1.5170654296875
1.509814453125
1.5275390624999998
1.5122314453124999
1.5017578125
1.533984375
1.5444580078124999
1.5194824218749998
0.7307373046875
1.4896728515625
1.5541259765625
1.5138427734375
1.5396240234374998
1.58232421875
1.6636962890625
2.2034912109375
1.6218017578125
1.571044921875
1.5654052734375
1.5299560546875
1.53720703125
1.509814453125
1.546875
1.5235107421874998
1.545263671875
1.5492919921875
1.49853515625
1.464697265625
1.4606689453125
2.1293701171875
1.7893798828124998
1.4598632812499999
1.5533203125
1.4993408203124998
1.3962158203125
1.3551269531249999
1.2423339843749999
1.2342773437499999
1.36962890625
1.432470703125
1.41796875
1.416357421875
1.5170654296875
1.53076171875
1.5251220703125
1.5428466796875
1.554931640625
1.5597656249999998
1.5355957031249998
1.5017578125
0.8104980468749999
1.1786865234375
1.6282470703124998
1.5073974609374998
1.477587890625
1.5678222656249998
1.6250244140624999
2.2341064453125
1.7410400390624998
1.56298828125
1.5412353515625
1.53076171875
1.5807128906249999
1.574267578125
1.49853515625
1.4783935546875
1.4832275390624998
1.5073974609374998
1.5033691406249998
1.5106201171875
1.509814453125
1.5243164062499999
2.2179931640625
1.4993408203124998
1.5404296874999999
1.5436523437499998
1.4590576171874998
1.3261230468749998
1.0505859375
1.216552734375
1.316455078125
1.458251953125
1.4598632812499999
1.4767822265625
1.5082031249999999
1.5194824218749998
1.5162597656249999
1.5315673828124998
1.5436523437499998
1.509814453125
1.490478515625
1.5202880859374999
1.5001464843749999
0.6791748046874999
1.5492919921875
1.4832275390624998
1.5251220703125
1.5533203125
1.5847412109374999
2.0326904296875
1.972265625
1.6072998046875
1.5533203125
1.5428466796875
1.5364013671874999
1.5654052734375
1.5573486328125
1.509814453125
1.4687255859375
1.4961181640624999
1.5082031249999999
1.50498046875
1.5073974609374998
1.509814453125
2.3501220703125
1.496923828125
1.5267333984375
1.5525146484374999
1.4864501953125
1.3817138671875
1.1738525390624999
1.2350830078125
1.3124267578125
1.4268310546874998
1.4510009765624998
1.4735595703125
1.4558349609374999
1.5517089843749998
1.554931640625
1.51787109375
1.5001464843749999
1.5138427734375
1.5218994140625
1.5146484375
1.50498046875
0.5994140625
1.2987304687499999
1.53720703125
1.4671142578124998
1.5331787109375
1.6306640625
1.7337890624999999
2.205908203125
1.6121337890624998
1.5436523437499998
1.51787109375
1.513037109375
1.53720703125
1.5154541015624998
1.5275390624999998
1.480810546875
1.48564453125
1.5218994140625
1.5194824218749998
1.5186767578125
1.5412353515625
1.7531249999999998
1.6886718749999998
1.4638916015624999
1.5831298828125
1.5090087890625
1.3752685546874999
1.3220947265624998
1.142431640625
1.2447509765625
1.4026611328124998
1.4356933593749999
1.4735595703125
1.4308593749999998
1.4542236328125
1.4800048828124999
1.5162597656249999
1.5162597656249999
1.5364013671874999
1.53720703125
1.5082031249999999
1.5122314453124999
1.2511962890625
1.2955078125
1.6282470703124998
1.52109375
1.5033691406249998
1.6040771484374998
1.6379150390625
2.18818359375
1.687060546875
1.5492919921875
1.5251220703125
1.5170654296875
1.5275390624999998
1.53076171875
1.5202880859374999
1.5057861328125
1.50498046875
1.5186767578125
1.5057861328125
1.5033691406249998
1.5114257812499998
1.6395263671875
2.0826416015625
1.4356933593749999
1.490478515625
1.4896728515625
1.3986328124999998
1.4074951171874999
1.2511962890625
1.2423339843749999
1.3817138671875
1.4840332031249999
1.5090087890625
1.5678222656249998
1.509814453125
1.4912841796874998
1.525927734375
1.55009765625
1.4945068359375
1.4518066406249999
1.4630859374999998
1.493701171875
1.361572265625
0.7959960937499999
1.5887695312499999
1.5001464843749999
1.4791992187499998
1.5758789062499998
1.609716796875
2.1261474609374997
1.899755859375
1.5847412109374999
1.5557373046874998
1.5299560546875
1.5154541015624998
1.545263671875
1.52109375
1.5073974609374998
1.4888671875
1.4977294921875
1.5122314453124999
1.506591796875
1.5057861328125
1.5170654296875
2.3879882812499997
1.5927978515624999
1.5509033203125
1.561376953125
1.5025634765625
1.4066894531249998
1.11826171875
1.2366943359375
1.2673095703125
1.4356933593749999
1.4501953125
1.4590576171874998
1.4510009765624998
1.5146484375
1.49853515625
1.509814453125
1.5218994140625
1.5154541015624998
1.5186767578125
1.5186767578125
1.50498046875
0.5712158203125
1.4501953125
1.51787109375
1.4542236328125
1.5476806640624998
1.658056640625
1.8111328125
2.1583740234374997
1.6572509765624999
1.5404296874999999
1.5355957031249998
1.529150390625
1.5654052734375
1.5162597656249999
1.5017578125
1.4880615234374999
1.5082031249999999
1.5162597656249999
1.5009521484375
1.48564453125
1.493701171875
1.95615234375
1.9118408203125
1.4928955078125
1.5678222656249998
1.52109375
1.4034667968749999
1.3092041015625
1.1835205078125
1.2802001953125
1.4139404296875
1.4606689453125
1.46953125
1.4284423828125
1.49853515625
1.5001464843749999
1.5073974609374998
1.5194824218749998
1.5025634765625
1.5033691406249998
1.51787109375
1.5170654296875
1.055419921875
1.06025390625
1.56298828125
1.464697265625
1.4961181640624999
1.6435546875
1.6854492187499999
2.241357421875
1.7740722656249999
1.5484863281249999
1.5315673828124998
1.5251220703125
1.5090087890625
1.4767822265625
1.4840332031249999
1.5146484375
1.5122314453124999
1.5396240234374998
1.5331787109375
1.5146484375
1.5202880859374999
1.5090087890625
2.0109375
1.4783935546875
1.546875
1.5218994140625
1.4155517578124999
1.3736572265625
1.0828125
1.21494140625
1.33740234375
1.4429443359374998
1.4550292968749998
1.456640625
1.4655029296875
1.5001464843749999
1.5106201171875
1.5251220703125
1.5090087890625
1.5154541015624998
1.5267333984375
1.5243164062499999
1.506591796875
0.9345703125
1.6250244140624999
1.4832275390624998
1.4977294921875
1.5984375
1.62744140625
1.9634033203124999
1.8336914062499998
1.5791015625
1.533984375
1.5243164062499999
1.5170654296875
1.545263671875
1.51787109375
1.5194824218749998
1.5025634765625
1.4961181640624999
1.5114257812499998
1.5009521484375
1.49853515625
1.5106201171875
2.3710693359375
1.538818359375
1.5154541015624998
1.5565429687499999
1.4800048828124999
1.4010498046875
1.0812011718749999
1.239111328125
1.2938964843749998
1.429248046875
1.458251953125
1.4767822265625
1.4356933593749999
1.5202880859374999
1.50498046875
1.5146484375
1.513037109375
1.5033691406249998
1.5170654296875
1.5194824218749998
1.5009521484375
0.5663818359375
1.4961181640624999
1.546875
1.4751708984374998
1.5404296874999999
1.638720703125
1.8884765625
2.1035888671875
1.635498046875
1.53720703125
1.5275390624999998
1.5146484375
1.51787109375
1.5235107421874998
1.5251220703125
1.506591796875
1.493701171875
1.5162597656249999
1.5122314453124999
1.5146484375
1.5017578125
2.1583740234374997
1.8167724609375
1.506591796875
1.5686279296874999
1.5122314453124999
1.416357421875
1.2802001953125
1.2052734375
1.229443359375
1.4091064453125
1.4308593749999998
1.4477783203124999
1.41796875
1.5122314453124999
1.5090087890625
1.5251220703125
1.525927734375
1.5218994140625
1.5331787109375
1.5364013671874999
1.5267333984375
0.84111328125
1.1496826171874999
1.5726562499999999
1.474365234375
1.480810546875
1.5960205078124998
1.6701416015625
2.2582763671875
1.7426513671875
1.5444580078124999
1.5444580078124999
1.525927734375
1.5315673828124998
1.50498046875
1.5323730468749999
1.5154541015624998
1.4912841796874998
1.5194824218749998
1.5106201171875
1.5017578125
1.5170654296875
1.53720703125
1.8844482421875
1.46630859375
1.53076171875
1.5404296874999999
1.38896484375
1.335791015625
1.103759765625
1.219775390625
1.3744628906249998
1.4501953125
1.445361328125
1.456640625
1.4840332031249999
1.538818359375
1.5275390624999998
1.5251220703125
1.50498046875
1.5114257812499998
1.5154541015624998
1.5001464843749999
1.4356933593749999
1.1110107421875
1.6322753906249998
1.5122314453124999
1.4953124999999998
1.6072998046875
1.59521484375
2.1390380859375
1.722509765625
1.5791015625
1.5573486328125
1.5428466796875
1.51787109375
1.5347900390625
1.5267333984375
1.5364013671874999
1.5009521484375
1.5114257812499998
1.52109375
1.5009521484375
1.5122314453124999
1.5090087890625
2.302587890625
1.5033691406249998
1.533984375
1.55009765625
1.474365234375
1.4123291015625
1.0948974609375
1.2044677734375
1.2963134765625
1.42119140625
1.4397216796874999
1.4711425781249998
1.429248046875
1.5017578125
1.5025634765625
1.513037109375
1.506591796875
1.5082031249999999
1.5235107421874998
1.5235107421874998
1.5001464843749999
0.6453369140624999
1.5509033203125
1.5509033203125
1.4928955078125
1.5444580078124999
1.6185791015625
2.0302734375
2.0109375
1.6081054687499998
1.5509033203125
1.5355957031249998
1.5380126953125
1.5484863281249999
1.5170654296875
1.5202880859374999
1.5009521484375
1.506591796875
1.525927734375
1.5106201171875
1.5025634765625
1.5001464843749999
2.2792236328124997
1.6927001953124998
1.506591796875
1.554931640625
1.4872558593749998
1.4066894531249998
1.181103515625
1.2528076171875
1.2383056640624999
1.4348876953124998
1.456640625
1.4783935546875
1.432470703125
1.5235107421874998
1.5073974609374998
1.5235107421874998
1.5235107421874998
1.5364013671874999
1.522705078125
1.5146484375
1.493701171875
0.6574218749999999
1.27294921875
1.55009765625
1.461474609375
1.538818359375
1.6451660156249999
1.7337890624999999
2.231689453125
1.7015624999999999
1.5509033203125
1.5347900390625
1.509814453125
1.5243164062499999
1.50498046875
1.529150390625
1.5170654296875
1.4912841796874998
1.5146484375
1.5041748046874999
1.51787109375
1.5082031249999999
1.658056640625
2.099560546875
1.464697265625
1.538818359375
1.5404296874999999
1.3865478515624998
1.3365966796875
1.1593505859375
1.224609375
1.3825195312499998
1.4461669921875
1.45341796875
1.4687255859375
1.4896728515625
1.5025634765625
1.5170654296875
1.522705078125
1.513037109375
1.5186767578125
1.5283447265624999
1.529150390625
1.3510986328124999
1.2342773437499999
1.5815185546875
1.480810546875
1.4953124999999998
1.6129394531249999
1.64677734375
2.13984375
1.72412109375
1.5557373046874998
1.5355957031249998
1.51787109375
1.513037109375
1.5355957031249998
1.5243164062499999
1.513037109375
1.513037109375
1.5186767578125
1.513037109375
1.506591796875
1.5073974609374998
1.5001464843749999
2.1664306640624997
1.496923828125
1.5323730468749999
1.53720703125
1.4469726562499998
1.38896484375
1.132763671875
1.2374999999999998
1.3365966796875
1.4501953125
1.4574462890625
1.4679199218749999
1.4501953125
1.51787109375
1.5025634765625
1.5194824218749998
1.5146484375
1.5138427734375
1.513037109375
1.5090087890625
1.4461669921875
0.800830078125
1.577490234375
1.5202880859374999
1.490478515625
1.558154296875
1.5960205078124998
1.8062988281249999
1.9005615234375
1.60166015625
1.5331787109375
1.52109375
1.5194824218749998
1.5541259765625
1.529150390625
1.5243164062499999
1.5082031249999999
1.5009521484375
1.5194824218749998
1.5017578125
1.5001464843749999
1.5186767578125
2.2953369140624997
1.6371093749999999
1.53720703125
1.53720703125
1.482421875
1.397021484375
1.1674072265625
1.2584472656249999
1.2802001953125
1.4364990234375
1.4461669921875
1.4759765624999999
1.4550292968749998
1.51787109375
1.509814453125
1.509814453125
1.5154541015624998
1.5114257812499998
1.5146484375
1.5138427734375
1.5090087890625
0.678369140625
1.3784912109374998
1.538818359375
1.4759765624999999
1.5380126953125
1.6153564453125
1.7531249999999998
2.12373046875
1.611328125
1.5404296874999999
1.5194824218749998
1.50498046875
1.5428466796875
1.5041748046874999
1.5218994140625
1.5009521484375
1.5033691406249998
1.52109375
1.5017578125
1.5057861328125
1.5001464843749999
1.8022705078124999
1.6725585937499998
1.4953124999999998
1.5492919921875
1.4993408203124998
1.393798828125
1.3349853515624999
1.2052734375
1.2705322265624999
1.3962158203125
1.4501953125
1.4767822265625
1.4655029296875
1.52109375
1.5033691406249998
1.5194824218749998
1.509814453125
1.5025634765625
1.5122314453124999
1.5323730468749999
1.5194824218749998
0.7404052734375
1.3301513671874998
1.56298828125
1.4864501953125
1.533984375
1.6395263671875
1.6701416015625
2.14306640625
1.670947265625
1.5509033203125
1.522705078125
1.5090087890625
1.5275390624999998
1.533984375
1.5243164062499999
1.5146484375
1.50498046875
1.5154541015624998
1.5041748046874999
1.5009521484375
1.5033691406249998
1.7015624999999999
2.002880859375
1.4816162109375
1.5436523437499998
1.5170654296875
1.4300537109375
1.3470703124999999
1.2028564453125
1.2503906249999999
1.35673828125
1.4469726562499998
1.4630859374999998
1.4751708984374998
1.5114257812499998
1.5146484375
1.5146484375
1.509814453125
1.509814453125
1.513037109375
1.5154541015624998
1.5082031249999999
1.2785888671874999
0.95390625
1.5847412109374999
1.482421875
1.4977294921875
1.5726562499999999
1.60166015625
2.12373046875
1.8006591796875
1.577490234375
1.533984375
1.5122314453124999
1.5090087890625
1.5267333984375
1.5138427734375
1.5041748046874999
1.509814453125
1.5041748046874999
1.5186767578125
1.5146484375
1.50498046875
1.5009521484375
2.27197265625
1.482421875
1.533984375
1.5597656249999998
1.4993408203124998
1.409912109375
1.1408203125
1.2665039062499999
1.3631835937499999
1.45341796875
1.461474609375
1.4735595703125
1.46630859375
1.5090087890625
1.5041748046874999
1.48564453125
1.4590576171874998
1.4638916015624999
1.5106201171875
1.538818359375
1.5347900390625
0.7283203125
1.5807128906249999
1.5186767578125
1.5017578125
1.546875
1.6081054687499998
1.8087158203125
2.03671875
1.58232421875
1.5404296874999999
1.5267333984375
1.5162597656249999
1.538818359375
1.5090087890625
1.5154541015624998
1.506591796875
1.509814453125
1.5114257812499998
1.5090087890625
1.5001464843749999
1.5082031249999999
1.9384277343749998
1.5944091796875
1.4961181640624999
1.561376953125
1.4735595703125
1.416357421875
1.3212890625
1.281005859375
1.3027587890624999
1.4316650390624999
1.45341796875
1.4719482421874999
1.44052734375
1.509814453125
1.5041748046874999
1.5218994140625
1.513037109375
1.5057861328125
1.5331787109375
1.529150390625
1.5194824218749998
0.7162353515625
1.4501953125
1.5436523437499998
1.4848388671875
1.5315673828124998
1.6322753906249998
1.6540283203125
2.0568603515625
1.6242187499999998
1.5492919921875
1.5331787109375
1.5243164062499999
1.5283447265624999
1.5082031249999999
1.5299560546875
1.5057861328125
1.4912841796874998
1.509814453125
1.50498046875
1.4993408203124998
1.5041748046874999
1.8860595703124998
1.869140625
1.461474609375
1.5517089843749998
1.5122314453124999
1.4123291015625
1.3261230468749998
1.2262207031249999
1.2665039062499999
1.384130859375
1.4542236328125
1.4703369140625
1.4791992187499998
1.5186767578125
1.5114257812499998
1.5138427734375
1.5202880859374999
1.5106201171875
1.5090087890625
1.5162597656249999
1.5146484375
1.087646484375
1.095703125
1.5879638671874998
1.4767822265625
1.4896728515625
1.590380859375
1.6636962890625
2.1374267578125
1.7499023437499999
1.5670166015625
1.5412353515625
1.5138427734375
1.5162597656249999
1.53076171875
1.5251220703125
1.5154541015624998
1.4953124999999998
1.5057861328125
1.5122314453124999
1.5186767578125
1.5154541015624998
1.5025634765625
2.1938232421875
1.4703369140625
1.529150390625
1.5380126953125
1.4751708984374998
1.3954101562499999
1.1400146484375
1.2665039062499999
1.3744628906249998
1.4590576171874998
1.4687255859375
1.474365234375
1.4735595703125
1.5154541015624998
1.5001464843749999
1.5154541015624998
1.5154541015624998
1.5082031249999999
1.5251220703125
1.5186767578125
1.5106201171875
0.7621582031249999
1.587158203125
1.4977294921875
1.4993408203124998
1.5484863281249999
1.6209960937499999
1.957763671875
1.9489013671875
1.5807128906249999
1.5331787109375
1.5146484375
1.5090087890625
1.5347900390625
1.5073974609374998
1.5218994140625
1.5090087890625
1.5114257812499998
1.5122314453124999
1.5033691406249998
1.5017578125
1.50498046875
2.2292724609375
1.5364013671874999
1.5114257812499998
1.5323730468749999
1.4735595703125
1.4332763671875
1.2221923828124999
1.268115234375
1.3253173828125
1.442138671875
1.4590576171874998
1.4719482421874999
1.445361328125
1.5275390624999998
1.5057861328125
1.5154541015624998
1.5243164062499999
1.5082031249999999
1.5146484375
1.522705078125
1.51787109375
0.7404052734375
1.5154541015624998
1.5492919921875
1.4711425781249998
1.5315673828124998
1.6169677734374999
1.703173828125
1.9658203125
1.5992431640625
1.53720703125
1.5194824218749998
1.5057861328125
1.5323730468749999
1.513037109375
1.5275390624999998
1.5186767578125
1.513037109375
1.5146484375
1.4977294921875
1.4993408203124998
1.5041748046874999
2.0649169921875
1.7635986328125
1.4703369140625
1.5517089843749998
1.4880615234374999
1.400244140625
1.2930908203125
1.2616699218749998
1.2721435546875
1.3994384765624999
1.456640625
1.4703369140625
1.4783935546875
1.5323730468749999
1.5025634765625
1.5202880859374999
1.513037109375
1.496923828125
1.5009521484375
1.5106201171875
1.5122314453124999
0.9031494140624999
1.2342773437499999
1.5597656249999998
1.4880615234374999
1.5138427734375
1.6161621093749998
1.6749755859375
2.144677734375
1.7128417968749998
1.5404296874999999
1.5267333984375
1.5017578125
1.52109375
1.5090087890625
1.5251220703125
1.5170654296875
1.5082031249999999
1.5057861328125
1.5017578125
1.4953124999999998
1.5090087890625
1.5412353515625
1.8095214843749998
1.4598632812499999
1.525927734375
1.529150390625
1.3986328124999998
1.3857421875
1.1738525390624999
1.27294921875
1.3929931640625
1.4542236328125
1.4711425781249998
1.4791992187499998
1.5017578125
1.5057861328125
1.509814453125
1.5146484375
1.5082031249999999
1.5170654296875
1.5243164062499999
1.5154541015624998
1.4719482421874999
1.152099609375
1.5960205078124998
1.4961181640624999
1.513037109375
1.6000488281249998
1.6282470703124998
2.0052978515624997
1.7217041015624999
1.5605712890624999
1.529150390625
1.51787109375
1.51787109375
1.5355957031249998
1.525927734375
1.5170654296875
1.5009521484375
1.5073974609374998
1.5001464843749999
1.5033691406249998
1.5073974609374998
1.50498046875
2.1615966796875
1.5017578125
1.5396240234374998
1.5436523437499998
1.4751708984374998
1.4236083984374999
1.139208984375
1.2665039062499999
1.3365966796875
1.4638916015624999
1.4711425781249998
1.4848388671875
1.4501953125
1.5041748046874999
1.4993408203124998
1.5154541015624998
1.529150390625
1.5033691406249998
1.522705078125
1.5267333984375
1.5082031249999999
0.784716796875
1.5412353515625
1.4928955078125
1.5041748046874999
1.5347900390625
1.6081054687499998
1.9682373046875
1.91748046875
1.5863525390625
1.5380126953125
1.5162597656249999
1.5170654296875
1.5364013671874999
1.5170654296875
1.513037109375
1.5025634765625
1.5017578125
1.509814453125
1.49853515625
1.5017578125
1.5033691406249998
2.1704589843749997
1.5162597656249999
1.5218994140625
1.5444580078124999
1.4920898437499999
1.4373046875
1.1980224609374999
1.2987304687499999
1.3188720703124999
1.442138671875
1.47275390625
1.4816162109375
1.4550292968749998
1.5275390624999998
1.50498046875
1.5202880859374999
1.5251220703125
1.5146484375
1.522705078125
1.525927734375
1.506591796875
0.7275146484374999
1.480810546875
1.5154541015624998
1.4872558593749998
1.538818359375
1.6508056640625
1.7555419921875
2.109228515625
1.603271484375
1.5267333984375
1.53076171875
1.5235107421874998
1.542041015625
1.5122314453124999
1.5202880859374999
1.5017578125
1.4928955078125
1.5057861328125
1.5057861328125
1.5057861328125
1.5146484375
2.1205078125
1.714453125
1.480810546875
1.5396240234374998
1.4896728515625
1.3994384765624999
1.3551269531249999
1.2995361328125
1.27294921875
1.400244140625
1.4510009765624998
1.4638916015624999
1.4630859374999998
1.506591796875
1.5162597656249999
1.51787109375
1.522705078125
1.5057861328125
1.5251220703125
1.5114257812499998
1.5057861328125
0.8024414062499999
1.2955078125
1.5895751953125
1.4880615234374999
1.525927734375
1.6242187499999998
1.638720703125
2.125341796875
1.65
1.5412353515625
1.5380126953125
1.5347900390625
1.525927734375
1.506591796875
1.52109375
1.5009521484375
1.5001464843749999
1.5146484375
1.5041748046874999
1.49853515625
1.5057861328125
1.585546875
2.070556640625
1.474365234375
1.5275390624999998
1.529150390625
1.442138671875
1.3720458984375
1.219775390625
1.2511962890625
1.4042724609375
1.4558349609374999
1.461474609375
1.4783935546875
1.490478515625
1.509814453125
1.5146484375
1.5106201171875
1.513037109375
1.509814453125
1.525927734375
1.5194824218749998
1.4058837890625
0.8991210937499999
1.590380859375
1.496923828125
1.4920898437499999
1.53720703125
1.6435546875
2.07216796875
1.8344970703124999
1.5589599609375
1.5364013671874999
1.5267333984375
1.5025634765625
1.5162597656249999
1.5090087890625
1.5082031249999999
1.5082031249999999
1.5106201171875
1.509814453125
1.5138427734375
1.5025634765625
1.5001464843749999
2.1358154296875
1.482421875
1.5251220703125
1.542041015625
1.4542236328125
1.4171630859375
1.1593505859375
1.26328125
1.3478759765625
1.4542236328125
1.456640625
1.4872558593749998
1.4558349609374999
1.5251220703125
1.5082031249999999
1.5138427734375
1.5122314453124999
1.513037109375
1.5267333984375
1.5243164062499999
1.5146484375
0.825
1.5702392578125
1.5323730468749999
1.4872558593749998
1.5621826171875
1.6056884765625
1.7652099609374998
1.8973388671875
1.5887695312499999
1.5331787109375
1.5106201171875
1.506591796875
1.533984375
1.509814453125
1.5154541015624998
1.509814453125
1.5033691406249998
1.513037109375
1.506591796875
1.5033691406249998
1.5009521484375
2.2357177734375
1.625830078125
1.4832275390624998
1.5412353515625
1.4961181640624999
1.4034667968749999
1.1899658203124999
1.2745605468749999
1.2938964843749998
1.4284423828125
1.4501953125
1.4735595703125
1.4638916015624999
1.5194824218749998
1.5041748046874999
1.513037109375
1.509814453125
1.5025634765625
1.5122314453124999
1.5154541015624998
1.51787109375
0.7057617187499999
1.4066894531249998
1.5412353515625
1.482421875
1.5396240234374998
1.635498046875
1.7764892578125
2.109228515625
1.62744140625
1.5267333984375
1.5251220703125
1.5194824218749998
1.5412353515625
1.522705078125
1.5355957031249998
1.509814453125
1.4953124999999998
1.5001464843749999
1.4953124999999998
1.5009521484375
1.4977294921875
1.7700439453124999
1.972265625
1.461474609375
1.542041015625
1.52109375
1.3849365234375
1.3390136718749999
1.2221923828124999
1.2511962890625
1.4107177734374998
1.4550292968749998
1.4735595703125
1.4558349609374999
1.5138427734375
1.5090087890625
1.52109375
1.51787109375
1.5122314453124999
1.5114257812499998
1.5146484375
1.5090087890625
1.2109130859375
1.3398193359375
1.5927978515624999
1.493701171875
1.49853515625
1.6475830078125
1.6556396484375
2.14306640625
1.6508056640625
1.542041015625
1.5202880859374999
1.509814453125
1.5194824218749998
1.5235107421874998
1.5275390624999998
1.5025634765625
1.5017578125
1.5106201171875
1.5057861328125
1.506591796875
1.50498046875
1.658056640625
2.0310791015625
1.4606689453125
1.5323730468749999
1.5218994140625
1.4228027343749998
1.4026611328124998
1.200439453125
1.2560302734375
1.36962890625
1.4590576171874998
1.4679199218749999
1.4759765624999999
1.4711425781249998
1.5106201171875
1.51787109375
1.5138427734375
1.513037109375
1.513037109375
1.522705078125
1.522705078125
1.335791015625
0.9337646484375
1.5992431640625
1.480810546875
1.4945068359375
1.5678222656249998
1.5960205078124998
2.1052001953125
1.815966796875
1.5799072265624998
1.53076171875
1.5162597656249999
1.52109375
1.522705078125
1.513037109375
1.5082031249999999
1.5017578125
1.506591796875
1.5218994140625
1.5041748046874999
1.5017578125
1.5033691406249998
2.273583984375
1.477587890625
1.5283447265624999
1.533984375
1.48564453125
1.405078125
1.1367919921875
1.2769775390625
1.3583496093749998
1.4493896484375
1.464697265625
1.48564453125
1.474365234375
1.5114257812499998
1.5122314453124999
1.513037109375
1.5170654296875
1.5106201171875
1.5122314453124999
1.5186767578125
1.5090087890625
0.7025390625
1.6000488281249998
1.5186767578125
1.48564453125
1.5444580078124999
1.6161621093749998
1.8264404296874999
2.067333984375
1.5807128906249999
1.5275390624999998
1.5170654296875
1.509814453125
1.529150390625
1.5106201171875
1.5251220703125
1.4961181640624999
1.5001464843749999
1.5114257812499998
1.5025634765625
1.5082031249999999
1.4993408203124998
2.2743896484375
1.587158203125
1.482421875
1.5492919921875
1.4872558593749998
1.4034667968749999
1.313232421875
1.2802001953125
1.2955078125
1.4252197265625
1.445361328125
1.4759765624999999
1.4671142578124998
1.5315673828124998
1.506591796875
1.5057861328125
1.52109375
1.5186767578125
1.522705078125
1.5154541015624998
1.509814453125
0.6912597656249999
1.4332763671875
1.5678222656249998
1.4783935546875
1.533984375
1.6266357421875
1.6765869140624998
2.0898925781249997
1.6314697265625
1.5347900390625
1.522705078125
1.5138427734375
1.533984375
1.5202880859374999
1.5323730468749999
1.50498046875
1.5090087890625
1.5017578125
1.5041748046874999
1.506591796875
1.506591796875
1.8739746093749998
1.89169921875
1.4671142578124998
1.5460693359375
1.5106201171875
1.405078125
1.3229003906249999
1.229443359375
1.255224609375
1.426025390625
1.4622802734375
1.46630859375
1.4735595703125
1.5162597656249999
1.5146484375
1.5154541015624998
1.52109375
1.5122314453124999
1.5162597656249999
1.525927734375
1.509814453125
1.071533203125
1.0812011718749999
1.5815185546875
1.482421875
1.5138427734375
1.6475830078125
1.670947265625
2.1615966796875
1.7410400390624998
1.5315673828124998
1.53720703125
1.52109375
1.525927734375
1.522705078125
1.533984375
1.5138427734375
1.5033691406249998
1.5025634765625
1.50498046875
1.4977294921875
1.4993408203124998
1.5041748046874999
1.9529296875
1.4622802734375
1.5267333984375
1.5911865234375
1.4147460937499998
1.3833251953124999
1.1335693359374999
1.2745605468749999
1.37607421875
1.4558349609374999
1.45341796875
1.4751708984374998
1.4832275390624998
1.5162597656249999
1.513037109375
1.5146484375
1.51787109375
1.52109375
1.5162597656249999
1.52109375
1.5082031249999999
1.0127197265624999
1.6201904296874998
1.5138427734375
1.5041748046874999
1.5831298828125
1.6048828124999999
1.9231201171874999
1.7660156249999999
1.5605712890624999
1.5404296874999999
1.5082031249999999
1.5170654296875
1.53720703125
1.5186767578125
1.5090087890625
1.4977294921875
1.506591796875
1.5090087890625
1.5041748046874999
1.50498046875
1.5033691406249998
2.2550537109374997
1.5323730468749999
1.5355957031249998
1.5396240234374998
1.48564453125
1.4244140625
1.1295410156249999
1.2721435546875
1.32451171875
1.458251953125
1.458251953125
1.4800048828124999
1.4445556640625
1.51787109375
1.5106201171875
1.5194824218749998
1.5218994140625
1.5194824218749998
1.5170654296875
1.5146484375
1.5009521484375
0.6993164062499999
1.51787109375
1.5235107421874998
1.4832275390624998
1.5436523437499998
1.6282470703124998
1.8699462890624998
2.0093261718749997
1.609716796875
1.5275390624999998
1.5170654296875
1.509814453125
1.5492919921875
1.5162597656249999
1.5202880859374999
1.509814453125
1.506591796875
1.513037109375
1.5025634765625
1.4920898437499999
1.49853515625
2.0697509765624997
1.5484863281249999
1.5017578125
1.5444580078124999
1.490478515625
1.4244140625
1.2955078125
1.2576416015624998
1.3220947265624998
1.432470703125
1.45341796875
1.47275390625
1.4518066406249999
1.5323730468749999
1.496923828125
1.5243164062499999
1.51787109375
1.5114257812499998
1.525927734375
1.53076171875
1.5162597656249999
0.8910644531249999
1.4719482421874999
1.558154296875
1.4783935546875
1.5364013671874999
1.6314697265625
1.6894775390624999
2.1551513671875
1.6129394531249999
1.5331787109375
1.5323730468749999
1.5114257812499998
1.5299560546875
1.5057861328125
1.5170654296875
1.50498046875
1.506591796875
1.5122314453124999
1.5146484375
1.50498046875
1.5041748046874999
1.9835449218749999
1.8143554687499999
1.464697265625
1.55009765625
1.5001464843749999
1.4034667968749999
1.3768798828125
1.2463623046874999
1.2721435546875
1.3929931640625
1.4510009765624998
1.474365234375
1.4703369140625
1.5001464843749999
1.5001464843749999
1.5138427734375
1.5170654296875
1.506591796875
1.5114257812499998
1.5251220703125
1.5106201171875
0.994189453125
1.17626953125
1.622607421875
1.47275390625
1.5146484375
1.6081054687499998
1.6620849609375
2.13984375
1.7152587890625
1.558154296875
1.525927734375
1.51787109375
1.5299560546875
1.5202880859374999
1.5283447265624999
1.50498046875
1.5017578125
1.5146484375
1.5090087890625
1.506591796875
1.5017578125
1.4961181640624999
2.157568359375
1.4461669921875
1.5186767578125
1.5412353515625
1.4195800781249999
1.3833251953124999
1.1496826171874999
1.2745605468749999
1.380908203125
1.4630859374999998
1.4687255859375
1.4751708984374998
1.4872558593749998
1.5162597656249999
1.5122314453124999
1.5218994140625
1.5162597656249999
1.5154541015624998
1.5202880859374999
1.5082031249999999
1.4928955078125
0.7718261718749999
1.603271484375
1.5001464843749999
1.5090087890625
1.5911865234375
1.6185791015625
1.9521240234375
1.9134521484375
1.5726562499999999
1.53720703125
1.51787109375
1.5138427734375
1.53076171875
1.5106201171875
1.5082031249999999
1.5073974609374998
1.5170654296875
1.5138427734375
1.496923828125
1.5041748046874999
1.5009521484375
2.2163818359375
1.50498046875
1.522705078125
1.5404296874999999
1.4791992187499998
1.4171630859375
1.2286376953125
1.2777832031249998
1.345458984375
1.429248046875
1.4590576171874998
1.480810546875
1.4550292968749998
1.5315673828124998
1.506591796875
1.5218994140625
1.5122314453124999
1.5090087890625
1.5146484375
1.5202880859374999
1.5122314453124999
0.7404052734375
1.5476806640624998
1.558154296875
1.4961181640624999
1.5380126953125
1.6121337890624998
1.931982421875
1.9505126953124998
1.593603515625
1.5323730468749999
1.513037109375
1.513037109375
1.53076171875
1.5154541015624998
1.5194824218749998
1.513037109375
1.5106201171875
1.513037109375
1.5009521484375
1.5025634765625
1.506591796875
2.151123046875
1.7055908203124999
1.5082031249999999
1.5541259765625
1.4945068359375
1.4276367187499999
1.2544189453124999
1.27294921875
1.2745605468749999
1.4437499999999999
1.4598632812499999
1.4759765624999999
1.4558349609374999
1.5428466796875
1.5154541015624998
1.5194824218749998
1.5283447265624999
1.5090087890625
1.5162597656249999
1.5194824218749998
1.5082031249999999
0.8161376953124999
1.287451171875
1.5597656249999998
1.4711425781249998
1.5251220703125
1.6234130859375
1.6975341796874999
2.1293701171875
1.667724609375
1.5364013671874999
1.529150390625
1.5138427734375
1.545263671875
1.496923828125
1.5323730468749999
1.5073974609374998
1.5017578125
1.5114257812499998
1.5114257812499998
1.493701171875
1.5001464843749999
1.5984375
1.74345703125
1.46630859375
1.5275390624999998
1.5807128906249999
1.400244140625
1.3736572265625
1.1770751953125
1.2834228515625
1.405078125
1.4598632812499999
1.4703369140625
1.4735595703125
1.5033691406249998
1.509814453125
1.5090087890625
1.52109375
1.5106201171875
1.51787109375
1.5114257812499998
1.5082031249999999
1.3817138671875
1.2415283203124998
1.6040771484374998
1.4840332031249999
1.5331787109375
1.6137451171875
1.63388671875
2.0600830078125
1.6975341796874999
1.558154296875
1.522705078125
1.509814453125
1.5235107421874998
1.5380126953125
1.533984375
1.5186767578125
1.5009521484375
1.5073974609374998
1.5041748046874999
1.4993408203124998
1.5009521484375
1.5484863281249999
2.1245361328125
1.4759765624999999
1.53720703125
1.53720703125
1.4461669921875
1.4147460937499998
1.15048828125
1.2697265624999998
1.3704345703124998
1.4518066406249999
1.4550292968749998
1.4751708984374998
1.458251953125
1.5122314453124999
1.5122314453124999
1.5194824218749998
1.4961181640624999
1.5122314453124999
1.5122314453124999
1.5154541015624998
1.458251953125
0.800830078125
1.5944091796875
1.4961181640624999
1.5009521484375
1.5565429687499999
1.6056884765625
2.051220703125
1.8683349609375
1.577490234375
1.5299560546875
1.5146484375
1.5122314453124999
1.5404296874999999
1.5275390624999998
1.52109375
1.5017578125
1.5001464843749999
1.5106201171875
1.509814453125
1.5041748046874999
1.5033691406249998
2.2921142578125
1.4896728515625
1.5267333984375
1.5380126953125
1.458251953125
1.42119140625
1.1666015625
1.27294921875
1.3390136718749999
1.442138671875
1.4574462890625
1.46953125
1.458251953125
1.5202880859374999
1.5009521484375
1.5170654296875
1.51787109375
1.5106201171875
1.5154541015624998
1.51787109375
1.5017578125
0.684814453125
1.5678222656249998
1.5525146484374999
1.4767822265625
1.5484863281249999
1.6169677734374999
1.7410400390624998
2.1293701171875
1.5863525390625
1.5323730468749999
1.5162597656249999
1.5090087890625
1.53720703125
1.5025634765625
1.51787109375
1.5082031249999999
1.5041748046874999
1.509814453125
1.5122314453124999
1.509814453125
1.5057861328125
2.2405517578125
1.6508056640625
1.4606689453125
1.5565429687499999
1.4872558593749998
1.38896484375
1.3341796874999998
1.2753662109375
1.2850341796875
1.4219970703125
1.45341796875
1.480810546875
1.4630859374999998
1.51787109375
1.5073974609374998
1.5082031249999999
1.5154541015624998
1.506591796875
1.5154541015624998
1.5194824218749998
1.5122314453124999
0.7154296874999999
1.340625
1.590380859375
1.4864501953125
1.5436523437499998
1.6411376953124999
1.6483886718749998
2.14951171875
1.670947265625
1.5436523437499998
1.51787109375
1.5017578125
1.5235107421874998
1.5235107421874998
1.5347900390625
1.5082031249999999
1.49853515625
1.5122314453124999
1.5114257812499998
1.4993408203124998
1.5009521484375
1.6846435546874998
2.0310791015625
1.4638916015624999
1.5396240234374998
1.5283447265624999
1.4284423828125
1.3470703124999999
1.181103515625
1.252001953125
1.3599609375
1.4574462890625
1.4671142578124998
1.4840332031249999
1.509814453125
1.5106201171875
1.5090087890625
1.5025634765625
1.5106201171875
1.5138427734375
1.5186767578125
1.5154541015624998
1.3092041015625
0.9257080078125
1.5863525390625
1.464697265625
1.4945068359375
1.574267578125
1.6491943359374999
2.135009765625
1.8143554687499999
1.545263671875
1.522705078125
1.5146484375
1.5235107421874998
1.53076171875
1.513037109375
1.5114257812499998
1.496923828125
1.509814453125
1.5170654296875
1.513037109375
1.5025634765625
1.5041748046874999
2.0923095703125
1.4759765624999999
1.52109375
1.5412353515625
1.4413330078125
1.3986328124999998
1.142431640625
1.2463623046874999
1.35673828125
1.4550292968749998
1.4590576171874998
1.4888671875
1.4622802734375
1.5162597656249999
1.5114257812499998
1.51787109375
1.5114257812499998
1.5114257812499998
1.5194824218749998
1.506591796875
1.4977294921875
0.8685058593749999
1.5984375
1.533984375
1.4928955078125
1.5597656249999998
1.60166015625
1.8248291015625
1.8522216796875
1.5791015625
1.53076171875
1.5154541015624998
1.5073974609374998
1.5364013671874999
1.525927734375
1.5251220703125
1.5082031249999999
1.5073974609374998
1.5162597656249999
1.493701171875
1.5017578125
1.5009521484375
2.29775390625
1.5702392578125
1.4928955078125
1.5404296874999999
1.4816162109375
1.4139404296875
1.1577392578124999
1.27294921875
1.2995361328125
1.4244140625
1.464697265625
1.4816162109375
1.4501953125
1.52109375
1.509814453125
1.5114257812499998
1.5122314453124999
1.5114257812499998
1.5194824218749998
1.522705078125
1.509814453125
0.6638671875
1.4348876953124998
1.5323730468749999
1.4880615234374999
1.5444580078124999
1.64677734375
1.799853515625
2.08828125
1.6218017578125
1.529150390625
1.5194824218749998
1.5114257812499998
1.538818359375
1.5243164062499999
1.53076171875
1.5194824218749998
1.5146484375
1.513037109375
1.5025634765625
1.5009521484375
1.5001464843749999
1.8908935546874999
1.61455078125
1.47275390625
1.545263671875
1.5106201171875
1.3962158203125
1.3317626953125
1.2415283203124998
1.2882568359375
1.4300537109375
1.4542236328125
1.4671142578124998
1.45341796875
1.5114257812499998
1.5122314453124999
1.513037109375
1.5162597656249999
1.506591796875
1.5194824218749998
1.5138427734375
1.50498046875
1.0763671875
1.393798828125
1.585546875
1.4848388671875
1.5090087890625
1.6443603515624998
1.6669189453125
2.1648193359375
1.6403320312499998
1.5331787109375
1.5267333984375
1.5122314453124999
1.5251220703125
1.5186767578125
1.5283447265624999
1.5162597656249999
1.5041748046874999
1.509814453125
1.5114257812499998
1.506591796875
1.4993408203124998
1.7635986328125
1.95615234375
1.4550292968749998
1.5138427734375
1.5162597656249999
1.432470703125
1.40830078125
1.2101074218749999
1.2511962890625
1.3656005859375
1.4542236328125
1.4687255859375
1.4751708984374998
1.477587890625
1.5001464843749999
1.5073974609374998
1.5186767578125
1.5194824218749998
1.5146484375
1.5267333984375
1.51787109375
1.2028564453125
1.00224609375
1.6072998046875
