1.9400390625
1.9086181640625
1.6846435546874998
1.5807128906249999
1.561376953125
1.5565429687499999
1.5380126953125
1.5484863281249999
1.5533203125
1.5380126953125
1.5364013671874999
1.522705078125
1.52109375
1.513037109375
1.5057861328125
1.674169921875
1.8908935546874999
1.5114257812499998
1.5114257812499998
1.5275390624999998
1.4356933593749999
1.3470703124999999
1.3188720703124999
1.303564453125
1.361572265625
1.4171630859375
1.4590576171874998
1.474365234375
1.5033691406249998
1.5090087890625
1.5082031249999999
1.5364013671874999
1.5517089843749998
1.5355957031249998
1.5517089843749998
1.5492919921875
1.3148437499999999
1.2826171874999999
1.5436523437499998
1.5090087890625
1.5565429687499999
1.64677734375
1.7120361328125
2.038330078125
1.7136474609374999
1.6121337890624998
1.5758789062499998
1.5637939453124998
1.5428466796875
1.5460693359375
1.5380126953125
1.5492919921875
1.5331787109375
1.5364013671874999
1.5025634765625
1.5162597656249999
1.53076171875
1.6427490234375
1.896533203125
1.5831298828125
1.5476806640624998
1.538818359375
1.456640625
1.3873535156249999
1.329345703125
1.284228515625
1.335791015625
1.4373046875
1.4598632812499999
1.4783935546875
1.4928955078125
1.5073974609374998
1.5299560546875
1.522705078125
1.5146484375
1.51787109375
1.533984375
1.5557373046874998
1.3365966796875
1.1061767578125
1.5380126953125
1.5243164062499999
1.546875
1.5911865234375
1.6733642578124999
2.0214111328124997
1.7829345703125
1.606494140625
1.585546875
1.546875
1.5605712890624999
1.5702392578125
1.5662109375
1.5557373046874998
1.5412353515625
1.5235107421874998
1.513037109375
1.525927734375
1.529150390625
1.5009521484375
1.9053955078125
1.5517089843749998
1.5073974609374998
1.558154296875
1.4550292968749998
1.4010498046875
1.2785888671874999
1.2737548828124998
1.3494873046875
1.4244140625
1.4719482421874999
1.4791992187499998
1.47275390625
1.5017578125
1.5033691406249998
1.5283447265624999
1.5525146484374999
1.545263671875
1.5364013671874999
1.545263671875
1.3543212890624998
1.106982421875
1.480810546875
1.5428466796875
1.554931640625
1.5847412109374999
1.6508056640625
2.0069091796875
1.7329833984374998
1.64677734375
1.5831298828125
1.5541259765625
1.542041015625
1.546875
1.55009765625
1.5565429687499999
1.5331787109375
1.5299560546875
1.5218994140625
1.51787109375
1.513037109375
1.5057861328125
1.9891845703125
1.6435546875
1.52109375
1.538818359375
1.4953124999999998
1.4147460937499998
1.2495849609374998
1.27294921875
1.3100097656249998
1.4244140625
1.46953125
1.4598632812499999
1.4816162109375
1.5106201171875
1.48564453125
1.5186767578125
1.5492919921875
1.5428466796875
1.542041015625
1.542041015625
1.5194824218749998
1.00224609375
1.4759765624999999
1.5436523437499998
1.5460693359375
1.590380859375
1.6395263671875
1.8981445312499998
1.883642578125
1.674169921875
1.5799072265624998
1.5734619140625
1.55009765625
1.574267578125
1.5678222656249998
1.5589599609375
1.5218994140625
1.5162597656249999
1.5122314453124999
1.5194824218749998
1.51787109375
1.5275390624999998
1.98193359375
1.6693359374999999
1.5315673828124998
1.5396240234374998
1.5009521484375
1.3978271484375
1.268115234375
1.284228515625
1.2963134765625
1.3978271484375
1.43408203125
1.47275390625
1.480810546875
1.5009521484375
1.5138427734375
1.5218994140625
1.5347900390625
1.5428466796875
1.542041015625
1.5355957031249998
1.5146484375
1.0352783203125
1.3784912109374998
1.5525146484374999
1.5283447265624999
1.554931640625
1.6121337890624998
1.8973388671875
1.9505126953124998
1.7015624999999999
1.5799072265624998
1.574267578125
1.56298828125
1.5565429687499999
1.53720703125
1.5557373046874998
1.5484863281249999
1.5122314453124999
1.5283447265624999
1.52109375
1.5146484375
1.53076171875
1.791796875
1.8183837890624999
1.5428466796875
1.5702392578125
1.5235107421874998
1.416357421875
1.2850341796875
1.2850341796875
1.284228515625
1.3954101562499999
1.4348876953124998
1.4638916015624999
1.4638916015624999
1.5090087890625
1.5154541015624998
1.5009521484375
1.5412353515625
1.5218994140625
1.542041015625
1.5380126953125
1.5331787109375
1.1778808593749999
1.34384765625
1.5541259765625
1.5235107421874998
1.5621826171875
1.6524169921874998
1.780517578125
1.993212890625
1.699951171875
1.587158203125
1.5726562499999999
1.5589599609375
1.5589599609375
1.554931640625
1.5218994140625
1.5331787109375
1.52109375
1.529150390625
1.51787109375
1.53076171875
1.5170654296875
1.799853515625
1.8111328125
1.545263671875
1.5492919921875
1.5138427734375
1.4147460937499998
1.3865478515624998
1.2979248046874998
1.2979248046874998
1.3656005859375
1.429248046875
1.4590576171874998
1.4759765624999999
1.477587890625
1.5033691406249998
1.522705078125
1.538818359375
1.522705078125
1.5315673828124998
1.5235107421874998
1.558154296875
1.2310546875
1.2101074218749999
1.53076171875
1.5170654296875
1.546875
1.6137451171875
1.7184814453125
2.0020751953125
1.7442626953125
1.6234130859375
1.5887695312499999
1.5766845703124999
1.5436523437499998
1.5678222656249998
1.5541259765625
1.5283447265624999
1.5243164062499999
1.5162597656249999
1.5218994140625
1.5186767578125
1.506591796875
1.5412353515625
1.84013671875
1.546875
1.5170654296875
1.5170654296875
1.4276367187499999
1.353515625
1.2963134765625
1.3067871093749999
1.3688232421875
1.4550292968749998
1.4711425781249998
1.4840332031249999
1.493701171875
1.5122314453124999
1.5162597656249999
1.5380126953125
1.53076171875
1.5323730468749999
1.5347900390625
1.5380126953125
1.216552734375
1.184326171875
1.5186767578125
1.5565429687499999
1.53720703125
1.6105224609375
1.6572509765624999
2.0278564453125
1.7635986328125
1.638720703125
1.56298828125
1.5565429687499999
1.5396240234374998
1.5734619140625
1.5428466796875
1.545263671875
1.5436523437499998
1.5106201171875
1.5114257812499998
1.5122314453124999
1.51787109375
1.5251220703125
2.0052978515624997
1.59521484375
1.506591796875
1.5364013671874999
1.4840332031249999
1.3962158203125
1.2511962890625
1.2890625
1.3559326171875
1.4397216796874999
1.45341796875
1.48564453125
1.482421875
1.509814453125
1.5025634765625
1.513037109375
1.53076171875
1.542041015625
1.5436523437499998
1.5412353515625
1.5162597656249999
1.0352783203125
1.5235107421874998
1.53076171875
1.509814453125
1.61455078125
1.6532226562499999
1.9714599609374999
1.832080078125
1.6282470703124998
1.577490234375
1.5702392578125
1.561376953125
1.5597656249999998
1.554931640625
1.5355957031249998
1.5315673828124998
1.5323730468749999
1.5194824218749998
1.5146484375
1.545263671875
1.5331787109375
1.9529296875
1.6322753906249998
1.545263671875
1.53720703125
1.4510009765624998
1.40830078125
1.2785888671874999
1.2785888671874999
1.3172607421875
1.4244140625
1.45341796875
1.4671142578124998
1.4542236328125
1.5122314453124999
1.5082031249999999
1.5138427734375
1.513037109375
1.5235107421874998
1.53720703125
1.5396240234374998
1.5404296874999999
1.0433349609375
1.405078125
1.5243164062499999
1.5235107421874998
1.5799072265624998
1.6443603515624998
1.877197265625
1.8908935546874999
1.7120361328125
1.5637939453124998
1.5799072265624998
1.53720703125
1.5670166015625
1.5662109375
1.554931640625
1.5476806640624998
1.5138427734375
1.513037109375
1.5267333984375
1.5082031249999999
1.5202880859374999
1.9384277343749998
1.6250244140624999
1.506591796875
1.5484863281249999
1.525927734375
1.416357421875
1.2592529296875
1.2665039062499999
1.340625
1.40185546875
1.4348876953124998
1.482421875
1.4880615234374999
1.5017578125
1.5057861328125
1.5106201171875
1.56943359375
1.522705078125
1.5299560546875
1.5355957031249998
1.546875
1.0352783203125
1.400244140625
1.5678222656249998
1.5299560546875
1.5517089843749998
1.6427490234375
1.828857421875
1.8522216796875
1.658056640625
1.5984375
1.574267578125
1.5484863281249999
1.5597656249999998
1.545263671875
1.5460693359375
1.5315673828124998
1.5202880859374999
1.522705078125
1.51787109375
1.4953124999999998
1.5218994140625
1.92392578125
1.751513671875
1.5347900390625
1.533984375
1.5122314453124999
1.4252197265625
1.276171875
1.27939453125
1.297119140625
1.380908203125
1.4461669921875
1.4711425781249998
1.4791992187499998
1.5073974609374998
1.52109375
1.5090087890625
1.5404296874999999
1.5323730468749999
1.53720703125
1.5299560546875
1.5396240234374998
1.0691162109374999
1.2818115234374998
1.5517089843749998
1.5251220703125
1.5621826171875
1.6290527343749999
1.8304687499999999
1.9521240234375
1.7289550781249998
1.587158203125
1.5589599609375
1.5364013671874999
1.545263671875
1.5726562499999999
1.5476806640624998
1.5331787109375
1.5243164062499999
1.5041748046874999
1.5170654296875
1.5162597656249999
1.5412353515625
1.619384765625
1.7603759765625
1.5323730468749999
1.545263671875
1.5444580078124999
1.4348876953124998
1.327734375
1.2930908203125
1.3148437499999999
1.36962890625
1.4284423828125
1.480810546875
1.4630859374999998
1.5122314453124999
1.4945068359375
1.5106201171875
1.5412353515625
1.5355957031249998
1.5251220703125
1.533984375
1.522705078125
1.116650390625
1.2431396484375
1.5428466796875
1.5299560546875
1.5484863281249999
1.6056884765625
1.6806152343749998
1.98515625
1.76279296875
1.6314697265625
1.593603515625
1.561376953125
1.5412353515625
1.5597656249999998
1.5670166015625
1.5444580078124999
1.529150390625
1.5138427734375
1.5299560546875
1.5154541015624998
1.5218994140625
1.6250244140624999
1.9376220703125
1.5750732421875
1.5315673828124998
1.5323730468749999
1.4574462890625
1.3446533203125
1.2608642578125
1.2665039062499999
1.3494873046875
1.4461669921875
1.4598632812499999
1.493701171875
1.4783935546875
1.5073974609374998
1.5090087890625
1.529150390625
1.533984375
1.5364013671874999
1.5605712890624999
1.5412353515625
1.40830078125
1.087646484375
1.52109375
1.5218994140625
1.5146484375
1.6363037109374998
1.6645019531249998
2.03671875
1.803076171875
1.6483886718749998
1.5750732421875
1.5686279296874999
1.5283447265624999
1.538818359375
1.5557373046874998
1.5412353515625
1.5218994140625
1.5275390624999998
1.5460693359375
1.5073974609374998
1.513037109375
1.5138427734375
1.925537109375
1.5718505859374998
1.533984375
1.5484863281249999
1.4638916015624999
1.4010498046875
1.2270263671875
1.2882568359375
1.3502929687499998
1.409912109375
1.4791992187499998
1.4928955078125
1.47275390625
1.5009521484375
1.50498046875
1.5283447265624999
1.522705078125
1.5251220703125
1.5396240234374998
1.538818359375
1.445361328125
1.069921875
1.4888671875
1.5444580078124999
1.53720703125
1.590380859375
1.62744140625
1.96904296875
1.8409423828125
1.6483886718749998
1.59521484375
1.5662109375
1.5565429687499999
1.5605712890624999
1.5460693359375
1.5436523437499998
1.5194824218749998
1.5194824218749998
1.5275390624999998
1.52109375
1.5202880859374999
1.5025634765625
1.9827392578124998
1.609716796875
1.5267333984375
1.5476806640624998
1.533984375
1.4332763671875
1.2721435546875
1.2818115234374998
1.3349853515624999
1.416357421875
1.4203857421875
1.3978271484375
1.4719482421874999
1.5057861328125
1.5162597656249999
1.482421875
1.5073974609374998
1.5283447265624999
1.5331787109375
1.58232421875
1.5525146484374999
1.0731445312499999
1.4719482421874999
1.546875
1.5315673828124998
1.6040771484374998
1.6379150390625
1.8635009765625
1.843359375
1.6620849609375
1.5799072265624998
1.542041015625
1.5557373046874998
1.558154296875
1.5251220703125
1.545263671875
1.5484863281249999
1.5251220703125
1.5331787109375
1.5243164062499999
1.5243164062499999
1.5283447265624999
1.98515625
1.7104248046875
1.5186767578125
1.529150390625
1.46953125
1.4171630859375
1.2568359375
1.2640869140625
1.2818115234374998
1.3986328124999998
1.4501953125
1.4679199218749999
1.4864501953125
1.5017578125
1.49853515625
1.5251220703125
1.5380126953125
1.53720703125
1.525927734375
1.5347900390625
1.5396240234374998
1.026416015625
1.353515625
1.5323730468749999
1.5090087890625
1.5557373046874998
1.6379150390625
1.9231201171874999
1.9553466796874999
1.7281494140625
1.6379150390625
1.5662109375
1.5589599609375
1.5476806640624998
1.5444580078124999
1.5645996093749999
1.533984375
1.5106201171875
1.5114257812499998
1.538818359375
1.5025634765625
1.4888671875
1.7797119140625
1.7281494140625
1.5412353515625
1.5517089843749998
1.493701171875
1.4026611328124998
1.2979248046874998
1.2785888671874999
1.2656982421874998
1.3873535156249999
1.4228027343749998
1.4687255859375
1.4574462890625
1.4840332031249999
1.5001464843749999
1.545263671875
1.5541259765625
1.5541259765625
1.55009765625
1.5492919921875
1.5186767578125
0.945849609375
1.3027587890624999
1.5412353515625
1.5444580078124999
1.622607421875
1.69189453125
1.7942138671874999
2.002880859375
1.6862548828125
1.5541259765625
1.5831298828125
1.5637939453124998
1.542041015625
1.5782958984375
1.5154541015624998
1.4888671875
1.5073974609374998
1.5162597656249999
1.525927734375
1.5267333984375
1.509814453125
1.7982421874999999
1.9215087890625
1.58232421875
1.5436523437499998
1.5436523437499998
1.4123291015625
1.2399169921875
1.2697265624999998
1.2576416015624998
1.361572265625
1.3929931640625
1.4493896484375
1.4719482421874999
1.5001464843749999
1.4791992187499998
1.4888671875
1.5186767578125
1.542041015625
1.5436523437499998
1.5815185546875
1.5573486328125
1.1609619140625
1.095703125
1.5347900390625
1.5267333984375
1.5275390624999998
1.6935058593749999
1.7362060546875
2.1325927734375
1.7281494140625
1.6105224609375
1.561376953125
1.5460693359375
1.5911865234375
1.6048828124999999
1.585546875
1.52109375
1.4800048828124999
1.4767822265625
1.5025634765625
1.5412353515625
1.509814453125
1.5275390624999998
2.0109375
1.6008544921874999
1.5218994140625
1.5243164062499999
1.4187744140624998
1.3317626953125
1.2052734375
1.20849609375
1.3204833984375
1.429248046875
1.4397216796874999
1.442138671875
1.49853515625
1.5114257812499998
1.5057861328125
1.4558349609374999
1.5017578125
1.5323730468749999
1.5114257812499998
1.5202880859374999
1.2093017578125
1.0433349609375
1.5017578125
1.5138427734375
1.545263671875
1.6298583984375
1.7845458984375
2.204296875
1.8626953124999999
1.6725585937499998
1.5887695312499999
1.5750732421875
1.5815185546875
1.5758789062499998
1.5621826171875
1.5589599609375
1.5235107421874998
1.5009521484375
1.4735595703125
1.490478515625
1.5041748046874999
1.4961181640624999
2.147900390625
1.5984375
1.4759765624999999
1.5017578125
1.3728515625
1.2914794921875
1.1206787109375
1.1400146484375
1.2850341796875
1.4510009765624998
1.50498046875
1.5146484375
1.4759765624999999
1.5146484375
1.5138427734375
1.5863525390625
1.5984375
1.5484863281249999
1.4816162109375
1.5017578125
1.561376953125
0.887841796875
1.4195800781249999
1.509814453125
1.5170654296875
1.6653076171874999
1.7370117187499998
2.173681640625
2.0020751953125
1.7539306640624999
1.6306640625
1.5355957031249998
1.5807128906249999
1.577490234375
1.5355957031249998
1.5404296874999999
1.5202880859374999
1.461474609375
1.5114257812499998
1.5041748046874999
1.4928955078125
1.5057861328125
2.3098388671875
1.7579589843749999
1.5122314453124999
1.5484863281249999
1.4574462890625
1.3688232421875
1.1158447265625
1.0731445312499999
1.147265625
1.3390136718749999
1.413134765625
1.4671142578124998
1.477587890625
1.5323730468749999
1.5146484375
1.4872558593749998
1.5525146484374999
1.5025634765625
1.5057861328125
1.571044921875
1.4558349609374999
0.25217285156249997
1.1214843749999999
1.3269287109374999
1.3478759765625
1.480810546875
1.7450683593749998
2.602294921875
2.5418701171875
2.064111328125
1.8304687499999999
1.662890625
1.4783935546875
1.62744140625
1.6250244140624999
1.6169677734374999
1.542041015625
1.5404296874999999
1.5218994140625
1.45341796875
1.3817138671875
1.464697265625
2.856884765625
2.2598876953125
1.8739746093749998
1.72412109375
1.4171630859375
1.152099609375
0.49951171875
0.34079589843749997
0.456005859375
0.791162109375
1.1577392578124999
1.384130859375
1.413134765625
1.4848388671875
1.4791992187499998
1.52109375
1.66611328125
1.6910888671875
1.6290527343749999
1.619384765625
1.5984375
0.0201416015625
0.5824951171875
1.106982421875
1.327734375
1.59521484375
1.8941162109374998
2.8383544921875
3.0284912109374997
2.5998779296874996
2.1205078125
1.71123046875
1.56943359375
1.5090087890625
1.5090087890625
1.4928955078125
1.5283447265624999
1.4147460937499998
1.5146484375
1.6129394531249999
1.654833984375
1.6798095703125
3.02607421875
3.0284912109374997
3.0228515624999996
3.0284912109374997
3.0284912109374997
3.02607421875
1.9666259765624998
1.1021484375
0.023364257812499997
0.02578125
0.018530273437499998
0.0281982421875
0.02578125
0.02578125
0.0249755859375
0.024169921875
0.023364257812499997
0.02900390625
0.024169921875
0.033837890625
0.0362548828125
0.026586914062499998
0.02578125
0.024169921875
0.023364257812499997
0.0249755859375
0.024169921875
0.024169921875
0.024169921875
0.026586914062499998
1.3905761718749998
1.880419921875
2.204296875
2.6514404296875
2.8544677734375
3.027685546875
3.0252685546875
3.0309082031249996
3.027685546875
3.0301025390625
3.029296875
2.9672607421875
3.0252685546875
3.021240234375
3.021240234375
3.0252685546875
3.0284912109374997
3.021240234375
3.0284912109374997
2.018994140625
0.3794677734375
0.018530273437499998
0.024169921875
0.0281982421875
0.024169921875
0.02900390625
0.023364257812499997
0.024169921875
0.024169921875
0.024169921875
0.045117187499999996
0.02900390625
0.0580078125
0.027392578124999997
0.02900390625
0.024169921875
0.027392578124999997
0.024169921875
0.0298095703125
0.024169921875
0.019335937499999997
0.0249755859375
0.7943847656249999
1.4413330078125
1.90458984375
2.591015625
2.776318359375
3.0188232421874996
3.027685546875
3.02607421875
3.027685546875
3.0325195312499997
3.0301025390625
3.0268798828124996
3.0244628906249997
3.0236572265625
3.0309082031249996
3.027685546875
3.02607421875
3.0268798828124996
3.02607421875
2.1889892578125
0.9627685546875
0.042700195312499994
0.020947265625
0.022558593749999998
0.023364257812499997
0.024169921875
0.023364257812499997
0.0249755859375
0.02578125
0.0249755859375
0.023364257812499997
0.054785156249999994
0.088623046875
0.026586914062499998
0.022558593749999998
0.023364257812499997
0.024169921875
0.0281982421875
0.024169921875
0.026586914062499998
0.023364257812499997
0.0201416015625
0.6098876953125
1.3156494140625
1.9787109374999998
2.2824462890625
2.7368408203124996
3.0268798828124996
3.0268798828124996
3.0284912109374997
3.0301025390625
3.027685546875
3.0333251953125
3.0268798828124996
3.021240234375
3.0268798828124996
3.02607421875
3.0268798828124996
3.02607421875
3.02607421875
3.0317138671875
2.6578857421874997
1.4203857421875
0.44230957031249996
0.024169921875
0.0249755859375
0.02578125
0.024169921875
0.0249755859375
0.024169921875
0.023364257812499997
0.023364257812499997
0.027392578124999997
0.023364257812499997
0.0555908203125
0.10957031249999999
0.02578125
0.02578125
0.023364257812499997
0.024169921875
0.022558593749999998
0.023364257812499997
0.023364257812499997
0.0249755859375
0.0298095703125
1.219775390625
1.7249267578124998
2.1624023437499997
2.6522460937499996
3.0172119140625
3.0268798828124996
3.0228515624999996
3.027685546875
3.02607421875
3.0309082031249996
3.0268798828124996
3.027685546875
3.0284912109374997
3.027685546875
3.027685546875
3.027685546875
3.027685546875
3.0228515624999996
2.843994140625
1.8981445312499998
0.452783203125
0.018530273437499998
0.024169921875
0.0281982421875
0.0249755859375
0.022558593749999998
0.024169921875
0.020947265625
0.024169921875
0.02900390625
0.10554199218749999
0.233642578125
0.2183349609375
0.022558593749999998
0.024169921875
0.023364257812499997
0.0298095703125
0.024169921875
0.026586914062499998
0.022558593749999998
0.023364257812499997
0.32468261718749997
1.2141357421874999
1.7539306640624999
2.183349609375
2.5265625
2.882666015625
3.02607421875
3.0252685546875
3.034130859375
3.027685546875
3.0268798828124996
3.027685546875
3.0228515624999996
3.02607421875
3.0244628906249997
3.027685546875
3.0301025390625
3.02607421875
3.0284912109374997
3.0244628906249997
1.8973388671875
0.668701171875
0.02578125
0.0217529296875
0.022558593749999998
0.026586914062499998
0.02900390625
0.019335937499999997
0.0201416015625
0.023364257812499997
0.045117187499999996
0.10957031249999999
0.15227050781249998
0.24895019531249998
0.024169921875
0.027392578124999997
0.020947265625
0.0249755859375
0.019335937499999997
0.024169921875
0.023364257812499997
0.020947265625
0.023364257812499997
0.7581298828124999
1.6056884765625
2.09150390625
2.44921875
2.8657470703124996
3.0268798828124996
3.0268798828124996
3.02607421875
3.027685546875
3.0268798828124996
3.0301025390625
3.0252685546875
3.0252685546875
3.0220458984375
3.027685546875
3.029296875
3.029296875
3.0333251953125
3.0284912109374997
2.4145751953125
1.3156494140625
0.2022216796875
0.023364257812499997
0.024169921875
0.0249755859375
0.024169921875
0.023364257812499997
0.023364257812499997
0.023364257812499997
0.02578125
0.0249755859375
0.0765380859375
0.1740234375
0.01611328125
0.02900390625
0.023364257812499997
0.024169921875
0.02578125
0.0298095703125
0.023364257812499997
0.024169921875
0.0249755859375
0.6388916015624999
1.2511962890625
1.7652099609374998
2.1809326171875
2.666748046875
2.8858886718749996
3.0268798828124996
3.0301025390625
3.0252685546875
3.0228515624999996
3.0309082031249996
3.0228515624999996
3.02607421875
3.02607421875
3.0244628906249997
3.027685546875
3.021240234375
3.027685546875
3.0244628906249997
2.281640625
1.7217041015624999
0.31743164062499996
0.023364257812499997
0.0217529296875
0.024169921875
0.023364257812499997
0.024169921875
0.020947265625
0.0249755859375
0.027392578124999997
0.024169921875
0.0314208984375
0.1426025390625
0.19658203124999998
0.023364257812499997
0.0201416015625
0.020947265625
0.02900390625
0.022558593749999998
0.020947265625
0.024169921875
0.027392578124999997
0.78310546875
1.40830078125
1.9062011718749998
2.3477050781249997
2.7368408203124996
3.018017578125
3.02607421875
3.0268798828124996
3.0284912109374997
3.02607421875
3.029296875
3.02607421875
3.0268798828124996
3.0204345703124997
3.0284912109374997
3.0268798828124996
3.02607421875
3.027685546875
3.0244628906249997
3.02607421875
1.7128417968749998
0.6550048828124999
0.08620605468749999
0.024169921875
0.02578125
0.02900390625
0.024169921875
0.0217529296875
0.024169921875
0.0249755859375
0.0249755859375
0.072509765625
0.07412109374999999
0.053173828124999996
0.024169921875
0.02578125
0.0249755859375
0.0201416015625
0.027392578124999997
0.020947265625
0.024169921875
0.024169921875
0.022558593749999998
0.6501708984375
1.4767822265625
1.8731689453125
2.29453125
2.70380859375
3.0268798828124996
3.02607421875
3.0244628906249997
3.0252685546875
3.0317138671875
3.0317138671875
3.02607421875
3.02607421875
3.0268798828124996
3.0252685546875
3.02607421875
3.02607421875
3.02607421875
3.02607421875
2.1422607421874997
0.9353759765624999
0.0249755859375
0.0201416015625
0.023364257812499997
0.0217529296875
0.0249755859375
0.024169921875
0.0281982421875
0.019335937499999997
0.0249755859375
0.0217529296875
0.09829101562499999
0.15629882812499998
0.022558593749999998
0.022558593749999998
0.020947265625
0.020947265625
0.024169921875
0.027392578124999997
0.024169921875
0.027392578124999997
0.022558593749999998
0.62841796875
1.213330078125
1.738623046875
2.1325927734375
2.5757080078124996
2.8472167968749997
2.8681640625
3.0268798828124996
3.027685546875
3.02607421875
3.029296875
3.02607421875
3.027685546875
3.0268798828124996
3.02607421875
3.0244628906249997
3.0268798828124996
3.0268798828124996
3.0244628906249997
2.25263671875
0.8483642578124999
0.0249755859375
0.026586914062499998
0.024169921875
0.024169921875
0.026586914062499998
0.0298095703125
0.024169921875
0.023364257812499997
0.0217529296875
0.027392578124999997
0.04833984375
0.16032714843749998
0.1313232421875
0.0249755859375
0.02578125
0.023364257812499997
0.019335937499999997
0.024169921875
0.022558593749999998
0.019335937499999997
0.0217529296875
0.0346435546875
0.9232910156249999
1.413134765625
1.9746826171874998
2.3952392578125
2.7005859374999996
3.029296875
3.0244628906249997
3.02607421875
3.0244628906249997
3.021240234375
3.027685546875
3.0220458984375
3.027685546875
3.029296875
3.0284912109374997
3.0309082031249996
3.0220458984375
3.027685546875
2.69091796875
1.4493896484375
0.42136230468749997
0.019335937499999997
0.023364257812499997
0.023364257812499997
0.027392578124999997
0.0281982421875
0.0249755859375
0.02578125
0.02578125
0.017724609375
0.024169921875
0.1297119140625
0.11440429687499999
0.0249755859375
0.024169921875
0.0217529296875
0.024169921875
0.0249755859375
0.0281982421875
0.02578125
0.023364257812499997
0.02900390625
0.881396484375
1.611328125
2.03994140625
2.4371337890625
2.9221435546874996
3.027685546875
3.0309082031249996
3.02607421875
3.0317138671875
3.02607421875
3.0228515624999996
3.02607421875
3.0244628906249997
3.0236572265625
3.0268798828124996
3.02607421875
3.02607421875
3.027685546875
2.5088378906249997
1.8095214843749998
0.6654785156249999
0.020947265625
0.026586914062499998
0.023364257812499997
0.024169921875
0.0281982421875
0.0201416015625
0.02578125
0.0249755859375
0.056396484375
0.072509765625
0.15468749999999998
0.19497070312499998
0.0249755859375
0.024169921875
0.020947265625
0.0249755859375
0.0249755859375
0.023364257812499997
0.0249755859375
0.024169921875
0.023364257812499997
1.0892578124999999
1.65966796875
2.012548828125
2.4854736328125
2.6321044921874996
3.0252685546875
2.9350341796875
3.027685546875
3.0228515624999996
3.0236572265625
3.0252685546875
2.9801513671874997
3.0252685546875
3.027685546875
3.02607421875
3.0220458984375
3.01962890625
3.0236572265625
3.0268798828124996
2.1551513671875
0.6251953124999999
0.023364257812499997
0.027392578124999997
0.022558593749999998
0.02578125
0.023364257812499997
0.02900390625
0.026586914062499998
0.022558593749999998
0.02578125
0.054785156249999994
0.08620605468749999
0.12568359375
0.026586914062499998
0.02900390625
0.0249755859375
0.0249755859375
0.0217529296875
0.0249755859375
0.0249755859375
0.024169921875
0.0298095703125
0.526904296875
1.0973144531249999
1.7652099609374998
2.13984375
2.5547607421875
2.8931396484375
3.02607421875
3.02607421875
3.029296875
3.02607421875
3.029296875
3.02607421875
3.0244628906249997
3.02607421875
3.029296875
3.0333251953125
3.027685546875
3.02607421875
3.027685546875
2.354150390625
1.0973144531249999
0.21672363281249998
0.023364257812499997
0.022558593749999998
0.0249755859375
0.024169921875
0.0249755859375
0.0249755859375
0.0217529296875
0.0281982421875
0.020947265625
0.04189453125
0.049145507812499996
0.024169921875
0.022558593749999998
0.024169921875
0.0249755859375
0.02578125
0.023364257812499997
0.024169921875
0.026586914062499998
0.0217529296875
0.023364257812499997
0.9289306640624999
1.4469726562499998
1.899755859375
2.3638183593749997
2.7529541015624996
3.0252685546875
3.02607421875
3.02607421875
3.0268798828124996
3.0244628906249997
3.029296875
3.0397705078125
3.0268798828124996
3.027685546875
3.0244628906249997
3.0301025390625
3.0317138671875
3.0244628906249997
2.3477050781249997
1.4445556640625
0.1812744140625
0.022558593749999998
0.027392578124999997
0.024169921875
0.026586914062499998
0.024169921875
0.0249755859375
0.026586914062499998
0.024169921875
0.0249755859375
0.033837890625
0.0394775390625
0.033837890625
0.022558593749999998
0.022558593749999998
0.022558593749999998
0.023364257812499997
0.020947265625
0.0249755859375
0.023364257812499997
0.0249755859375
0.0249755859375
1.1222900390625
1.58232421875
1.912646484375
2.4339111328125
2.7013916015625
2.969677734375
3.02607421875
3.02607421875
3.0268798828124996
3.0284912109374997
3.0268798828124996
3.0252685546875
3.029296875
3.0244628906249997
3.027685546875
3.02607421875
3.0244628906249997
3.02607421875
3.02607421875
1.690283203125
0.3923583984375
0.024169921875
0.0249755859375
0.022558593749999998
0.024169921875
0.023364257812499997
0.024169921875
0.026586914062499998
0.0298095703125
0.024169921875
0.0298095703125
0.11923828125
0.15468749999999998
0.020947265625
0.024169921875
0.02578125
0.02578125
0.0249755859375
0.023364257812499997
0.023364257812499997
0.0281982421875
0.0249755859375
0.8193603515625
1.4115234374999999
1.9916015624999999
2.3742919921875
2.7465087890624997
3.02607421875
3.0268798828124996
3.029296875
3.02607421875
3.0268798828124996
3.0252685546875
2.9849853515625
3.027685546875
3.02607421875
3.027685546875
3.027685546875
3.0252685546875
3.02607421875
3.0204345703124997
1.8780029296874998
0.7460449218749999
0.0217529296875
0.0281982421875
0.0217529296875
0.023364257812499997
0.02578125
0.020947265625
0.0281982421875
0.024169921875
0.020947265625
0.022558593749999998
0.0346435546875
0.17482910156249998
0.027392578124999997
0.0281982421875
0.026586914062499998
0.023364257812499997
0.0201416015625
0.024169921875
0.027392578124999997
0.02578125
0.0249755859375
0.0217529296875
0.9216796875
1.7184814453125
1.9311767578124999
2.3388427734375
2.7730957031249996
2.9906249999999996
3.0244628906249997
3.02607421875
3.02607421875
3.027685546875
3.0236572265625
2.9970703125
3.0268798828124996
3.0236572265625
3.0268798828124996
3.0268798828124996
3.02607421875
3.029296875
2.2163818359375
1.0610595703124999
0.12246093749999999
0.023364257812499997
0.0249755859375
0.024169921875
0.024169921875
0.02578125
0.023364257812499997
0.0201416015625
0.027392578124999997
0.023364257812499997
0.027392578124999997
0.08137207031249999
0.0708984375
0.023364257812499997
0.023364257812499997
0.024169921875
0.024169921875
0.0281982421875
0.023364257812499997
0.02578125
0.0459228515625
0.1168212890625
1.0916748046875
1.545263671875
1.9400390625
2.4532470703125
2.5877929687499996
2.924560546875
3.0236572265625
3.027685546875
3.0284912109374997
3.0268798828124996
3.0107666015624996
3.0244628906249997
3.02607421875
3.0268798828124996
3.0244628906249997
3.029296875
3.0244628906249997
3.0268798828124996
2.1938232421875
1.5799072265624998
0.22880859374999998
0.024169921875
0.0249755859375
0.0201416015625
0.024169921875
0.024169921875
0.027392578124999997
0.024169921875
0.0249755859375
0.02578125
0.0845947265625
0.11440429687499999
0.0636474609375
0.0217529296875
0.024169921875
0.024169921875
0.024169921875
0.0249755859375
0.024169921875
0.058813476562499994
0.1345458984375
0.2263916015625
0.2908447265625
0.35288085937499997
0.8685058593749999
1.5122314453124999
1.8578613281249998
2.3315917968749997
2.6699707031249997
2.7513427734375
2.7908203124999997
2.9438964843749997
3.0236572265625
3.0268798828124996
3.02607421875
3.0228515624999996
3.02607421875
3.0244628906249997
3.0244628906249997
3.02607421875
3.029296875
1.5170654296875
0.43022460937499996
0.0217529296875
0.024169921875
0.023364257812499997
0.027392578124999997
0.024169921875
0.023364257812499997
0.02578125
0.024169921875
0.024169921875
0.02578125
0.0765380859375
0.11440429687499999
0.02578125
0.0298095703125
0.053173828124999996
0.130517578125
0.2255859375
0.29326171875
0.35368652343749996
0.43828124999999996
1.3083984375
1.796630859375
2.4806396484374997
2.8077392578125
3.0301025390625
3.0244628906249997
3.0252685546875
3.0268798828124996
3.0309082031249996
3.0268798828124996
2.8230468749999997
2.9930419921875
2.9447021484375
3.0244628906249997
3.029296875
3.02607421875
3.0252685546875
3.0284912109374997
3.0252685546875
3.0236572265625
1.8755859375
0.5953857421875
0.0298095703125
0.0201416015625
0.024169921875
0.0217529296875
0.023364257812499997
0.020947265625
0.024169921875
0.019335937499999997
0.0314208984375
0.02578125
0.024169921875
0.026586914062499998
0.027392578124999997
0.023364257812499997
0.023364257812499997
0.024169921875
0.0249755859375
0.0362548828125
0.1329345703125
0.2038330078125
1.6322753906249998
2.3597900390624997
2.937451171875
3.0228515624999996
3.0268798828124996
3.0309082031249996
3.0284912109374997
3.0268798828124996
3.0268798828124996
3.0252685546875
3.027685546875
2.9438964843749997
2.8794433593749997
2.7916259765625
3.02607421875
3.02607421875
3.0268798828124996
3.0244628906249997
3.0284912109374997
3.0268798828124996
2.2324951171875
1.1142333984375
0.042700195312499994
0.022558593749999998
0.027392578124999997
0.024169921875
0.023364257812499997
0.023364257812499997
0.023364257812499997
0.0298095703125
0.023364257812499997
0.020947265625
0.023364257812499997
0.0249755859375
0.024169921875
0.024169921875
0.0249755859375
0.02578125
0.020947265625
0.024169921875
0.023364257812499997
0.024169921875
1.2020507812499999
2.34287109375
2.7271728515625
2.9978759765625
3.0309082031249996
3.029296875
3.029296875
3.02607421875
3.0204345703124997
3.0252685546875
3.0123779296874997
3.003515625
2.9430908203125
2.811767578125
3.0244628906249997
3.0252685546875
3.029296875
3.0244628906249997
3.0228515624999996
3.0317138671875
2.1720703125
1.03125
0.023364257812499997
0.0201416015625
0.023364257812499997
0.0281982421875
0.024169921875
0.022558593749999998
0.023364257812499997
0.0201416015625
0.0314208984375
0.024169921875
0.024169921875
0.024169921875
0.02578125
0.0201416015625
0.024169921875
0.023364257812499997
0.024169921875
0.019335937499999997
0.027392578124999997
0.024169921875
1.0642822265625
1.843359375
2.4210205078125
2.7980712890625
2.9285888671875
3.0301025390625
3.02607421875
3.0252685546875
3.0268798828124996
2.8633300781249997
2.8480224609375
2.4983642578125
2.721533203125
2.6530517578125
3.0244628906249997
3.02607421875
3.02607421875
3.02607421875
3.029296875
3.0268798828124996
2.5708740234375
1.4920898437499999
0.21108398437499998
0.023364257812499997
0.02578125
0.024169921875
0.0281982421875
0.0249755859375
0.0249755859375
0.022558593749999998
0.024169921875
0.027392578124999997
0.024169921875
0.023364257812499997
0.0281982421875
0.0249755859375
0.0249755859375
0.02578125
0.024169921875
0.0249755859375
0.023364257812499997
0.024169921875
0.143408203125
1.751513671875
2.415380859375
2.86494140625
2.9986816406249996
3.027685546875
3.0268798828124996
3.0228515624999996
3.02607421875
2.9946533203124996
2.931005859375
2.8480224609375
2.8528564453125
2.6901123046874997
2.679638671875
3.02607421875
3.0268798828124996
3.027685546875
3.02607421875
3.0244628906249997
3.0301025390625
1.9875732421874999
0.37785644531249996
0.024169921875
0.026586914062499998
0.0249755859375
0.0249755859375
0.023364257812499997
0.030615234374999998
0.023364257812499997
0.02900390625
0.0249755859375
0.024169921875
0.022558593749999998
0.026586914062499998
0.020947265625
0.023364257812499997
0.0201416015625
0.022558593749999998
0.02578125
0.023364257812499997
0.024169921875
0.024169921875
1.2624755859374999
2.3654296875
2.7690673828124996
2.9841796874999997
3.02607421875
3.0284912109374997
3.02607421875
3.027685546875
3.02607421875
2.8705810546875
2.8093505859374996
2.7424804687499997
2.6852783203125
2.5475097656249996
3.0204345703124997
3.0317138671875
3.0333251953125
3.0244628906249997
3.0268798828124996
3.021240234375
2.1720703125
0.749267578125
0.02578125
0.020947265625
0.024169921875
0.019335937499999997
0.026586914062499998
0.024169921875
0.026586914062499998
0.027392578124999997
0.024169921875
0.024169921875
0.024169921875
0.023364257812499997
0.018530273437499998
0.019335937499999997
0.0249755859375
0.026586914062499998
0.024169921875
0.024169921875
0.02900390625
0.0249755859375
1.2383056640624999
2.1760986328125
2.57490234375
2.85849609375
2.9841796874999997
3.0309082031249996
3.027685546875
3.0228515624999996
3.0284912109374997
2.9906249999999996
2.9575927734375
2.8874999999999997
2.9503417968749996
2.6321044921874996
3.027685546875
3.02607421875
3.027685546875
3.0244628906249997
3.02607421875
3.0268798828124996
1.9521240234375
1.1319580078125
0.026586914062499998
0.024169921875
0.023364257812499997
0.023364257812499997
0.0249755859375
0.023364257812499997
0.027392578124999997
0.02900390625
0.0201416015625
0.0201416015625
0.0201416015625
0.017724609375
0.022558593749999998
0.022558593749999998
0.019335937499999997
0.024169921875
0.024169921875
0.018530273437499998
0.024169921875
0.0249755859375
1.3897705078125
2.067333984375
2.7062255859374997
2.9656494140625
3.02607421875
3.0204345703124997
3.029296875
3.02607421875
3.021240234375
2.9511474609375
2.900390625
2.8576904296874996
2.7513427734375
2.6337158203124997
3.027685546875
3.0220458984375
3.0228515624999996
3.02607421875
3.027685546875
3.0268798828124996
2.8109619140624997
1.6733642578124999
0.4036376953125
0.0281982421875
0.02578125
0.023364257812499997
0.0201416015625
0.027392578124999997
0.0249755859375
0.023364257812499997
0.0201416015625
0.024169921875
0.027392578124999997
0.020947265625
0.024169921875
0.023364257812499997
0.0249755859375
0.0249755859375
0.023364257812499997
0.024169921875
0.024169921875
0.024169921875
0.022558593749999998
1.4800048828124999
2.4000732421874997
2.7134765625
2.8536621093749996
2.9583984374999996
3.0268798828124996
3.02607421875
3.0236572265625
3.02607421875
3.0156005859375
2.9414794921875
2.7722900390625
2.599072265625
2.5152832031249996
3.0268798828124996
3.0268798828124996
3.0204345703124997
3.0268798828124996
3.0252685546875
3.027685546875
2.0600830078125
0.3746337890625
0.02578125
0.023364257812499997
0.0201416015625
0.02900390625
0.019335937499999997
0.02578125
0.022558593749999998
0.023364257812499997
0.02578125
0.024169921875
0.023364257812499997
0.0249755859375
0.0249755859375
0.0249755859375
0.0249755859375
0.024169921875
0.023364257812499997
0.0281982421875
0.024169921875
0.024169921875
1.4655029296875
2.2623046875
2.6361328124999996
2.8633300781249997
3.0091552734375
3.0309082031249996
3.02607421875
3.029296875
2.9898193359375
2.95517578125
2.9173095703125
2.82626953125
2.7303955078124997
2.60068359375
3.0301025390625
3.0252685546875
3.02607421875
3.0301025390625
3.027685546875
3.02607421875
1.877197265625
0.7798828124999999
0.027392578124999997
0.0249755859375
0.023364257812499997
0.02578125
0.024169921875
0.02900390625
0.018530273437499998
0.0281982421875
0.027392578124999997
0.0249755859375
0.024169921875
0.024169921875
0.022558593749999998
0.019335937499999997
0.0217529296875
0.0249755859375
0.024169921875
0.024169921875
0.023364257812499997
0.024169921875
1.2262207031249999
2.2695556640625
2.8633300781249997
3.0228515624999996
3.0317138671875
3.0301025390625
3.027685546875
3.02607421875
3.021240234375
2.9044189453125
2.8641357421875
2.8133789062499996
2.7078369140625
2.591015625
3.02607421875
3.0268798828124996
3.027685546875
3.029296875
3.0268798828124996
3.0236572265625
2.144677734375
1.3059814453124998
0.0217529296875
0.020947265625
0.024169921875
0.0201416015625
0.02578125
0.0201416015625
0.0281982421875
0.0249755859375
0.022558593749999998
0.02900390625
0.024169921875
0.020947265625
0.02578125
0.023364257812499997
0.027392578124999997
0.022558593749999998
0.0217529296875
0.023364257812499997
0.0281982421875
0.023364257812499997
0.133740234375
2.270361328125
2.8399658203125
3.0268798828124996
3.02607421875
3.0268798828124996
3.0268798828124996
3.0317138671875
3.02607421875
3.0236572265625
3.0244628906249997
3.0301025390625
3.0228515624999996
3.0099609375
3.027685546875
3.02607421875
3.0268798828124996
3.021240234375
3.0236572265625
3.0244628906249997
3.0244628906249997
3.0268798828124996
3.0252685546875
3.02607421875
3.027685546875
3.02607421875
3.0252685546875
3.029296875
3.0284912109374997
3.02607421875
3.029296875
3.027685546875
3.027685546875
3.0301025390625
3.0252685546875
3.0268798828124996
3.027685546875
3.0228515624999996
3.0268798828124996
3.0301025390625
3.027685546875
3.0244628906249997
3.0309082031249996
3.0268798828124996
3.0268798828124996
3.0268798828124996
3.0268798828124996
3.0301025390625
3.0333251953125
3.027685546875
3.0268798828124996
3.0284912109374997
3.021240234375
3.0268798828124996
3.02607421875
3.02607421875
3.02607421875
3.02607421875
3.0268798828124996
3.0244628906249997
3.0220458984375
3.0268798828124996
3.0236572265625
3.0244628906249997
3.02607421875
3.02607421875
3.0284912109374997
3.0220458984375
3.029296875
3.02607421875
3.0309082031249996
3.02607421875
3.029296875
3.029296875
3.027685546875
2.9761230468749997
2.399267578125
1.7531249999999998
0.6485595703125
0.800830078125
0.6485595703125
0.36979980468749996
0.37382812499999996
0.3544921875
0.6872314453124999
0.47373046874999997
0.275537109375
0.0829833984375
0.0249755859375
0.024169921875
0.0249755859375
0.024169921875
0.0249755859375
0.043505859375
0.0249755859375
0.0281982421875
0.043505859375
0.075732421875
0.08942871093749999
0.7234863281249999
0.34562988281249996
0.2513671875
0.32951660156249996
0.27392578125
0.23928222656249998
0.0604248046875
0.1393798828125
0.270703125
0.4004150390625
0.5099853515625
0.523681640625
0.55107421875
0.636474609375
0.6590332031249999
0.7226806640625
0.7275146484374999
0.7863281249999999
0.8056640625
0.8346679687499999
0.8451416015625
0.291650390625
0.7871337890625
0.9410156249999999
0.958740234375
1.0191650390625
1.08603515625
1.5218994140625
1.4493896484375
1.2334716796875
1.155322265625
1.1416259765624999
1.1408203125
1.1690185546875
1.1802978515625
1.1883544921875
1.173046875
1.1545166015625
1.1915771484375
1.216552734375
1.2020507812499999
1.24072265625
1.7362060546875
1.5428466796875
1.2673095703125
1.3083984375
1.2745605468749999
1.1915771484375
1.0167480468749999
1.06025390625
1.0803955078125
1.219775390625
1.2495849609374998
1.2689208984375
1.2930908203125
1.32451171875
1.33740234375
1.348681640625
1.377685546875
1.3784912109374998
1.3792968749999999
1.380908203125
1.3881591796875
0.8773681640625
1.2882568359375
1.4268310546874998
1.4123291015625
1.445361328125
1.5218994140625
1.7490966796874998
1.8707519531249999
1.5670166015625
1.5170654296875
1.4880615234374999
1.4510009765624998
1.4638916015624999
1.4638916015624999
1.4840332031249999
1.4679199218749999
1.4510009765624998
1.4711425781249998
1.461474609375
1.461474609375
1.4767822265625
1.6322753906249998
1.7023681640625
1.474365234375
1.4928955078125
1.4526123046875
1.3736572265625
1.2987304687499999
1.2511962890625
1.2665039062499999
1.3204833984375
1.3954101562499999
1.4373046875
1.4276367187499999
1.4671142578124998
1.477587890625
1.46953125
1.493701171875
1.4888671875
1.4953124999999998
1.5436523437499998
1.4816162109375
1.042529296875
1.2785888671874999
1.525927734375
1.490478515625
1.52109375
1.6218017578125
1.722509765625
1.9787109374999998
1.7499023437499999
1.5919921874999998
1.5283447265624999
1.51787109375
1.5380126953125
1.5283447265624999
1.5315673828124998
1.5162597656249999
1.5025634765625
1.5033691406249998
1.4961181640624999
1.5114257812499998
1.5082031249999999
1.62744140625
1.87236328125
1.5347900390625
1.5033691406249998
1.5025634765625
1.3929931640625
1.3494873046875
1.284228515625
1.2697265624999998
1.36962890625
1.416357421875
1.458251953125
1.4469726562499998
1.4888671875
1.4848388671875
1.5082031249999999
1.5404296874999999
1.5218994140625
1.5057861328125
1.5106201171875
1.51787109375
1.3664062499999998
1.2858398437499998
1.5436523437499998
1.525927734375
1.5355957031249998
1.6371093749999999
1.662890625
1.9779052734375
1.716064453125
1.606494140625
1.5678222656249998
1.5444580078124999
1.5428466796875
1.538818359375
1.546875
1.5347900390625
1.5114257812499998
1.513037109375
1.5017578125
1.5033691406249998
1.5146484375
1.6048828124999999
1.899755859375
1.5895751953125
1.558154296875
1.5331787109375
1.456640625
1.4034667968749999
1.281005859375
1.3229003906249999
1.348681640625
1.4195800781249999
1.4719482421874999
1.4791992187499998
1.4767822265625
1.5025634765625
1.4832275390624998
1.5283447265624999
1.4542236328125
1.3478759765625
1.4469726562499998
1.4816162109375
1.3591552734374999
1.110205078125
1.546875
1.53720703125
1.5170654296875
1.5911865234375
1.6620849609375
1.9674316406249999
1.7692382812499998
1.6177734375
1.5726562499999999
1.56298828125
1.5428466796875
1.56298828125
1.554931640625
1.554931640625
1.5170654296875
1.5146484375
1.5315673828124998
1.5218994140625
1.5331787109375
1.5082031249999999
1.8957275390625
1.5726562499999999
1.5146484375
1.5331787109375
1.4397216796874999
1.4284423828125
1.3551269531249999
1.351904296875
1.3897705078125
1.426025390625
1.477587890625
1.5025634765625
1.482421875
1.5146484375
1.5114257812499998
1.5275390624999998
1.5283447265624999
1.5331787109375
1.53720703125
1.5460693359375
1.4510009765624998
1.1271240234375
1.493701171875
1.546875
1.5476806640624998
1.5960205078124998
1.625830078125
1.8635009765625
1.8199951171875
1.6459716796875
1.574267578125
1.554931640625
1.5597656249999998
1.5509033203125
1.5573486328125
1.5509033203125
1.525927734375
1.5114257812499998
1.5082031249999999
1.529150390625
1.52109375
1.5106201171875
1.93681640625
1.635498046875
1.5001464843749999
1.53076171875
1.5001464843749999
1.4066894531249998
1.2818115234374998
1.3309570312499999
1.3784912109374998
1.4381103515625
1.4671142578124998
1.4848388671875
1.4880615234374999
1.513037109375
1.513037109375
1.5041748046874999
1.5347900390625
1.546875
1.5380126953125
1.5154541015624998
1.5267333984375
1.1077880859375
1.4977294921875
1.542041015625
1.5380126953125
1.5847412109374999
1.6218017578125
1.835302734375
1.7716552734375
1.6234130859375
1.5782958984375
1.5557373046874998
1.542041015625
1.5573486328125
1.538818359375
1.55009765625
1.5380126953125
1.5267333984375
1.5323730468749999
1.5283447265624999
1.5235107421874998
1.506591796875
1.9013671875
1.6451660156249999
1.50498046875
1.53076171875
1.4953124999999998
1.429248046875
1.2914794921875
1.3285400390625
1.36962890625
1.4252197265625
1.4622802734375
1.464697265625
1.4872558593749998
1.5017578125
1.5170654296875
1.5621826171875
1.545263671875
1.5146484375
1.529150390625
1.53720703125
1.53076171875
1.106982421875
1.4058837890625
1.5831298828125
1.5476806640624998
1.574267578125
1.6234130859375
1.791796875
1.8538330078124998
1.6701416015625
1.5645996093749999
1.5476806640624998
1.5533203125
1.5645996093749999
1.5404296874999999
1.5412353515625
1.5267333984375
1.49853515625
1.525927734375
1.5299560546875
1.5033691406249998
1.52109375
1.7531249999999998
1.6459716796875
1.4912841796874998
1.529150390625
1.5009521484375
1.432470703125
1.345458984375
1.3212890625
1.3527099609375
1.4252197265625
1.4711425781249998
1.4840332031249999
1.4912841796874998
1.5146484375
1.5073974609374998
1.5323730468749999
1.5275390624999998
1.5154541015624998
1.5267333984375
1.529150390625
1.5331787109375
1.1158447265625
1.377685546875
1.542041015625
1.533984375
1.571044921875
1.6306640625
1.6636962890625
1.88525390625
1.6854492187499999
1.5702392578125
1.5605712890624999
1.5654052734375
1.5645996093749999
1.5460693359375
1.545263671875
1.5412353515625
1.5194824218749998
1.5299560546875
1.5283447265624999
1.51787109375
1.506591796875
1.6862548828125
1.7813232421874998
1.5243164062499999
1.525927734375
1.5033691406249998
1.4638916015624999
1.3430419921874999
1.3382080078124998
1.3349853515624999
1.4284423828125
1.480810546875
1.4880615234374999
1.4655029296875
1.482421875
1.5218994140625
1.5057861328125
1.542041015625
1.5235107421874998
1.5251220703125
1.538818359375
1.5396240234374998
1.3301513671874998
1.3768798828125
1.55009765625
1.53720703125
1.5315673828124998
1.6298583984375
1.6604736328124998
1.944873046875
1.667724609375
1.5895751953125
1.56298828125
1.546875
1.5492919921875
1.5492919921875
1.5412353515625
1.5323730468749999
1.5138427734375
1.5243164062499999
1.5202880859374999
1.5323730468749999
1.5202880859374999
1.6645019531249998
1.8183837890624999
1.533984375
1.5146484375
1.5243164062499999
1.448583984375
1.4026611328124998
1.297119140625
1.3422363281249998
1.3913818359374999
1.461474609375
1.4848388671875
1.4800048828124999
1.513037109375
1.5154541015624998
1.5170654296875
1.5331787109375
1.52109375
1.5283447265624999
1.5275390624999998
1.5541259765625
1.3422363281249998
1.219775390625
1.53076171875
1.525927734375
1.529150390625
1.603271484375
1.6725585937499998
1.9062011718749998
1.735400390625
1.5879638671874998
1.5662109375
1.56298828125
1.5645996093749999
1.5533203125
1.5662109375
1.5557373046874998
1.529150390625
1.5202880859374999
1.5355957031249998
1.5194824218749998
1.5025634765625
1.51787109375
1.90458984375
1.5243164062499999
1.513037109375
1.5235107421874998
1.456640625
1.397021484375
1.3124267578125
1.3349853515624999
1.397021484375
1.4413330078125
1.4840332031249999
1.490478515625
1.4945068359375
1.5082031249999999
1.5122314453124999
1.5267333984375
1.5436523437499998
1.5202880859374999
1.533984375
1.5315673828124998
1.5412353515625
1.1980224609374999
1.53076171875
1.5565429687499999
1.546875
1.59521484375
1.6266357421875
1.896533203125
1.7748779296875
1.6234130859375
1.5678222656249998
1.55009765625
1.5589599609375
1.5460693359375
1.5565429687499999
1.5541259765625
1.5331787109375
1.5082031249999999
1.5194824218749998
1.52109375
1.5194824218749998
1.5235107421874998
1.909423828125
1.6153564453125
1.50498046875
1.529150390625
1.5001464843749999
1.397021484375
1.2979248046874998
1.327734375
1.3607666015625
1.4461669921875
1.461474609375
1.5122314453124999
1.4993408203124998
1.5041748046874999
1.5090087890625
1.53076171875
1.55009765625
1.5364013671874999
1.5355957031249998
1.5243164062499999
1.5355957031249998
1.116650390625
1.5138427734375
1.5162597656249999
1.5218994140625
1.59521484375
1.638720703125
1.9013671875
1.8143554687499999
1.6081054687499998
1.5597656249999998
1.5702392578125
1.5509033203125
1.5557373046874998
1.5364013671874999
1.5299560546875
1.5186767578125
1.5347900390625
1.525927734375
1.5186767578125
1.52109375
1.513037109375
1.9102294921874998
1.6209960937499999
1.4872558593749998
1.5299560546875
1.5041748046874999
1.4373046875
1.3583496093749998
1.3398193359375
1.3583496093749998
1.4276367187499999
1.47275390625
1.4928955078125
1.4671142578124998
1.5114257812499998
1.51787109375
1.5162597656249999
1.542041015625
1.529150390625
1.5396240234374998
1.577490234375
1.542041015625
1.1061767578125
1.4228027343749998
1.53720703125
1.525927734375
1.55009765625
1.6105224609375
1.7571533203124998
1.85625
1.6733642578124999
1.58232421875
1.5637939453124998
1.55009765625
1.546875
1.545263671875
1.5428466796875
1.5275390624999998
1.5138427734375
1.5347900390625
1.5380126953125
1.533984375
1.5106201171875
1.7684326171875
1.62744140625
1.496923828125
1.5347900390625
1.5122314453124999
1.4389160156249998
1.3083984375
1.3414306640625
1.3494873046875
1.43408203125
1.4518066406249999
1.4791992187499998
1.490478515625
1.5218994140625
1.5001464843749999
1.5194824218749998
1.5364013671874999
1.529150390625
1.5380126953125
1.533984375
1.5444580078124999
1.106982421875
1.432470703125
1.5637939453124998
1.5444580078124999
1.56943359375
1.61455078125
1.6717529296875
1.8651123046875
1.6669189453125
1.5879638671874998
1.5525146484374999
1.5275390624999998
1.5509033203125
1.5509033203125
1.545263671875
1.5331787109375
1.5299560546875
1.5380126953125
1.5243164062499999
1.5106201171875
1.513037109375
1.7611816406249998
1.754736328125
1.52109375
1.5315673828124998
1.5218994140625
1.4719482421874999
1.3607666015625
1.3212890625
1.3446533203125
1.4316650390624999
1.456640625
1.4735595703125
1.4840332031249999
1.5001464843749999
1.5090087890625
1.5057861328125
1.5331787109375
1.5275390624999998
1.529150390625
1.5404296874999999
1.53720703125
1.2503906249999999
1.2850341796875
1.5509033203125
1.529150390625
1.5404296874999999
1.6129394531249999
1.6967285156249998
1.9078125
1.667724609375
1.5766845703124999
1.5678222656249998
1.5492919921875
1.5323730468749999
1.5460693359375
1.5396240234374998
1.5444580078124999
1.5283447265624999
1.529150390625
1.5154541015624998
1.5162597656249999
1.51787109375
1.4880615234374999
1.7611816406249998
1.538818359375
1.5186767578125
1.53076171875
1.445361328125
1.405078125
1.3188720703124999
1.3349853515624999
1.393798828125
1.4655029296875
1.496923828125
1.474365234375
1.5025634765625
1.506591796875
1.5243164062499999
1.5347900390625
1.529150390625
1.525927734375
1.5355957031249998
1.6089111328124999
1.2947021484374999
1.2560302734375
1.5323730468749999
1.5146484375
1.5460693359375
1.6081054687499998
1.67578125
1.8973388671875
1.7523193359375
1.63388671875
1.538818359375
1.5355957031249998
1.533984375
1.5645996093749999
1.5654052734375
1.55009765625
1.5243164062499999
1.5138427734375
1.51787109375
1.5082031249999999
1.5267333984375
1.5364013671874999
1.8908935546874999
1.5275390624999998
1.5146484375
1.5267333984375
1.4437499999999999
1.416357421875
1.3148437499999999
1.335791015625
1.3946044921874998
1.458251953125
1.4800048828124999
1.4864501953125
1.4961181640624999
1.5017578125
1.5275390624999998
1.538818359375
1.5396240234374998
1.5355957031249998
1.53720703125
1.52109375
1.5202880859374999
1.2366943359375
1.5476806640624998
1.5605712890624999
1.5436523437499998
1.5927978515624999
1.6282470703124998
1.88525390625
1.722509765625
1.6177734375
1.5509033203125
1.5355957031249998
1.542041015625
1.5573486328125
1.558154296875
1.5436523437499998
1.513037109375
1.525927734375
1.5436523437499998
1.5396240234374998
1.5202880859374999
1.5170654296875
1.8989501953124999
1.5919921874999998
1.5170654296875
1.5154541015624998
1.4791992187499998
1.44052734375
1.2826171874999999
1.329345703125
1.377685546875
1.4687255859375
1.4816162109375
1.4872558593749998
1.4800048828124999
1.5170654296875
1.51787109375
1.5323730468749999
1.5315673828124998
1.5331787109375
1.5428466796875
1.5315673828124998
1.5218994140625
1.1174560546874999
1.533984375
1.5509033203125
1.522705078125
1.585546875
1.6169677734374999
1.8586669921874999
1.7821289062499999
1.6234130859375
1.5807128906249999
1.5654052734375
1.5404296874999999
1.5637939453124998
1.554931640625
1.5412353515625
1.5154541015624998
1.5114257812499998
1.5106201171875
1.522705078125
1.529150390625
1.5146484375
1.909423828125
1.5911865234375
1.4953124999999998
1.5492919921875
1.5082031249999999
1.429248046875
1.2898681640624998
1.3285400390625
1.3639892578125
1.43408203125
1.48564453125
1.4848388671875
1.4783935546875
1.5154541015624998
1.5315673828124998
1.5267333984375
1.5355957031249998
1.53720703125
1.5299560546875
1.5267333984375
1.5299560546875
1.0900634765625
1.464697265625
1.542041015625
1.5355957031249998
1.5718505859374998
1.6137451171875
1.786962890625
1.85302734375
1.670947265625
1.5654052734375
1.5565429687499999
1.5525146484374999
1.5509033203125
1.5533203125
1.5460693359375
1.542041015625
1.4993408203124998
1.5347900390625
1.51787109375
1.5162597656249999
1.5122314453124999
1.812744140625
1.7329833984374998
1.5106201171875
1.5186767578125
1.5114257812499998
1.4316650390624999
1.3253173828125
1.3124267578125
1.3857421875
1.4429443359374998
1.461474609375
1.4735595703125
1.477587890625
1.522705078125
1.5041748046874999
1.5146484375
1.5541259765625
1.538818359375
1.53076171875
1.5194824218749998
1.5323730468749999
1.1754638671875
1.4606689453125
1.5517089843749998
1.533984375
1.554931640625
1.6121337890624998
1.7362060546875
1.82080078125
1.6314697265625
1.587158203125
1.574267578125
1.554931640625
1.55009765625
1.542041015625
1.5396240234374998
1.53076171875
1.5073974609374998
1.5162597656249999
1.522705078125
1.529150390625
1.53720703125
1.799853515625
1.7208984374999998
1.5275390624999998
1.51787109375
1.5033691406249998
1.4469726562499998
1.4356933593749999
1.3285400390625
1.348681640625
1.4147460937499998
1.464697265625
1.47275390625
1.482421875
1.52109375
1.5122314453124999
1.5299560546875
1.5323730468749999
1.522705078125
1.529150390625
1.554931640625
1.5154541015624998
1.2012451171875
1.3059814453124998
1.5621826171875
1.5082031249999999
1.5726562499999999
1.5960205078124998
1.6943115234375
1.8981445312499998
1.71123046875
1.5815185546875
1.5621826171875
1.561376953125
1.5686279296874999
1.545263671875
1.5476806640624998
1.533984375
1.5275390624999998
1.5251220703125
1.529150390625
1.5114257812499998
1.5146484375
1.5831298828125
1.7394287109375
1.5106201171875
1.529150390625
1.52109375
1.4389160156249998
1.3784912109374998
1.33740234375
1.345458984375
1.4123291015625
1.44052734375
1.480810546875
1.49853515625
1.493701171875
1.5090087890625
1.5283447265624999
1.5436523437499998
1.529150390625
1.5315673828124998
1.546875
1.5412353515625
1.2374999999999998
1.2930908203125
1.5380126953125
1.5243164062499999
1.5436523437499998
1.593603515625
1.6395263671875
1.9231201171874999
1.732177734375
1.5968261718749999
1.5791015625
1.5557373046874998
1.5347900390625
1.533984375
1.5670166015625
1.545263671875
1.5267333984375
1.5331787109375
1.529150390625
1.5170654296875
1.51787109375
1.5605712890624999
1.844970703125
1.5436523437499998
1.513037109375
1.5299560546875
1.477587890625
1.4010498046875
1.3188720703124999
1.3502929687499998
1.4034667968749999
1.448583984375
1.4751708984374998
1.4840332031249999
1.5009521484375
1.5202880859374999
1.525927734375
1.5154541015624998
1.5347900390625
1.5315673828124998
1.5436523437499998
1.5380126953125
1.4687255859375
1.1690185546875
1.5331787109375
1.53076171875
1.5323730468749999
1.5984375
1.6508056640625
1.9263427734374998
1.6951171875
1.5984375
1.561376953125
1.5597656249999998
1.5541259765625
1.56298828125
1.545263671875
1.5323730468749999
1.5202880859374999
1.5146484375
1.522705078125
1.525927734375
1.5082031249999999
1.5122314453124999
1.8683349609375
1.56943359375
1.5146484375
1.5186767578125
1.46953125
1.4284423828125
1.31162109375
1.340625
1.3792968749999999
1.4348876953124998
1.4679199218749999
1.48564453125
1.5009521484375
1.5202880859374999
1.5251220703125
1.5251220703125
1.5436523437499998
1.53720703125
1.5186767578125
1.533984375
1.4880615234374999
1.1400146484375
1.490478515625
1.546875
1.5396240234374998
1.5766845703124999
1.6395263671875
1.8473876953125
1.7942138671874999
1.6306640625
1.5718505859374998
1.53720703125
1.5476806640624998
1.5565429687499999
1.5597656249999998
1.5573486328125
1.53076171875
1.513037109375
1.5082031249999999
1.5315673828124998
1.525927734375
1.52109375
1.89169921875
1.571044921875
1.5194824218749998
1.53720703125
1.4703369140625
1.4155517578124999
1.316455078125
1.3301513671874998
1.3752685546874999
1.4501953125
1.4622802734375
1.4735595703125
1.4816162109375
1.5154541015624998
1.5106201171875
1.5428466796875
1.5283447265624999
1.5251220703125
1.5412353515625
1.538818359375
1.5404296874999999
1.1295410156249999
1.482421875
1.5565429687499999
1.5315673828124998
1.574267578125
1.6314697265625
1.7450683593749998
1.7958251953125
1.6451660156249999
1.5863525390625
1.5484863281249999
1.5355957031249998
1.5525146484374999
1.5355957031249998
1.5750732421875
1.52109375
1.5275390624999998
1.542041015625
1.533984375
1.5138427734375
1.5057861328125
1.8796142578125
1.667724609375
1.529150390625
1.5323730468749999
1.5057861328125
1.4228027343749998
1.3285400390625
1.3349853515624999
1.3712402343749999
1.4332763671875
1.461474609375
1.4928955078125
1.4888671875
1.5194824218749998
1.5057861328125
1.5162597656249999
1.5170654296875
1.5315673828124998
1.5533203125
1.542041015625
1.5001464843749999
1.132763671875
1.3768798828125
1.5597656249999998
1.5484863281249999
1.5428466796875
1.6089111328124999
1.8046875
1.8570556640625
1.6298583984375
1.5758789062499998
1.5678222656249998
1.5476806640624998
1.5509033203125
1.5347900390625
1.5533203125
1.529150390625
1.5275390624999998
1.529150390625
1.5267333984375
1.529150390625
1.509814453125
1.6765869140624998
1.6814208984374999
1.5202880859374999
1.5315673828124998
1.5041748046874999
1.4276367187499999
1.3607666015625
1.3341796874999998
1.353515625
1.4171630859375
1.4558349609374999
1.4622802734375
1.4872558593749998
1.4920898437499999
1.5347900390625
1.5283447265624999
1.5331787109375
1.525927734375
1.5267333984375
1.5323730468749999
1.5355957031249998
1.15048828125
1.3382080078124998
1.5428466796875
1.5380126953125
1.574267578125
1.6129394531249999
1.6967285156249998
1.9062011718749998
1.7015624999999999
1.6048828124999999
1.5734619140625
1.542041015625
1.5605712890624999
1.533984375
1.5436523437499998
1.5347900390625
1.5275390624999998
1.53076171875
1.5251220703125
1.5057861328125
1.5082031249999999
1.662890625
1.8151611328125
1.5275390624999998
1.5202880859374999
1.5267333984375
1.4703369140625
1.3688232421875
1.3253173828125
1.3551269531249999
1.4300537109375
1.4558349609374999
1.4832275390624998
1.4598632812499999
1.4864501953125
1.513037109375
1.525927734375
1.5460693359375
1.5283447265624999
1.5194824218749998
1.53076171875
1.5509033203125
1.3639892578125
1.332568359375
1.5476806640624998
1.5275390624999998
1.5662109375
1.6201904296874998
1.6604736328124998
1.9142578124999998
1.6822265625
1.5992431640625
1.5670166015625
1.529150390625
1.5436523437499998
1.5525146484374999
1.5565429687499999
1.558154296875
1.5082031249999999
1.5283447265624999
1.533984375
1.5186767578125
1.5194824218749998
1.6218017578125
1.8344970703124999
1.529150390625
1.5323730468749999
1.5170654296875
1.474365234375
1.4058837890625
1.3100097656249998
1.3317626953125
1.3905761718749998
1.4590576171874998
1.4888671875
1.4977294921875
1.4872558593749998
1.5186767578125
1.5218994140625
1.5106201171875
1.5243164062499999
1.525927734375
1.5396240234374998
1.525927734375
1.3825195312499998
1.21494140625
1.542041015625
1.525927734375
1.546875
1.5799072265624998
1.6653076171874999
1.8949218749999999
1.7450683593749998
1.5968261718749999
1.5791015625
1.5605712890624999
1.558154296875
1.5654052734375
1.5509033203125
1.53720703125
1.5218994140625
1.522705078125
1.5186767578125
1.51787109375
1.522705078125
1.5299560546875
1.8240234375
1.5484863281249999
1.5025634765625
1.5170654296875
1.4493896484375
1.41796875
1.32451171875
1.3510986328124999
1.4058837890625
1.4477783203124999
1.4759765624999999
1.4928955078125
1.4961181640624999
1.5146484375
1.5323730468749999
1.525927734375
1.5235107421874998
1.52109375
1.5267333984375
1.525927734375
1.4203857421875
1.1778808593749999
1.5057861328125
1.5460693359375
1.546875
1.5831298828125
1.6330810546874999
1.8699462890624998
1.796630859375
1.6218017578125
1.5758789062499998
1.5573486328125
1.546875
1.5525146484374999
1.558154296875
1.5589599609375
1.529150390625
1.5138427734375
1.5364013671874999
1.5573486328125
1.5235107421874998
1.5283447265624999
1.9118408203125
1.6121337890624998
1.5138427734375
1.4977294921875
1.4945068359375
1.40830078125
1.3188720703124999
1.33740234375
1.380908203125
1.432470703125
1.4469726562499998
1.482421875
1.4864501953125
1.5073974609374998
1.51787109375
1.5235107421874998
1.53720703125
1.5355957031249998
1.542041015625
1.5267333984375
1.5404296874999999
1.1134277343749999
1.5243164062499999
1.542041015625
1.5299560546875
1.5807128906249999
1.625830078125
1.8731689453125
1.7426513671875
1.6201904296874998
1.5791015625
1.574267578125
1.5380126953125
1.5557373046874998
1.5404296874999999
1.5484863281249999
1.5235107421874998
1.5251220703125
1.5202880859374999
1.5243164062499999
1.5283447265624999
1.5243164062499999
1.8981445312499998
1.6346923828125
1.5170654296875
1.5347900390625
1.493701171875
1.432470703125
1.2930908203125
1.34384765625
1.3736572265625
1.4397216796874999
1.4590576171874998
1.4880615234374999
1.493701171875
1.5057861328125
1.5033691406249998
1.5186767578125
1.545263671875
1.525927734375
1.5396240234374998
1.5331787109375
1.513037109375
1.1077880859375
1.4437499999999999
1.5686279296874999
1.5380126953125
1.5597656249999998
1.6121337890624998
1.851416015625
1.8538330078124998
1.6395263671875
1.5726562499999999
1.56298828125
1.5662109375
1.5364013671874999
1.5428466796875
1.5605712890624999
1.5436523437499998
1.5162597656249999
1.5315673828124998
1.5162597656249999
1.5033691406249998
1.52109375
1.7507080078125
1.638720703125
1.5194824218749998
1.53076171875
1.509814453125
1.4461669921875
1.3390136718749999
1.3253173828125
1.3631835937499999
1.4123291015625
1.4510009765624998
1.4832275390624998
1.482421875
1.5033691406249998
1.4928955078125
1.5251220703125
1.5380126953125
1.5283447265624999
1.525927734375
1.533984375
1.5186767578125
1.1271240234375
1.40830078125
1.558154296875
1.5299560546875
1.5637939453124998
1.6218017578125
1.654833984375
1.8884765625
1.6846435546874998
1.5887695312499999
1.5621826171875
1.5476806640624998
1.5637939453124998
1.542041015625
1.5492919921875
1.5460693359375
1.5251220703125
1.5106201171875
1.5041748046874999
1.5243164062499999
1.5194824218749998
1.7249267578124998
1.7692382812499998
1.5154541015624998
1.5323730468749999
1.5283447265624999
1.4501953125
1.3462646484374998
1.3527099609375
1.319677734375
1.4316650390624999
1.45341796875
1.5017578125
1.4832275390624998
1.4864501953125
1.5041748046874999
1.5154541015624998
1.5275390624999998
1.5428466796875
1.5476806640624998
1.5436523437499998
1.5428466796875
1.276171875
1.2302490234374999
1.5637939453124998
1.529150390625
1.5315673828124998
1.6129394531249999
1.7072021484375
1.9352050781249999
1.6653076171874999
1.58232421875
1.5654052734375
1.5492919921875
1.546875
1.546875
1.5621826171875
1.5364013671874999
1.542041015625
1.5090087890625
1.5114257812499998
1.5138427734375
1.5299560546875
1.525927734375
1.7901855468749999
1.538818359375
1.513037109375
1.5315673828124998
1.4501953125
1.4147460937499998
1.3172607421875
1.3317626953125
1.3946044921874998
1.474365234375
1.4703369140625
1.493701171875
1.4920898437499999
1.5082031249999999
1.509814453125
1.525927734375
1.529150390625
1.5355957031249998
1.538818359375
1.5355957031249998
1.3140380859374998
1.2383056640624999
1.5251220703125
1.5484863281249999
1.5299560546875
1.5815185546875
1.6717529296875
1.9198974609375
1.7442626953125
1.5992431640625
1.5589599609375
1.5718505859374998
1.5565429687499999
1.5597656249999998
1.529150390625
1.5541259765625
1.5162597656249999
1.5186767578125
1.5186767578125
1.5186767578125
1.5251220703125
1.5122314453124999
1.9021728515624998
1.5509033203125
1.5235107421874998
1.538818359375
1.4477783203124999
1.4123291015625
1.3301513671874998
1.32451171875
1.3897705078125
1.4316650390624999
1.4622802734375
1.4848388671875
1.482421875
1.5090087890625
1.52109375
1.5347900390625
1.5283447265624999
1.5283447265624999
1.5267333984375
1.5364013671874999
1.5412353515625
1.22138671875
1.5412353515625
1.5517089843749998
1.554931640625
1.603271484375
1.62744140625
1.8618896484374998
1.73056640625
1.619384765625
1.5734619140625
1.5654052734375
1.5541259765625
1.5436523437499998
1.5557373046874998
1.5323730468749999
1.5412353515625
1.5122314453124999
1.5323730468749999
1.5025634765625
1.5218994140625
1.5138427734375
1.8949218749999999
1.6000488281249998
1.5170654296875
1.522705078125
1.4920898437499999
1.4373046875
1.2906738281249999
1.3398193359375
1.37607421875
1.4461669921875
1.4703369140625
1.5017578125
1.4791992187499998
1.51787109375
1.5114257812499998
1.5138427734375
1.558154296875
1.5428466796875
1.5299560546875
1.5444580078124999
1.5364013671874999
1.0997314453125
1.5267333984375
1.5364013671874999
1.5283447265624999
1.5621826171875
1.6218017578125
1.920703125
1.7732666015624998
1.6129394531249999
1.5807128906249999
1.56298828125
1.554931640625
1.587158203125
1.5444580078124999
1.542041015625
1.522705078125
1.5114257812499998
1.533984375
1.49853515625
1.5073974609374998
1.51787109375
1.9110351562499999
1.61455078125
1.5001464843749999
1.533984375
1.490478515625
1.4244140625
1.3317626953125
1.3269287109374999
1.3784912109374998
1.4332763671875
1.4590576171874998
1.4759765624999999
1.4864501953125
1.5106201171875
1.5122314453124999
1.5299560546875
1.5315673828124998
1.5106201171875
1.5355957031249998
1.538818359375
1.5194824218749998
1.12470703125
1.445361328125
1.5541259765625
1.51787109375
1.5573486328125
1.619384765625
1.799853515625
1.8473876953125
1.6604736328124998
1.5895751953125
1.5565429687499999
1.558154296875
1.5533203125
1.542041015625
1.5645996093749999
1.5412353515625
1.5001464843749999
1.5186767578125
1.5331787109375
1.5202880859374999
1.5243164062499999
1.8256347656249998
1.7257324218749999
1.513037109375
1.546875
1.5114257812499998
1.442138671875
1.319677734375
1.3414306640625
1.3728515625
1.4276367187499999
1.456640625
1.46953125
1.4687255859375
1.5162597656249999
1.5041748046874999
1.533984375
1.5355957031249998
1.538818359375
1.53076171875
1.522705078125
1.5243164062499999
1.1899658203124999
1.4203857421875
1.558154296875
1.5380126953125
1.5637939453124998
1.6209960937499999
1.7208984374999998
1.8224121093749999
1.6483886718749998
1.59521484375
1.5791015625
1.558154296875
1.5565429687499999
