1.5355957031249998
1.5218994140625
1.533984375
1.5243164062499999
1.6169677734374999
1.6403320312499998
1.5509033203125
1.5573486328125
1.5517089843749998
1.5122314453124999
1.461474609375
1.4187744140624998
1.4034667968749999
1.4469726562499998
1.4518066406249999
1.5001464843749999
1.4896728515625
1.5057861328125
1.509814453125
1.496923828125
1.50498046875
1.5299560546875
1.5194824218749998
1.5428466796875
1.5315673828124998
1.4437499999999999
1.4171630859375
1.5194824218749998
1.513037109375
1.5138427734375
1.56943359375
1.6298583984375
1.7426513671875
1.6371093749999999
1.59521484375
1.590380859375
1.5637939453124998
1.554931640625
1.5662109375
1.574267578125
1.56298828125
1.5412353515625
1.5186767578125
1.5436523437499998
1.5251220703125
1.5170654296875
1.6008544921874999
1.72412109375
1.55009765625
1.561376953125
1.5509033203125
1.5017578125
1.4518066406249999
1.4348876953124998
1.3849365234375
1.44052734375
1.46953125
1.46630859375
1.47275390625
1.4961181640624999
1.525927734375
1.5138427734375
1.5218994140625
1.533984375
1.5428466796875
1.5202880859374999
1.52109375
1.4598632812499999
1.3172607421875
1.5025634765625
1.4993408203124998
1.5154541015624998
1.5726562499999999
1.6153564453125
1.7603759765625
1.65
1.5919921874999998
1.590380859375
1.585546875
1.5670166015625
1.577490234375
1.56298828125
1.5436523437499998
1.5637939453124998
1.5275390624999998
1.5484863281249999
1.5267333984375
1.5251220703125
1.5218994140625
1.7345947265625
1.5758789062499998
1.5404296874999999
1.5533203125
1.5243164062499999
1.4953124999999998
1.393798828125
1.4195800781249999
1.4348876953124998
1.4501953125
1.4872558593749998
1.4864501953125
1.4840332031249999
1.5073974609374998
1.52109375
1.5082031249999999
1.5194824218749998
1.533984375
1.5404296874999999
1.5267333984375
1.4791992187499998
1.3027587890624999
1.4767822265625
1.5017578125
1.5170654296875
1.5404296874999999
1.5662109375
1.7764892578125
1.6572509765624999
1.619384765625
1.5831298828125
1.5799072265624998
1.5662109375
1.5557373046874998
1.546875
1.5573486328125
1.5517089843749998
1.5267333984375
1.5299560546875
1.5283447265624999
1.5299560546875
1.5436523437499998
1.7571533203124998
1.574267578125
1.5436523437499998
1.5525146484374999
1.5436523437499998
1.5082031249999999
1.4228027343749998
1.416357421875
1.4348876953124998
1.4542236328125
1.456640625
1.4872558593749998
1.4671142578124998
1.4920898437499999
1.5082031249999999
1.525927734375
1.5404296874999999
1.5323730468749999
1.5444580078124999
1.5275390624999998
1.5202880859374999
1.3083984375
1.4687255859375
1.5122314453124999
1.5057861328125
1.5355957031249998
1.5887695312499999
1.7088134765624998
1.6822265625
1.6153564453125
1.6056884765625
1.5476806640624998
1.5686279296874999
1.5565429687499999
1.554931640625
1.5662109375
1.5396240234374998
1.5484863281249999
1.5355957031249998
1.5146484375
1.5283447265624999
1.529150390625
1.7345947265625
1.6483886718749998
1.55009765625
1.554931640625
1.53720703125
1.4912841796874998
1.43408203125
1.4236083984374999
1.4300537109375
1.4373046875
1.45341796875
1.4945068359375
1.4961181640624999
1.5009521484375
1.5194824218749998
1.5251220703125
1.5138427734375
1.525927734375
1.5331787109375
1.538818359375
1.5235107421874998
1.2963134765625
1.3986328124999998
1.5299560546875
1.5106201171875
1.53076171875
1.5782958984375
1.6733642578124999
1.7370117187499998
1.6185791015625
1.5831298828125
1.5702392578125
1.5573486328125
1.5702392578125
1.545263671875
1.5678222656249998
1.5194824218749998
1.5460693359375
1.5565429687499999
1.5323730468749999
1.5331787109375
1.5347900390625
1.611328125
1.6395263671875
1.5460693359375
1.5605712890624999
1.545263671875
1.482421875
1.4493896484375
1.42119140625
1.4115234374999999
1.4437499999999999
1.474365234375
1.4840332031249999
1.5025634765625
1.509814453125
1.509814453125
1.509814453125
1.5275390624999998
1.53076171875
1.5331787109375
1.5235107421874998
1.5299560546875
1.3027587890624999
1.3994384765624999
1.496923828125
1.513037109375
1.5347900390625
1.5815185546875
1.706396484375
1.7281494140625
1.6266357421875
1.5831298828125
1.5944091796875
1.542041015625
1.5444580078124999
1.5637939453124998
1.5573486328125
1.5734619140625
1.5541259765625
1.5492919921875
1.5484863281249999
1.53076171875
1.533984375
1.59521484375
1.7200927734375
1.5621826171875
1.5533203125
1.554931640625
1.5073974609374998
1.445361328125
1.4397216796874999
1.4074951171874999
1.4413330078125
1.4630859374999998
1.4759765624999999
1.4735595703125
1.4920898437499999
1.5001464843749999
1.5162597656249999
1.53720703125
1.5331787109375
1.5194824218749998
1.5283447265624999
1.5444580078124999
1.4574462890625
1.3954101562499999
1.5114257812499998
1.5114257812499998
1.5380126953125
1.5670166015625
1.5887695312499999
1.7442626953125
1.6411376953124999
1.609716796875
1.5791015625
1.5718505859374998
1.5589599609375
1.574267578125
1.5573486328125
1.56298828125
1.5484863281249999
1.529150390625
1.5509033203125
1.53076171875
1.545263671875
1.5686279296874999
1.7257324218749999
1.571044921875
1.5557373046874998
1.5476806640624998
1.5057861328125
1.4816162109375
1.4364990234375
1.4115234374999999
1.4461669921875
1.4638916015624999
1.4598632812499999
1.4928955078125
1.4920898437499999
1.490478515625
1.5146484375
1.5331787109375
1.522705078125
1.533984375
1.5380126953125
1.53076171875
1.49853515625
1.3043701171875
1.5057861328125
1.4872558593749998
1.5202880859374999
1.5380126953125
1.5839355468749998
1.748291015625
1.6781982421875
1.6048828124999999
1.5944091796875
1.5791015625
1.5509033203125
1.571044921875
1.5791015625
1.5525146484374999
1.5444580078124999
1.546875
1.5355957031249998
1.5162597656249999
1.538818359375
1.529150390625
1.7281494140625
1.5766845703124999
1.558154296875
1.5678222656249998
1.5194824218749998
1.4888671875
1.3978271484375
1.41796875
1.4284423828125
1.4510009765624998
1.4896728515625
1.4896728515625
1.49853515625
1.5009521484375
1.5082031249999999
1.5122314453124999
1.51787109375
1.533984375
1.513037109375
1.5251220703125
1.5267333984375
1.3067871093749999
1.4783935546875
1.49853515625
1.522705078125
1.5605712890624999
1.5734619140625
1.7499023437499999
1.667724609375
1.6169677734374999
1.6000488281249998
1.5863525390625
1.5654052734375
1.5541259765625
1.56943359375
1.554931640625
1.5428466796875
1.5412353515625
1.55009765625
1.52109375
1.5436523437499998
1.5331787109375
1.7450683593749998
1.6153564453125
1.533984375
1.545263671875
1.5605712890624999
1.48564453125
1.41796875
1.4034667968749999
1.4203857421875
1.4671142578124998
1.458251953125
1.477587890625
1.4864501953125
1.522705078125
1.490478515625
1.5267333984375
1.5283447265624999
1.5315673828124998
1.5202880859374999
1.53076171875
1.5235107421874998
1.2987304687499999
1.477587890625
1.522705078125
1.5114257812499998
1.5476806640624998
1.5887695312499999
1.662890625
1.69189453125
1.6169677734374999
1.5782958984375
1.5976318359375
1.5734619140625
1.56298828125
1.5541259765625
1.5766845703124999
1.5396240234374998
1.53076171875
1.5428466796875
1.5412353515625
1.51787109375
1.542041015625
1.7152587890625
1.6459716796875
1.5589599609375
1.5565429687499999
1.546875
1.490478515625
1.40830078125
1.4252197265625
1.4147460937499998
1.44052734375
1.4719482421874999
1.480810546875
1.4961181640624999
1.5122314453124999
1.5025634765625
1.5186767578125
1.533984375
1.5243164062499999
1.5186767578125
1.5275390624999998
1.5364013671874999
1.3237060546875
1.4115234374999999
1.5154541015624998
1.496923828125
1.5162597656249999
1.5678222656249998
1.690283203125
1.7337890624999999
1.6483886718749998
1.5927978515624999
1.5766845703124999
1.5654052734375
1.5702392578125
1.56298828125
1.5525146484374999
1.5396240234374998
1.5444580078124999
1.5509033203125
1.5347900390625
1.5315673828124998
1.5436523437499998
1.5734619140625
1.662890625
1.5662109375
1.5621826171875
1.5396240234374998
1.4953124999999998
1.4622802734375
1.4066894531249998
1.4123291015625
1.4381103515625
1.46630859375
1.482421875
1.4872558593749998
1.5041748046874999
1.5218994140625
1.5106201171875
1.509814453125
1.522705078125
1.5235107421874998
1.5138427734375
1.5194824218749998
1.3365966796875
1.4147460937499998
1.5275390624999998
1.5194824218749998
1.5146484375
1.5750732421875
1.5847412109374999
1.7426513671875
1.638720703125
1.6137451171875
1.587158203125
1.5895751953125
1.56298828125
1.5670166015625
1.5621826171875
1.5476806640624998
1.5380126953125
1.545263671875
1.542041015625
1.5428466796875
1.5283447265624999
1.5428466796875
1.7233154296875
1.5509033203125
1.554931640625
1.5573486328125
1.5041748046874999
1.4518066406249999
1.43408203125
1.40185546875
1.4413330078125
1.4477783203124999
1.46953125
1.4945068359375
1.4920898437499999
1.5122314453124999
1.52109375
1.52109375
1.5267333984375
1.5218994140625
1.5243164062499999
1.542041015625
1.5001464843749999
1.3865478515624998
1.5090087890625
1.5057861328125
1.509814453125
1.5678222656249998
1.58232421875
1.7337890624999999
1.6701416015625
1.61455078125
1.5863525390625
1.5621826171875
1.5678222656249998
1.571044921875
1.5557373046874998
1.5525146484374999
1.5509033203125
1.5436523437499998
1.529150390625
1.5331787109375
1.522705078125
1.5766845703124999
1.7176757812499999
1.585546875
1.561376953125
1.5444580078124999
1.5154541015624998
1.4961181640624999
1.4228027343749998
1.3857421875
1.4356933593749999
1.480810546875
1.4832275390624998
1.496923828125
1.46953125
1.52109375
1.5114257812499998
1.5106201171875
1.5460693359375
1.5218994140625
1.5299560546875
1.5283447265624999
1.4993408203124998
1.2906738281249999
1.4945068359375
1.5154541015624998
1.5218994140625
1.5404296874999999
1.5750732421875
1.7531249999999998
1.6894775390624999
1.609716796875
1.5573486328125
1.5573486328125
1.5645996093749999
1.5670166015625
1.5460693359375
1.554931640625
1.5412353515625
1.5517089843749998
1.5509033203125
1.5460693359375
1.5283447265624999
1.5323730468749999
1.72412109375
1.5927978515624999
1.5597656249999998
1.5645996093749999
1.533984375
1.4920898437499999
1.4308593749999998
1.41796875
1.432470703125
1.4526123046875
1.46953125
1.4840332031249999
1.4961181640624999
1.5009521484375
1.5154541015624998
1.522705078125
1.5380126953125
1.5154541015624998
1.5243164062499999
1.529150390625
1.538818359375
1.3019531249999998
1.474365234375
1.5073974609374998
1.5162597656249999
1.5315673828124998
1.5662109375
1.72412109375
1.6927001953124998
1.6411376953124999
1.5718505859374998
1.5734619140625
1.5686279296874999
1.5637939453124998
1.5686279296874999
1.5533203125
1.5460693359375
1.5283447265624999
1.5396240234374998
1.533984375
1.5380126953125
1.5315673828124998
1.7152587890625
1.6411376953124999
1.5557373046874998
1.571044921875
1.5525146484374999
1.49853515625
1.4123291015625
1.4066894531249998
1.426025390625
1.4550292968749998
1.4671142578124998
1.4888671875
1.4848388671875
1.5122314453124999
1.5162597656249999
1.522705078125
1.513037109375
1.5090087890625
1.5323730468749999
1.53720703125
1.5380126953125
1.3333740234375
1.4510009765624998
1.5170654296875
1.5154541015624998
1.538818359375
1.5678222656249998
1.6218017578125
1.7603759765625
1.6282470703124998
1.5863525390625
1.5879638671874998
1.5734619140625
1.5597656249999998
1.5662109375
1.5557373046874998
1.546875
1.533984375
1.546875
1.5299560546875
1.5404296874999999
1.5355957031249998
1.7047851562499998
1.6483886718749998
1.5541259765625
1.5645996093749999
1.5436523437499998
1.4977294921875
1.4542236328125
1.4300537109375
1.40830078125
1.4469726562499998
1.4735595703125
1.490478515625
1.480810546875
1.525927734375
1.5041748046874999
1.4953124999999998
1.5355957031249998
1.5114257812499998
1.5001464843749999
1.50498046875
1.5275390624999998
1.33740234375
1.3913818359374999
1.52109375
1.5412353515625
1.554931640625
1.611328125
1.67578125
1.7418457031249999
1.6218017578125
1.5662109375
1.5404296874999999
1.5380126953125
1.546875
1.561376953125
1.5645996093749999
1.5831298828125
1.5492919921875
1.5589599609375
1.5597656249999998
1.546875
1.5492919921875
1.5968261718749999
1.7047851562499998
1.59521484375
1.5654052734375
1.5597656249999998
1.4671142578124998
1.4195800781249999
1.361572265625
1.4058837890625
1.4300537109375
1.4638916015624999
1.48564453125
1.4735595703125
1.5041748046874999
1.5057861328125
1.4953124999999998
1.4920898437499999
1.5090087890625
1.5275390624999998
1.509814453125
1.5299560546875
1.348681640625
1.3390136718749999
1.4864501953125
1.4679199218749999
1.4945068359375
1.5557373046874998
1.619384765625
1.799853515625
1.7047851562499998
1.6266357421875
1.6129394531249999
1.5557373046874998
1.5911865234375
1.6040771484374998
1.5621826171875
1.546875
1.5517089843749998
1.474365234375
1.4888671875
1.5194824218749998
1.5323730468749999
1.558154296875
1.7603759765625
1.574267578125
1.5645996093749999
1.5662109375
1.5243164062499999
1.4550292968749998
1.4236083984374999
1.4042724609375
1.4413330078125
1.4912841796874998
1.51787109375
1.5243164062499999
1.5186767578125
1.5146484375
1.509814453125
1.5275390624999998
1.5154541015624998
1.5267333984375
1.5041748046874999
1.4993408203124998
1.5114257812499998
1.2310546875
1.4655029296875
1.4953124999999998
1.522705078125
1.5484863281249999
1.5621826171875
1.764404296875
1.6943115234375
1.6201904296874998
1.6048828124999999
1.56943359375
1.5484863281249999
1.5863525390625
1.561376953125
1.5525146484374999
1.5476806640624998
1.5122314453124999
1.5347900390625
1.5315673828124998
1.5396240234374998
1.5267333984375
1.8175781249999998
1.6395263671875
1.571044921875
1.5726562499999999
1.5146484375
1.4759765624999999
1.3873535156249999
1.4308593749999998
1.448583984375
1.4381103515625
1.4413330078125
1.445361328125
1.442138671875
1.4413330078125
1.4445556640625
1.5162597656249999
1.5670166015625
1.571044921875
1.5565429687499999
1.5678222656249998
1.5654052734375
1.2608642578125
1.48564453125
1.4912841796874998
1.546875
1.542041015625
1.571044921875
1.77568359375
1.638720703125
1.5895751953125
1.59521484375
1.5847412109374999
1.5605712890624999
1.5702392578125
1.5597656249999998
1.5807128906249999
1.5517089843749998
1.53720703125
1.5645996093749999
1.5412353515625
1.5106201171875
1.5299560546875
1.8328857421875
1.6508056640625
1.5895751953125
1.5565429687499999
1.5315673828124998
1.445361328125
1.3092041015625
1.319677734375
1.3510986328124999
1.409912109375
1.4332763671875
1.4655029296875
1.44052734375
1.4816162109375
1.4872558593749998
1.5444580078124999
1.5589599609375
1.5766845703124999
1.5726562499999999
1.6000488281249998
1.5460693359375
1.0707275390625
1.3365966796875
1.45341796875
1.4558349609374999
1.4630859374999998
1.5662109375
1.6701416015625
1.8892822265625
1.7732666015624998
1.6830322265625
1.6000488281249998
1.6008544921874999
1.603271484375
1.585546875
1.5750732421875
1.5009521484375
1.51787109375
1.5597656249999998
1.5033691406249998
1.4816162109375
1.5218994140625
1.9142578124999998
1.815966796875
1.59521484375
1.585546875
1.5686279296874999
1.5090087890625
1.2938964843749998
1.2544189453124999
1.1625732421875
1.300341796875
1.4413330078125
1.4622802734375
1.4542236328125
1.46953125
1.4671142578124998
1.464697265625
1.4953124999999998
1.4977294921875
1.46630859375
1.4864501953125
1.5170654296875
0.837890625
1.010302734375
1.2753662109375
1.3108154296874999
1.4058837890625
1.6451660156249999
1.909423828125
2.425048828125
2.135009765625
1.8393310546875
1.6846435546874998
1.5968261718749999
1.5235107421874998
1.5670166015625
1.6322753906249998
1.5621826171875
1.56298828125
1.5734619140625
1.5839355468749998
1.5202880859374999
1.5114257812499998
2.4830566406249996
2.6772216796875
2.3823486328125
2.238134765625
2.05283203125
1.7047851562499998
1.4203857421875
0.7629638671875
0.4004150390625
0.4165283203125
0.5607421874999999
0.6751464843749999
0.6767578125
0.78310546875
0.903955078125
0.894287109375
0.9885498046875
1.0675048828125
1.1142333984375
1.1561279296875
1.05380859375
0.02900390625
0.033032226562499996
0.02900390625
0.02578125
0.02900390625
0.02900390625
0.0281982421875
1.4606689453125
2.0600830078125
2.4967529296874997
2.7030029296875
2.9100585937499996
3.0333251953125
2.9906249999999996
3.0333251953125
3.0357421875
2.995458984375
2.9197265624999997
2.8866943359375
2.8874999999999997
2.7046142578124996
3.0147949218749996
3.0325195312499997
3.034130859375
3.0333251953125
3.0325195312499997
3.0317138671875
3.0333251953125
2.5740966796875
1.7781005859374999
0.9249023437499999
0.476953125
0.18288574218749998
0.0298095703125
0.0298095703125
0.027392578124999997
0.0346435546875
0.02900390625
0.0298095703125
0.030615234374999998
0.0281982421875
0.041088867187499996
0.0322265625
0.02578125
0.027392578124999997
0.030615234374999998
0.0249755859375
0.02900390625
0.0314208984375
0.0322265625
0.9998291015624999
1.73056640625
2.0149658203125
2.28486328125
2.49755859375
2.6820556640624997
2.8713867187499997
3.0107666015624996
3.0317138671875
3.0309082031249996
3.0309082031249996
2.977734375
2.898779296875
2.8633300781249997
3.0333251953125
3.029296875
3.0357421875
3.0333251953125
3.0325195312499997
3.0317138671875
2.73603515625
1.8731689453125
1.2101074218749999
0.8201660156249999
0.330322265625
0.061230468749999996
0.030615234374999998
0.0298095703125
0.030615234374999998
0.0314208984375
0.030615234374999998
0.0459228515625
0.08217773437499999
0.1458251953125
0.11440429687499999
0.0346435546875
0.02900390625
0.030615234374999998
0.02900390625
0.027392578124999997
0.0298095703125
0.0298095703125
1.0900634765625
1.5895751953125
1.925537109375
2.1519287109375
2.3275634765624997
2.5048095703124997
2.7046142578124996
2.8593017578124997
2.8633300781249997
2.8681640625
2.9422851562499996
2.9326171875
2.8794433593749997
2.8456054687499996
3.0284912109374997
3.0325195312499997
3.0333251953125
3.0268798828124996
3.0317138671875
3.0309082031249996
2.6433837890625
2.189794921875
1.45341796875
0.800830078125
0.44633789062499996
0.2038330078125
0.033032226562499996
0.0298095703125
0.02900390625
0.02900390625
0.02900390625
0.02900390625
0.127294921875
0.08701171875
0.14501953125
0.0298095703125
0.030615234374999998
0.023364257812499997
0.0298095703125
0.027392578124999997
0.0298095703125
0.033837890625
0.8362792968749999
1.58232421875
2.0326904296875
2.2727783203125
2.46533203125
2.47177734375
2.8778320312499996
3.0099609375
3.0317138671875
2.9044189453125
2.953564453125
2.9108642578125
2.8037109375
2.8037109375
3.0317138671875
3.029296875
3.0325195312499997
3.034130859375
3.0317138671875
3.0333251953125
3.0317138671875
2.6280761718749996
1.67578125
1.1738525390624999
0.742822265625
0.42539062499999997
0.10554199218749999
0.0314208984375
0.0298095703125
0.0314208984375
0.0346435546875
0.02900390625
0.0298095703125
0.041088867187499996
0.043505859375
0.030615234374999998
0.02900390625
0.02900390625
0.0346435546875
0.030615234374999998
0.030615234374999998
0.02578125
0.0281982421875
1.3349853515624999
1.7362060546875
2.0471923828125
2.2880859375
2.3581787109375
2.466943359375
2.6232421875
2.7593994140625
2.7730957031249996
2.7110595703125
2.6981689453124997
2.745703125
2.8141845703125
3.0301025390625
3.034130859375
3.0284912109374997
3.0284912109374997
3.0349365234374996
3.0325195312499997
3.0325195312499997
2.640966796875
1.928759765625
1.3269287109374999
0.9611572265624999
0.5671875
0.30937499999999996
0.02900390625
0.027392578124999997
0.0298095703125
0.027392578124999997
0.0515625
0.0708984375
0.141796875
0.0765380859375
0.030615234374999998
0.027392578124999997
0.0281982421875
0.02900390625
0.0322265625
0.0322265625
0.0298095703125
0.02900390625
0.9966064453125
1.5355957031249998
1.9343994140624998
2.12373046875
2.26552734375
2.502392578125
2.66513671875
2.81015625
2.8431884765624997
2.9036132812499997
2.8367431640625
2.811767578125
2.83271484375
2.7585937499999997
3.0333251953125
3.034130859375
3.0284912109374997
3.0309082031249996
3.0349365234374996
3.0317138671875
2.6441894531249996
2.193017578125
1.2665039062499999
0.7718261718749999
0.40605468749999996
0.0829833984375
0.027392578124999997
0.026586914062499998
0.02900390625
0.02900390625
0.0346435546875
0.0298095703125
0.02900390625
0.07734374999999999
0.0298095703125
0.0298095703125
0.02900390625
0.02900390625
0.02900390625
0.030615234374999998
0.026586914062499998
0.033837890625
0.6888427734375
1.4880615234374999
1.8586669921874999
2.1221191406249997
2.3533447265625
2.5410644531249997
2.99384765625
2.9116699218749997
2.9801513671874997
2.9688720703125
2.9390625
2.9382568359374996
2.7408691406249996
2.808544921875
3.034130859375
3.0309082031249996
3.0325195312499997
3.0333251953125
3.0325195312499997
3.0301025390625
3.0325195312499997
2.241357421875
1.558154296875
1.1287353515625
0.6590332031249999
0.4229736328125
0.175634765625
0.0322265625
0.030615234374999998
0.0314208984375
0.026586914062499998
0.02900390625
0.022558593749999998
0.07814941406249999
0.1345458984375
0.026586914062499998
0.02900390625
0.030615234374999998
0.0346435546875
0.0314208984375
0.0346435546875
0.0298095703125
0.7774658203125
1.4236083984374999
1.8369140625
2.2469970703124997
2.4564697265624997
2.5805419921875
2.7610107421874996
2.7884033203125
2.85849609375
2.8190185546874997
2.8391601562499997
2.8174072265624996
2.7585937499999997
2.5708740234375
3.0317138671875
3.0317138671875
3.0333251953125
3.0317138671875
3.029296875
3.0309082031249996
3.0309082031249996
2.5233398437499996
1.7128417968749998
0.9756591796874999
0.5865234375
0.2650634765625
0.0298095703125
0.030615234374999998
0.030615234374999998
0.0298095703125
0.02900390625
0.0314208984375
0.0249755859375
0.0298095703125
0.0281982421875
0.033837890625
0.02900390625
0.0298095703125
0.02578125
0.0298095703125
0.02578125
0.02900390625
0.0322265625
1.0368896484374999
1.6242187499999998
1.8981445312499998
2.141455078125
2.3485107421875
2.53623046875
2.6538574218749997
2.8012939453124996
2.8061279296875
2.8133789062499996
2.8230468749999997
2.808544921875
2.8093505859374996
2.7932373046874996
3.0325195312499997
3.027685546875
3.0333251953125
3.0381591796875
3.034130859375
3.0301025390625
2.727978515625
1.8046875
1.327734375
0.8588378906249999
0.343212890625
0.1353515625
0.030615234374999998
0.0298095703125
0.033032226562499996
0.0298095703125
0.033032226562499996
0.030615234374999998
0.03544921875
0.0475341796875
0.08942871093749999
0.0298095703125
0.02578125
0.02900390625
0.030615234374999998
0.033032226562499996
0.033032226562499996
0.0298095703125
0.8644775390624999
1.4510009765624998
1.8465820312499999
2.2341064453125
2.4169921875
2.6377441406249997
2.779541015625
3.0188232421874996
3.0309082031249996
2.95517578125
2.9092529296875
2.8673583984374997
2.8141845703125
2.8141845703125
3.0317138671875
3.034130859375
3.0301025390625
3.034130859375
3.0309082031249996
3.0309082031249996
2.882666015625
2.135009765625
1.49853515625
0.8548095703124999
0.49870605468749996
0.19899902343749998
0.033032226562499996
0.0314208984375
0.023364257812499997
0.02900390625
0.0281982421875
0.0314208984375
0.0346435546875
0.1490478515625
0.13615722656249998
0.030615234374999998
0.0298095703125
0.0281982421875
0.033837890625
0.027392578124999997
0.0298095703125
0.0298095703125
0.7283203125
1.2947021484374999
1.77568359375
2.077001953125
2.305810546875
2.6216308593749997
2.7408691406249996
2.8447998046875
2.8963623046875
2.9455078125
2.9463134765624996
2.81015625
2.7529541015624996
2.6707763671875
3.0349365234374996
3.0381591796875
3.0325195312499997
3.0325195312499997
3.0349365234374996
3.0317138671875
3.0325195312499997
2.4129638671875
1.3954101562499999
0.90234375
0.452783203125
0.107958984375
0.033032226562499996
0.0298095703125
0.0281982421875
0.027392578124999997
0.023364257812499997
0.027392578124999997
0.0298095703125
0.0298095703125
0.0322265625
0.033837890625
0.030615234374999998
0.0314208984375
0.0298095703125
0.0314208984375
0.02578125
0.030615234374999998
0.1393798828125
1.203662109375
1.6588623046875
2.0729736328125
2.3227294921875
2.4830566406249996
2.5950439453125
2.7021972656249997
2.856884765625
2.7867919921874997
2.8053222656249996
2.7247558593749996
2.70703125
2.6296874999999997
3.034130859375
3.0325195312499997
3.0309082031249996
3.0309082031249996
3.0317138671875
3.0333251953125
3.0309082031249996
2.5201171875
1.8022705078124999
1.2955078125
0.72509765625
0.3875244140625
0.13857421875
0.02578125
0.030615234374999998
0.0249755859375
0.0346435546875
0.02578125
0.030615234374999998
0.0281982421875
0.0555908203125
0.03544921875
0.0314208984375
0.0298095703125
0.0298095703125
0.0346435546875
0.030615234374999998
0.0322265625
0.033032226562499996
1.03447265625
1.5017578125
2.0036865234375
2.2260498046875
2.3871826171875
2.5740966796875
2.8069335937499997
2.9261718749999996
2.9946533203124996
2.9769287109375
2.8947509765625
2.8286865234375
2.8319091796875
2.7803466796875
3.0309082031249996
3.0333251953125
3.029296875
3.0381591796875
3.0325195312499997
3.0325195312499997
2.8834716796874997
2.096337890625
1.2987304687499999
0.8443359374999999
0.48017578125
0.2199462890625
0.033837890625
0.0298095703125
0.0298095703125
0.0298095703125
0.02900390625
0.026586914062499998
0.12890625
0.04189453125
0.0298095703125
0.033032226562499996
0.0298095703125
0.033837890625
0.0322265625
0.030615234374999998
0.02900390625
0.0314208984375
0.7581298828124999
1.46630859375
1.843359375
2.1035888671875
2.27841796875
2.46533203125
2.6514404296875
2.7803466796875
2.7666503906249997
2.7779296875
2.8270751953124997
2.8560791015625
2.7964599609375
2.7086425781249996
3.0325195312499997
3.0325195312499997
3.0333251953125
3.0301025390625
3.0389648437499996
3.0325195312499997
3.0244628906249997
2.075390625
1.4236083984374999
1.02158203125
0.613916015625
0.1699951171875
0.022558593749999998
0.0322265625
0.0298095703125
0.0281982421875
0.0298095703125
0.0314208984375
0.030615234374999998
0.0322265625
0.0652587890625
0.0298095703125
0.027392578124999997
0.027392578124999997
0.030615234374999998
0.02900390625
0.03544921875
0.033837890625
0.66064453125
1.2826171874999999
1.670947265625
2.08828125
2.27841796875
2.4451904296875
2.4645263671874997
2.72314453125
2.7062255859374997
2.769873046875
2.7706787109374997
2.6933349609375
2.673193359375
2.7328124999999996
3.0317138671875
3.0333251953125
3.0309082031249996
3.0349365234374996
3.0317138671875
3.0333251953125
2.9382568359374996
2.4725830078124997
1.843359375
1.2890625
0.734765625
0.43022460937499996
0.09829101562499999
0.033032226562499996
0.0346435546875
0.030615234374999998
0.026586914062499998
0.0281982421875
0.0314208984375
0.024169921875
0.0797607421875
0.02900390625
0.02900390625
0.02900390625
0.0322265625
0.0249755859375
0.0298095703125
0.02900390625
0.259423828125
1.2608642578125
1.703173828125
2.0391357421875
2.183349609375
2.3630126953125
2.5048095703124997
2.7545654296874997
2.8302978515625
2.7996826171875
2.81015625
2.7521484375
2.7094482421875
2.5676513671874996
2.5869873046875
3.0268798828124996
3.0317138671875
3.0325195312499997
3.0325195312499997
3.0309082031249996
3.0325195312499997
2.7328124999999996
1.8626953124999999
1.12470703125
0.68642578125
0.3552978515625
0.061230468749999996
0.0515625
0.02900390625
0.02900390625
0.0298095703125
0.0322265625
0.0298095703125
0.027392578124999997
0.0298095703125
0.02900390625
0.0298095703125
0.0314208984375
0.0281982421875
0.0322265625
0.030615234374999998
0.027392578124999997
0.026586914062499998
0.742822265625
1.413134765625
1.7635986328125
2.0745849609375
2.2647216796875
2.4661376953125
2.6095458984374997
2.7416748046875
2.763427734375
2.7666503906249997
2.6941406249999997
2.682861328125
2.60712890625
2.5555664062499996
3.037353515625
3.0349365234374996
3.0349365234374996
3.0333251953125
3.0244628906249997
3.034130859375
2.657080078125
1.9674316406249999
1.2608642578125
0.807275390625
0.3601318359375
0.104736328125
0.02900390625
0.0298095703125
0.0298095703125
0.0298095703125
0.02900390625
0.0298095703125
0.0281982421875
0.0684814453125
0.058813476562499994
0.02900390625
0.0346435546875
0.0249755859375
0.0298095703125
0.030615234374999998
0.0298095703125
0.0298095703125
0.825
1.3873535156249999
1.7716552734375
2.1180908203124997
2.2518310546875
2.39765625
2.5958496093749996
2.6723876953124996
2.7424804687499997
2.8141845703125
2.8359375
2.8713867187499997
2.7964599609375
2.5998779296874996
3.0284912109374997
3.0317138671875
3.0333251953125
3.0333251953125
3.0284912109374997
3.0333251953125
2.7747070312499997
2.312255859375
1.603271484375
0.9353759765624999
0.604248046875
0.322265625
0.033032226562499996
0.02578125
0.02900390625
0.0314208984375
0.02900390625
0.0298095703125
0.0298095703125
0.0298095703125
0.0298095703125
0.03544921875
0.02900390625
0.0281982421875
0.02578125
0.027392578124999997
0.033837890625
0.0298095703125
0.4390869140625
1.1529052734375
1.4783935546875
1.8111328125
2.0713623046875
2.3871826171875
2.418603515625
2.5708740234375
2.7739013671875
2.731201171875
2.7102539062499997
2.67158203125
2.6433837890625
2.5330078124999997
3.0309082031249996
3.0349365234374996
3.034130859375
3.0333251953125
3.0317138671875
3.0325195312499997
3.0317138671875
2.6514404296875
1.6298583984375
1.0401123046875
0.7130126953125
0.29970703125
0.022558593749999998
0.023364257812499997
0.030615234374999998
0.02900390625
0.0281982421875
0.03544921875
0.026586914062499998
0.0733154296875
0.18288574218749998
0.02900390625
0.0298095703125
0.030615234374999998
0.02900390625
0.0322265625
0.0314208984375
0.0249755859375
0.7138183593749999
1.1593505859375
1.5887695312499999
1.8796142578125
2.0761962890625
2.2824462890625
2.5031982421874996
2.68125
2.7328124999999996
2.7352294921875
2.7747070312499997
2.8037109375
2.7803466796875
2.7722900390625
3.029296875
3.0333251953125
3.027685546875
3.0357421875
3.029296875
3.0333251953125
3.029296875
2.6208251953125
1.799853515625
1.2157470703125
0.610693359375
0.281982421875
0.050756835937499994
0.0298095703125
0.02900390625
0.0298095703125
0.033032226562499996
0.0281982421875
0.030615234374999998
0.033032226562499996
0.08620605468749999
0.0346435546875
0.0249755859375
0.0249755859375
0.0322265625
0.0249755859375
0.0298095703125
0.033032226562499996
0.0281982421875
0.7259033203124999
1.3083984375
1.7748779296875
1.9827392578124998
2.230078125
2.5410644531249997
2.7207275390624996
2.776318359375
2.8834716796874997
2.9503417968749996
2.92939453125
2.9124755859375
2.7722900390625
2.719921875
3.0349365234374996
3.0317138671875
3.0309082031249996
3.0317138671875
3.0333251953125
3.0309082031249996
2.9922363281249997
2.2341064453125
1.3736572265625
1.007080078125
0.575244140625
0.20866699218749998
0.033837890625
0.0298095703125
0.0298095703125
0.023364257812499997
0.0249755859375
0.0281982421875
0.0281982421875
0.033032226562499996
0.0249755859375
0.0281982421875
0.0298095703125
0.030615234374999998
0.033032226562499996
0.0298095703125
0.0217529296875
0.0281982421875
0.6807861328125
1.2665039062499999
1.670947265625
1.91748046875
2.189794921875
2.3718749999999997
2.5209228515624997
2.6385498046875
2.618408203125
2.53623046875
2.5128662109374997
2.5072265624999996
2.4355224609375
2.4322998046874997
3.0325195312499997
3.0357421875
3.027685546875
3.034130859375
3.034130859375
3.0309082031249996
2.6482177734374996
2.2494140625
1.5517089843749998
0.9796874999999999
0.5043457031249999
0.2054443359375
0.0298095703125
0.030615234374999998
0.02900390625
0.026586914062499998
0.030615234374999998
0.030615234374999998
0.06767578125
0.1168212890625
0.06606445312499999
0.019335937499999997
0.030615234374999998
0.0249755859375
0.02578125
0.0298095703125
0.030615234374999998
0.0314208984375
0.6993164062499999
1.3317626953125
1.7974365234374998
1.957763671875
2.1180908203124997
2.34931640625
2.582958984375
2.6933349609375
2.8802490234375
2.8689697265625
2.81015625
2.9986816406249996
2.7642333984375
2.6643310546874996
3.0325195312499997
3.0284912109374997
3.0301025390625
3.0349365234374996
3.0268798828124996
3.0333251953125
3.0349365234374996
2.5394531249999996
1.5331787109375
0.9821044921875
0.6066650390625
0.26748046875
0.02900390625
0.0346435546875
0.0298095703125
0.02900390625
0.0249755859375
0.026586914062499998
0.0322265625
0.09990234375
0.0298095703125
0.0322265625
0.030615234374999998
0.0298095703125
0.027392578124999997
0.0298095703125
0.026586914062499998
0.0298095703125
0.033837890625
1.1980224609374999
1.609716796875
1.9408447265625
2.125341796875
2.2905029296875
2.53623046875
2.6522460937499996
2.7489257812499996
2.872998046875
2.8850830078125
2.763427734375
2.7352294921875
2.6820556640624997
2.7392578125
3.0301025390625
3.027685546875
3.034130859375
3.0349365234374996
3.0325195312499997
3.0317138671875
2.631298828125
1.8385253906249999
1.2834228515625
0.8499755859375
0.3053466796875
0.04833984375
0.0298095703125
0.02900390625
0.0298095703125
0.030615234374999998
0.0298095703125
0.02578125
0.0298095703125
0.033837890625
0.0346435546875
0.030615234374999998
0.0322265625
0.02578125
0.027392578124999997
0.0249755859375
0.0322265625
0.0281982421875
0.8983154296875
1.319677734375
1.7635986328125
1.9545410156249998
2.126953125
2.3452880859375
2.5128662109374997
2.6135742187499997
2.5716796874999996
2.6594970703125
2.73603515625
2.7005859374999996
2.6804443359374996
2.5813476562499997
3.034130859375
3.0325195312499997
3.0333251953125
3.0325195312499997
3.0325195312499997
3.0381591796875
2.7424804687499997
2.199462890625
1.353515625
0.9071777343749999
0.5365722656249999
0.2956787109375
0.02900390625
0.033032226562499996
0.02900390625
0.02900390625
0.0298095703125
0.02578125
0.0281982421875
0.0298095703125
0.0298095703125
0.02578125
0.030615234374999998
0.0298095703125
0.02578125
0.02578125
0.0249755859375
0.030615234374999998
0.7516845703124999
1.6298583984375
1.8659179687499998
2.1019775390624997
2.3203125
2.872998046875
2.808544921875
2.8754150390624997
2.9285888671875
2.8302978515625
2.85849609375
2.6458007812499997
2.8794433593749997
2.8552734374999997
3.0325195312499997
3.0325195312499997
3.0333251953125
3.0325195312499997
3.0301025390625
3.0309082031249996
3.0309082031249996
2.1221191406249997
1.4236083984374999
0.9063720703125
0.40122070312499997
0.1635498046875
0.02900390625
0.02900390625
0.0298095703125
0.0298095703125
0.030615234374999998
0.02900390625
0.0298095703125
0.04833984375
0.0829833984375
0.03544921875
0.0281982421875
0.02578125
0.0298095703125
0.030615234374999998
0.02578125
0.02900390625
0.878173828125
1.5243164062499999
1.844970703125
2.1422607421874997
2.3017822265625
2.4016845703125
2.570068359375
2.7287841796874996
2.7730957031249996
2.6949462890625
2.689306640625
2.7030029296875
2.6377441406249997
2.5064208984375
3.0333251953125
3.0333251953125
3.0317138671875
3.0284912109374997
3.034130859375
3.0349365234374996
3.0325195312499997
2.5394531249999996
1.7772949218749998
1.0755615234375
0.6823974609375
0.35288085937499997
0.103125
0.027392578124999997
0.02578125
0.033837890625
0.1571044921875
0.25620117187499997
1.6234130859375
3.0325195312499997
3.0317138671875
3.0309082031249996
3.0309082031249996
3.0317138671875
3.027685546875
3.029296875
3.027685546875
3.0309082031249996
3.0357421875
3.0333251953125
3.0317138671875
3.034130859375
3.029296875
3.0317138671875
3.0325195312499997
3.0309082031249996
3.0349365234374996
3.037353515625
3.0309082031249996
3.0309082031249996
3.027685546875
3.0309082031249996
3.0317138671875
3.0317138671875
3.0349365234374996
3.0317138671875
3.0333251953125
3.0284912109374997
3.0325195312499997
3.0309082031249996
3.0309082031249996
3.0325195312499997
3.0301025390625
3.0309082031249996
3.0309082031249996
3.0317138671875
3.0301025390625
3.0309082031249996
3.0349365234374996
3.0309082031249996
3.0333251953125
3.0357421875
3.0365478515624997
2.9906249999999996
2.1849609375
2.2880859375
1.9666259765624998
1.69189453125
1.5895751953125
1.4872558593749998
1.989990234375
1.6910888671875
1.26328125
0.8016357421875
0.7557128906249999
0.64775390625
0.605859375
0.5164306640624999
0.40605468749999996
0.45761718749999997
0.41572265625
0.391552734375
0.3794677734375
0.359326171875
0.2956787109375
0.97646484375
0.6501708984375
0.5446289062499999
0.5196533203125
0.5083740234374999
0.5124023437499999
0.2586181640625
0.19497070312499998
0.2513671875
0.33676757812499997
0.35288085937499997
0.488232421875
0.554296875
0.66064453125
0.7146240234375
0.733154296875
0.8209716796875
0.8628662109374999
0.8741455078125
0.8757568359375
0.881396484375
0.33837890625
0.7242919921875
0.8677001953125
0.9176513671875
0.9893554687499999
1.1271240234375
1.4010498046875
1.6137451171875
1.3639892578125
1.2592529296875
1.2705322265624999
1.1996337890625
1.2028564453125
1.1778808593749999
1.24072265625
1.2455566406249998
1.2205810546875
1.216552734375
1.2302490234374999
1.2439453125
1.2439453125
1.6459716796875
1.448583984375
1.316455078125
1.3317626953125
1.3212890625
1.1899658203124999
1.0626708984375
1.0368896484374999
1.0650878906249999
1.1794921875
1.2503906249999999
1.2987304687499999
1.303564453125
1.3414306640625
1.33740234375
1.3527099609375
1.4074951171874999
1.3986328124999998
1.4123291015625
1.4558349609374999
1.442138671875
1.02158203125
1.232666015625
1.4236083984374999
1.4107177734374998
1.416357421875
1.5106201171875
1.7595703125
1.7772949218749998
1.625830078125
1.5323730468749999
1.5315673828124998
1.5243164062499999
1.53076171875
1.4920898437499999
1.5033691406249998
1.506591796875
1.477587890625
1.45341796875
1.4703369140625
1.4703369140625
1.4800048828124999
1.5887695312499999
1.714453125
1.5082031249999999
1.51787109375
1.51787109375
1.41796875
1.3954101562499999
1.319677734375
1.3011474609375
1.3768798828125
1.4091064453125
1.4268310546874998
1.4381103515625
1.4655029296875
1.461474609375
1.4961181640624999
1.5082031249999999
1.5114257812499998
1.5025634765625
1.5114257812499998
1.4800048828124999
1.3591552734374999
1.30517578125
1.4759765624999999
1.4767822265625
1.5154541015624998
1.5525146484374999
1.5895751953125
1.8022705078124999
1.6773925781249999
1.6081054687499998
1.6040771484374998
1.5476806640624998
1.571044921875
1.5807128906249999
1.529150390625
1.522705078125
1.5315673828124998
1.5323730468749999
1.5154541015624998
1.5444580078124999
1.5009521484375
1.6153564453125
1.767626953125
1.5782958984375
1.5460693359375
1.5533203125
1.5001464843749999
1.4147460937499998
1.3559326171875
1.37607421875
1.393798828125
1.409912109375
1.4759765624999999
1.4840332031249999
1.461474609375
1.4840332031249999
1.496923828125
1.4945068359375
1.4840332031249999
1.5106201171875
1.5428466796875
1.5162597656249999
1.4300537109375
1.2455566406249998
1.4928955078125
1.4840332031249999
1.4953124999999998
1.5589599609375
1.6008544921874999
1.7901855468749999
1.7555419921875
1.6169677734374999
1.5791015625
1.5766845703124999
1.5444580078124999
1.5621826171875
1.5428466796875
1.5645996093749999
1.5428466796875
1.5364013671874999
1.5355957031249998
1.533984375
1.538818359375
1.542041015625
1.7474853515625
1.56298828125
1.5251220703125
1.5267333984375
1.5025634765625
1.4912841796874998
1.3768798828125
1.3833251953124999
1.3929931640625
1.4735595703125
1.4751708984374998
1.5001464843749999
1.5009521484375
1.5138427734375
1.5138427734375
1.5235107421874998
1.525927734375
1.533984375
1.533984375
1.5114257812499998
1.4920898437499999
1.2673095703125
1.47275390625
1.4953124999999998
1.5082031249999999
1.554931640625
1.5791015625
1.7982421874999999
1.6975341796874999
1.641943359375
1.5678222656249998
1.56943359375
1.5444580078124999
1.5654052734375
1.5525146484374999
1.5299560546875
1.55009765625
1.5315673828124998
1.546875
1.5186767578125
1.5033691406249998
1.5436523437499998
1.770849609375
1.5621826171875
1.538818359375
1.5484863281249999
1.55009765625
1.5017578125
1.397021484375
1.3728515625
1.4195800781249999
1.4655029296875
1.4832275390624998
1.4912841796874998
1.4719482421874999
1.4848388671875
1.5106201171875
1.53076171875
1.546875
1.5299560546875
1.5331787109375
1.5484863281249999
1.5380126953125
1.2616699218749998
1.46953125
1.5106201171875
1.490478515625
1.5364013671874999
1.606494140625
1.6612792968749999
1.7337890624999999
1.6330810546874999
1.585546875
1.5766845703124999
1.554931640625
1.577490234375
1.5589599609375
1.5589599609375
1.5492919921875
1.51787109375
1.513037109375
1.5484863281249999
1.522705078125
1.5315673828124998
1.7668212890625
1.6427490234375
1.5267333984375
1.5718505859374998
1.5541259765625
1.5057861328125
1.3897705078125
1.3801025390625
1.4010498046875
1.4598632812499999
1.4848388671875
1.4872558593749998
1.49853515625
1.490478515625
1.506591796875
1.4993408203124998
1.546875
1.5082031249999999
1.5275390624999998
1.5202880859374999
1.5235107421874998
1.2955078125
1.4026611328124998
1.4953124999999998
1.496923828125
1.525927734375
1.58232421875
1.6508056640625
1.7724609375
1.667724609375
1.606494140625
1.571044921875
1.5662109375
1.5573486328125
1.561376953125
1.5565429687499999
1.554931640625
1.542041015625
1.5484863281249999
1.533984375
1.5444580078124999
1.525927734375
1.6169677734374999
1.6620849609375
1.5355957031249998
1.5476806640624998
1.545263671875
1.4735595703125
1.4630859374999998
1.429248046875
1.405078125
1.4195800781249999
1.44052734375
1.4848388671875
1.480810546875
1.5202880859374999
1.52109375
1.5218994140625
1.533984375
1.5251220703125
1.5202880859374999
1.522705078125
1.5146484375
1.2979248046874998
1.3825195312499998
1.4977294921875
1.5323730468749999
1.5380126953125
1.5831298828125
1.6798095703125
1.7700439453124999
1.667724609375
1.609716796875
1.546875
1.558154296875
1.5645996093749999
1.56298828125
1.5541259765625
1.5597656249999998
1.5444580078124999
1.5299560546875
1.53076171875
1.5331787109375
1.5364013671874999
1.5782958984375
1.7523193359375
1.554931640625
1.5533203125
1.5589599609375
1.47275390625
1.4276367187499999
1.4026611328124998
1.4115234374999999
1.43408203125
1.4751708984374998
1.4783935546875
1.4961181640624999
1.493701171875
1.4864501953125
1.5122314453124999
1.5194824218749998
1.525927734375
1.5364013671874999
1.529150390625
1.5460693359375
1.4840332031249999
1.3736572265625
1.5106201171875
1.5025634765625
1.5331787109375
1.5807128906249999
1.5927978515624999
1.7635986328125
1.67578125
1.6048828124999999
1.5992431640625
1.561376953125
1.5597656249999998
1.56298828125
1.5484863281249999
1.5589599609375
1.5380126953125
1.53076171875
1.5412353515625
1.5412353515625
1.5243164062499999
1.5573486328125
1.7579589843749999
1.5847412109374999
1.5484863281249999
1.5605712890624999
1.5162597656249999
1.474365234375
1.4139404296875
1.400244140625
1.44052734375
1.456640625
1.4711425781249998
1.4687255859375
1.496923828125
1.5106201171875
1.529150390625
1.5315673828124998
1.5194824218749998
1.5073974609374998
1.5428466796875
1.5275390624999998
1.4800048828124999
1.2858398437499998
1.5138427734375
1.490478515625
1.5082031249999999
1.5533203125
1.5839355468749998
1.7748779296875
1.7152587890625
1.6129394531249999
1.5863525390625
1.56298828125
1.5847412109374999
1.5589599609375
1.5380126953125
1.571044921875
1.55009765625
1.5315673828124998
1.5404296874999999
1.55009765625
1.53720703125
1.5404296874999999
1.7595703125
1.587158203125
1.5734619140625
1.5589599609375
1.5194824218749998
1.4848388671875
1.3986328124999998
1.4010498046875
1.400244140625
1.44052734375
1.4791992187499998
1.482421875
1.4961181640624999
1.5186767578125
1.5082031249999999
1.5194824218749998
1.5275390624999998
1.5315673828124998
1.5315673828124998
1.5323730468749999
1.5347900390625
1.2665039062499999
1.461474609375
1.529150390625
1.5202880859374999
1.5565429687499999
1.5645996093749999
1.7458740234374999
1.7039794921875
1.6322753906249998
1.5726562499999999
1.5702392578125
1.56298828125
1.5799072265624998
1.5541259765625
1.5541259765625
1.5565429687499999
1.5218994140625
1.5299560546875
1.5573486328125
1.53720703125
1.5380126953125
1.748291015625
1.6822265625
1.5565429687499999
1.5654052734375
1.5670166015625
1.4832275390624998
1.3986328124999998
1.3768798828125
1.43408203125
1.4638916015624999
1.464697265625
1.4719482421874999
1.4896728515625
1.52109375
1.5009521484375
1.5114257812499998
1.529150390625
1.5267333984375
1.55009765625
1.546875
1.5275390624999998
1.3027587890624999
1.46953125
1.522705078125
1.5057861328125
1.5412353515625
1.5863525390625
1.619384765625
1.7345947265625
1.6363037109374998
1.603271484375
1.5686279296874999
1.5726562499999999
1.558154296875
1.5686279296874999
1.554931640625
1.545263671875
1.5355957031249998
1.5331787109375
1.53076171875
1.5251220703125
1.5364013671874999
1.7345947265625
1.6636962890625
1.5404296874999999
1.5645996093749999
1.5492919921875
1.5017578125
1.4123291015625
1.4155517578124999
1.4155517578124999
1.4332763671875
1.4783935546875
1.4888671875
1.477587890625
1.5057861328125
1.509814453125
1.5267333984375
1.5436523437499998
1.5202880859374999
1.53720703125
1.525927734375
1.5275390624999998
1.3188720703124999
1.3752685546874999
1.509814453125
1.509814453125
1.5243164062499999
1.5984375
1.6612792968749999
1.7660156249999999
1.6371093749999999
1.5887695312499999
1.5847412109374999
1.546875
1.5654052734375
1.5750732421875
1.561376953125
1.5404296874999999
1.5299560546875
1.545263671875
1.55009765625
1.53076171875
1.5347900390625
1.5621826171875
1.674169921875
1.5525146484374999
1.5565429687499999
1.5557373046874998
1.4993408203124998
1.4469726562499998
1.40830078125
1.4123291015625
1.4518066406249999
1.4679199218749999
1.4759765624999999
1.4638916015624999
1.4840332031249999
1.5243164062499999
1.5082031249999999
1.5122314453124999
1.5299560546875
1.533984375
1.5355957031249998
1.5194824218749998
1.335791015625
1.3607666015625
1.5041748046874999
1.5283447265624999
1.5218994140625
1.5734619140625
1.6081054687499998
1.77890625
1.6645019531249998
1.6056884765625
1.5637939453124998
1.5734619140625
1.5637939453124998
1.561376953125
1.5758789062499998
1.5444580078124999
1.5476806640624998
1.5355957031249998
1.5428466796875
1.5267333984375
1.5315673828124998
1.56298828125
1.7781005859374999
1.5565429687499999
1.558154296875
1.5492919921875
1.5251220703125
1.4630859374999998
1.4123291015625
1.3913818359374999
1.426025390625
1.4542236328125
1.4767822265625
1.5025634765625
1.4977294921875
1.5138427734375
1.5315673828124998
1.525927734375
1.5114257812499998
1.5283447265624999
1.5299560546875
1.5364013671874999
1.5162597656249999
1.3575439453125
1.50498046875
1.5082031249999999
1.5073974609374998
1.5645996093749999
1.5887695312499999
1.7313720703125
1.6910888671875
1.6298583984375
1.5726562499999999
1.587158203125
1.5726562499999999
1.5573486328125
1.5492919921875
1.5637939453124998
1.5444580078124999
1.51787109375
1.5364013671874999
1.53076171875
1.5355957031249998
1.5275390624999998
1.754736328125
1.587158203125
1.5517089843749998
1.5605712890624999
1.5267333984375
1.4840332031249999
1.4091064453125
1.3978271484375
1.4139404296875
1.4655029296875
1.47275390625
1.496923828125
1.474365234375
1.4912841796874998
1.509814453125
1.5267333984375
1.5275390624999998
1.522705078125
1.533984375
1.51787109375
1.5404296874999999
1.281005859375
1.464697265625
1.5331787109375
1.509814453125
1.5243164062499999
1.5718505859374998
1.7499023437499999
1.6927001953124998
1.6201904296874998
1.5887695312499999
1.5839355468749998
1.5565429687499999
1.5444580078124999
1.5436523437499998
1.5533203125
1.5396240234374998
1.5194824218749998
1.55009765625
1.5517089843749998
1.533984375
1.5267333984375
1.735400390625
1.593603515625
1.56943359375
1.5396240234374998
1.5364013671874999
1.5001464843749999
1.4316650390624999
1.40830078125
1.4139404296875
1.4461669921875
1.4791992187499998
1.4888671875
1.4912841796874998
1.4977294921875
1.50498046875
1.506591796875
1.5347900390625
1.5315673828124998
1.5541259765625
1.5235107421874998
1.5267333984375
1.284228515625
1.4550292968749998
1.5122314453124999
1.5154541015624998
1.5283447265624999
1.5839355468749998
1.7015624999999999
1.7474853515625
1.6411376953124999
1.6040771484374998
1.5670166015625
1.5662109375
1.574267578125
1.5750732421875
1.5525146484374999
1.5476806640624998
1.5202880859374999
1.5355957031249998
1.5364013671874999
1.5299560546875
1.5299560546875
1.722509765625
1.662890625
1.53720703125
1.5533203125
1.5621826171875
1.46953125
1.4147460937499998
1.4155517578124999
1.432470703125
1.4364990234375
1.46630859375
1.48564453125
1.4896728515625
1.51787109375
1.5017578125
1.538818359375
1.5283447265624999
1.5331787109375
1.52109375
1.5283447265624999
1.5082031249999999
1.3140380859374998
1.4381103515625
1.5073974609374998
1.5009521484375
1.5355957031249998
1.5758789062499998
1.5984375
1.7458740234374999
1.6403320312499998
1.5944091796875
1.5927978515624999
1.5831298828125
1.5831298828125
1.5573486328125
1.5589599609375
1.5573486328125
1.5533203125
1.5299560546875
1.5364013671874999
1.5355957031249998
1.5299560546875
1.6806152343749998
1.69189453125
1.56943359375
1.5605712890624999
1.533984375
1.4928955078125
1.4800048828124999
1.400244140625
1.3986328124999998
1.4348876953124998
1.4550292968749998
1.48564453125
1.4953124999999998
1.4993408203124998
1.5138427734375
1.5114257812499998
1.5267333984375
1.5299560546875
1.5299560546875
1.5428466796875
1.5428466796875
1.364794921875
1.3607666015625
1.5170654296875
1.5001464843749999
1.506591796875
1.56943359375
1.6209960937499999
1.7853515624999998
1.662890625
1.60166015625
1.5984375
1.5702392578125
1.5573486328125
1.5654052734375
1.5621826171875
1.5492919921875
1.51787109375
1.53720703125
1.5460693359375
1.5364013671874999
1.5299560546875
1.5355957031249998
1.7128417968749998
1.53720703125
1.5533203125
1.554931640625
1.5001464843749999
1.4791992187499998
1.405078125
1.393798828125
1.4195800781249999
1.458251953125
1.4791992187499998
1.4848388671875
1.5041748046874999
1.52109375
1.5138427734375
1.522705078125
1.525927734375
1.5154541015624998
1.5194824218749998
1.5251220703125
1.38896484375
1.35673828125
1.5057861328125
1.5017578125
1.5146484375
1.5670166015625
1.574267578125
1.7635986328125
1.6967285156249998
1.6266357421875
1.5815185546875
1.5670166015625
1.5766845703124999
1.5654052734375
1.5734619140625
1.56298828125
1.5460693359375
1.5315673828124998
1.5436523437499998
1.5218994140625
1.5412353515625
1.5194824218749998
1.7587646484375
1.5911865234375
1.5533203125
1.5589599609375
1.5170654296875
1.4711425781249998
1.4203857421875
1.4066894531249998
1.4469726562499998
1.45341796875
1.4840332031249999
1.4816162109375
1.4711425781249998
1.5017578125
1.5154541015624998
1.5194824218749998
1.5364013671874999
1.5331787109375
1.5138427734375
1.5146484375
1.5355957031249998
1.281005859375
1.5082031249999999
1.5154541015624998
1.5194824218749998
1.577490234375
1.585546875
1.722509765625
1.6959228515625
1.6250244140624999
1.6056884765625
1.5863525390625
1.5766845703124999
1.5573486328125
1.546875
1.542041015625
1.5484863281249999
1.542041015625
1.5251220703125
1.5380126953125
1.52109375
1.5428466796875
1.7797119140625
1.6048828124999999
1.56298828125
1.5726562499999999
1.5243164062499999
1.4679199218749999
1.3728515625
1.4010498046875
1.4187744140624998
1.4679199218749999
1.46953125
1.490478515625
1.49853515625
1.506591796875
1.496923828125
1.5186767578125
1.5404296874999999
1.53720703125
1.5323730468749999
1.51787109375
1.5315673828124998
1.2785888671874999
1.4558349609374999
1.513037109375
1.5146484375
1.5122314453124999
1.5976318359375
1.7394287109375
1.7128417968749998
1.6234130859375
1.6000488281249998
1.577490234375
1.5758789062499998
1.5597656249999998
1.5597656249999998
1.5509033203125
1.5662109375
1.5444580078124999
1.5347900390625
1.538818359375
1.5267333984375
1.545263671875
1.714453125
1.6008544921874999
1.5436523437499998
1.5525146484374999
1.55009765625
1.48564453125
1.4034667968749999
1.4155517578124999
1.42119140625
1.4429443359374998
1.4655029296875
1.5001464843749999
1.490478515625
1.5122314453124999
1.496923828125
1.4961181640624999
1.51787109375
1.4993408203124998
1.5364013671874999
1.545263671875
1.5202880859374999
1.2826171874999999
1.4429443359374998
1.5146484375
1.513037109375
1.5347900390625
1.58232421875
1.6137451171875
1.7490966796874998
1.6435546875
1.603271484375
1.5758789062499998
1.574267578125
1.5782958984375
1.5670166015625
1.5734619140625
1.5517089843749998
1.52109375
1.5299560546875
1.5347900390625
1.5243164062499999
1.5364013671874999
1.6806152343749998
1.6967285156249998
1.5525146484374999
1.5670166015625
1.5436523437499998
1.5009521484375
1.4123291015625
1.4219970703125
1.405078125
1.45341796875
1.4679199218749999
1.4848388671875
1.4816162109375
1.490478515625
1.506591796875
1.5154541015624998
1.529150390625
1.53720703125
1.5299560546875
1.546875
1.522705078125
1.3712402343749999
1.413134765625
1.5170654296875
1.5243164062499999
1.5299560546875
1.5807128906249999
1.6081054687499998
1.7555419921875
1.6717529296875
1.5984375
1.561376953125
1.5863525390625
1.5444580078124999
1.56298828125
1.5404296874999999
1.5589599609375
1.525927734375
1.5323730468749999
1.522705078125
1.5275390624999998
1.5090087890625
1.6725585937499998
1.7184814453125
1.5750732421875
1.5654052734375
1.5573486328125
1.4888671875
1.4598632812499999
1.4139404296875
1.42119140625
1.4381103515625
1.47275390625
1.4840332031249999
1.4953124999999998
1.4751708984374998
1.506591796875
1.4977294921875
1.5186767578125
1.5267333984375
1.53076171875
1.5428466796875
1.538818359375
1.40830078125
1.32451171875
1.5017578125
1.5017578125
1.5001464843749999
1.5605712890624999
1.611328125
1.767626953125
1.6725585937499998
1.5815185546875
1.585546875
1.5686279296874999
1.558154296875
1.5718505859374998
1.5541259765625
1.561376953125
1.5533203125
1.5364013671874999
1.542041015625
1.5323730468749999
1.5436523437499998
1.5251220703125
1.76279296875
1.574267578125
1.546875
1.5557373046874998
1.5138427734375
1.46953125
1.3881591796875
1.405078125
1.4252197265625
1.4711425781249998
1.4638916015624999
1.4888671875
1.4896728515625
1.5041748046874999
1.5122314453124999
1.52109375
1.5364013671874999
1.5364013671874999
1.5243164062499999
1.522705078125
1.5202880859374999
1.3212890625
1.4759765624999999
1.506591796875
1.522705078125
1.5533203125
1.5807128906249999
1.754736328125
1.6878662109375
1.6322753906249998
1.585546875
1.574267578125
1.5533203125
1.5758789062499998
1.5734619140625
1.5428466796875
1.5565429687499999
1.542041015625
1.53720703125
1.5154541015624998
1.545263671875
1.525927734375
1.7853515624999998
1.6129394531249999
1.56298828125
1.5460693359375
1.5323730468749999
1.4622802734375
1.3978271484375
1.4058837890625
1.426025390625
1.4493896484375
1.4711425781249998
1.5017578125
1.493701171875
1.5082031249999999
1.5194824218749998
1.50498046875
1.5565429687499999
1.5404296874999999
1.5331787109375
1.5283447265624999
1.5364013671874999
1.2818115234374998
1.4848388671875
1.5162597656249999
1.506591796875
1.5436523437499998
1.5573486328125
1.7233154296875
1.7418457031249999
1.5992431640625
1.593603515625
1.5847412109374999
1.5654052734375
1.5621826171875
1.5621826171875
1.5887695312499999
1.525927734375
1.525927734375
1.5509033203125
1.5331787109375
1.5073974609374998
1.554931640625
1.767626953125
1.6250244140624999
1.5662109375
1.5573486328125
1.5315673828124998
1.4953124999999998
1.4542236328125
1.409912109375
1.413134765625
1.4364990234375
1.4655029296875
1.4711425781249998
1.4888671875
1.51787109375
1.509814453125
1.5154541015624998
1.5267333984375
1.5323730468749999
1.5202880859374999
1.522705078125
1.5186767578125
1.297119140625
1.4348876953124998
1.5138427734375
1.506591796875
1.522705078125
1.5758789062499998
1.6846435546874998
1.7370117187499998
1.6306640625
1.5984375
1.571044921875
1.5758789062499998
1.5702392578125
1.5766845703124999
1.5662109375
1.5484863281249999
1.5347900390625
1.538818359375
1.545263671875
1.522705078125
1.53720703125
1.651611328125
1.6250244140624999
1.5323730468749999
1.5670166015625
1.5533203125
1.5017578125
1.4147460937499998
1.4147460937499998
1.405078125
1.442138671875
1.4687255859375
1.490478515625
1.493701171875
1.4920898437499999
1.50498046875
1.5218994140625
1.51787109375
1.545263671875
1.5484863281249999
1.5106201171875
1.5323730468749999
1.2914794921875
1.413134765625
1.5315673828124998
1.4872558593749998
1.522705078125
1.5670166015625
1.61455078125
1.7668212890625
1.6411376953124999
1.6048828124999999
1.5807128906249999
1.587158203125
1.5750732421875
1.5476806640624998
1.5670166015625
1.558154296875
1.5525146484374999
1.5404296874999999
1.5404296874999999
1.5492919921875
1.5122314453124999
1.6024658203125
1.7217041015624999
1.5815185546875
1.545263671875
1.5533203125
1.5162597656249999
1.4526123046875
1.3994384765624999
1.3962158203125
1.4558349609374999
1.461474609375
1.4864501953125
1.4751708984374998
1.4864501953125
1.5106201171875
1.5275390624999998
1.5162597656249999
1.5380126953125
1.525927734375
1.5218994140625
1.5194824218749998
1.4389160156249998
1.3341796874999998
1.5146484375
1.5001464843749999
1.5202880859374999
1.5605712890624999
1.60166015625
1.780517578125
1.6572509765624999
1.6000488281249998
1.5815185546875
1.5718505859374998
1.5718505859374998
1.5436523437499998
1.56943359375
1.5517089843749998
1.5412353515625
1.542041015625
1.5243164062499999
1.533984375
1.5299560546875
1.5380126953125
1.7394287109375
1.5557373046874998
1.529150390625
1.5597656249999998
1.51787109375
1.490478515625
1.4123291015625
1.409912109375
1.4284423828125
1.464697265625
1.4832275390624998
1.4864501953125
1.474365234375
1.5122314453124999
1.5235107421874998
1.5114257812499998
1.5396240234374998
1.522705078125
1.52109375
1.5243164062499999
1.4679199218749999
1.3261230468749998
1.5025634765625
1.509814453125
1.5275390624999998
1.5541259765625
1.593603515625
1.7595703125
1.6886718749999998
1.6089111328124999
1.5766845703124999
1.571044921875
1.5718505859374998
1.5645996093749999
1.5702392578125
1.554931640625
1.5436523437499998
1.53076171875
1.5396240234374998
1.5492919921875
1.5380126953125
1.5347900390625
1.7813232421874998
1.5597656249999998
1.5557373046874998
1.558154296875
1.5114257812499998
1.4638916015624999
1.4171630859375
1.4034667968749999
1.4348876953124998
1.4630859374999998
1.4590576171874998
1.493701171875
1.4888671875
1.509814453125
1.4920898437499999
1.5186767578125
1.5138427734375
1.5396240234374998
1.5275390624999998
1.5283447265624999
1.5299560546875
1.3043701171875
1.482421875
1.5243164062499999
1.51787109375
1.558154296875
1.5791015625
1.6886718749999998
1.7055908203124999
1.6153564453125
1.5887695312499999
1.577490234375
1.5662109375
1.5734619140625
1.5645996093749999
1.5444580078124999
1.5404296874999999
1.558154296875
1.542041015625
1.533984375
1.542041015625
1.5162597656249999
1.7579589843749999
1.6218017578125
1.5517089843749998
1.5605712890624999
1.5283447265624999
1.4928955078125
1.4010498046875
1.4123291015625
1.4155517578124999
1.45341796875
1.4816162109375
1.4953124999999998
1.4751708984374998
1.4993408203124998
1.5122314453124999
1.5041748046874999
1.53076171875
1.5194824218749998
1.5323730468749999
1.5355957031249998
1.546875
1.3019531249999998
1.4719482421874999
1.5243164062499999
1.5025634765625
1.5436523437499998
1.571044921875
1.6910888671875
1.7418457031249999
1.6201904296874998
1.5911865234375
1.5662109375
1.5573486328125
1.56943359375
1.5517089843749998
1.5992431640625
1.5492919921875
1.5444580078124999
1.5484863281249999
1.529150390625
1.5082031249999999
1.533984375
1.7507080078125
1.6475830078125
1.542041015625
1.5645996093749999
1.542041015625
1.493701171875
1.4373046875
1.426025390625
1.3954101562499999
1.4381103515625
1.4888671875
1.4800048828124999
1.46953125
1.4953124999999998
1.5162597656249999
1.5283447265624999
1.53076171875
1.5017578125
1.5283447265624999
1.5267333984375
1.5275390624999998
1.327734375
1.3978271484375
1.506591796875
1.506591796875
1.5218994140625
1.5734619140625
1.6161621093749998
1.7555419921875
1.6556396484375
1.603271484375
1.590380859375
1.5678222656249998
1.5557373046874998
1.5654052734375
1.5670166015625
1.5726562499999999
1.5428466796875
1.529150390625
1.529150390625
1.5243164062499999
1.51787109375
1.6153564453125
1.7233154296875
1.5412353515625
1.5605712890624999
1.5565429687499999
1.50498046875
1.4397216796874999
1.42119140625
1.4058837890625
1.4469726562499998
1.46630859375
1.4687255859375
1.4791992187499998
1.4953124999999998
1.5090087890625
1.5146484375
1.5355957031249998
1.5476806640624998
1.5355957031249998
1.5355957031249998
1.5218994140625
1.4316650390624999
1.4115234374999999
1.522705078125
1.529150390625
1.5186767578125
1.554931640625
1.593603515625
1.77568359375
1.6653076171874999
1.61455078125
1.5815185546875
1.5702392578125
1.5533203125
1.5541259765625
1.5758789062499998
1.5492919921875
1.5428466796875
1.5355957031249998
1.53720703125
1.5202880859374999
1.5323730468749999
1.5565429687499999
1.735400390625
1.5670166015625
1.5509033203125
1.5573486328125
1.5267333984375
1.4864501953125
1.397021484375
1.4042724609375
1.4155517578124999
1.4703369140625
1.493701171875
1.5057861328125
1.4896728515625
1.4953124999999998
1.5202880859374999
1.522705078125
1.5267333984375
1.5267333984375
1.53720703125
1.5218994140625
1.4679199218749999
1.3237060546875
1.5218994140625
1.49853515625
1.513037109375
1.5645996093749999
1.5766845703124999
1.7781005859374999
1.7015624999999999
1.5984375
1.5637939453124998
1.5895751953125
1.56298828125
1.5718505859374998
1.5525146484374999
1.5621826171875
1.5243164062499999
1.5146484375
1.53720703125
1.5460693359375
1.5355957031249998
1.525927734375
1.7289550781249998
1.56943359375
1.5654052734375
1.5597656249999998
1.5218994140625
1.477587890625
1.38896484375
1.41796875
1.4332763671875
1.4574462890625
1.4920898437499999
1.4783935546875
1.4630859374999998
1.5170654296875
1.5218994140625
1.4993408203124998
1.522705078125
1.5082031249999999
1.5380126953125
1.5525146484374999
1.5283447265624999
1.2995361328125
1.4848388671875
1.5114257812499998
1.4953124999999998
1.5380126953125
1.5654052734375
1.7200927734375
1.7176757812499999
1.6427490234375
1.5887695312499999
1.5758789062499998
1.5662109375
1.558154296875
1.554931640625
1.5654052734375
1.5533203125
1.5444580078124999
1.554931640625
1.5517089843749998
1.5235107421874998
1.5114257812499998
1.7531249999999998
1.5895751953125
1.5517089843749998
1.5484863281249999
1.5412353515625
1.4840332031249999
1.3954101562499999
1.4228027343749998
1.4316650390624999
1.4630859374999998
1.4735595703125
1.482421875
1.4800048828124999
1.5082031249999999
1.5041748046874999
1.5041748046874999
1.5186767578125
1.5444580078124999
1.5218994140625
1.538818359375
1.5412353515625
1.2785888671874999
1.4622802734375
1.5243164062499999
1.49853515625
1.5235107421874998
1.5758789062499998
1.667724609375
1.6927001953124998
1.6322753906249998
1.5863525390625
1.58232421875
1.5766845703124999
1.5662109375
1.5678222656249998
1.5517089843749998
1.5235107421874998
1.5436523437499998
1.5565429687499999
1.5509033203125
1.513037109375
1.5299560546875
1.7474853515625
1.6532226562499999
1.5436523437499998
1.5654052734375
1.5533203125
1.4864501953125
1.4034667968749999
1.426025390625
1.3986328124999998
1.4469726562499998
1.4816162109375
1.4896728515625
1.493701171875
1.5001464843749999
1.509814453125
1.52109375
1.5315673828124998
1.529150390625
1.51787109375
1.5275390624999998
1.5460693359375
1.316455078125
1.4203857421875
1.525927734375
1.5057861328125
1.5057861328125
1.5702392578125
1.651611328125
1.7507080078125
1.6282470703124998
1.5895751953125
1.5734619140625
1.5670166015625
1.5541259765625
1.5476806640624998
1.5662109375
1.5573486328125
1.545263671875
1.5476806640624998
1.53720703125
1.5412353515625
1.538818359375
1.6000488281249998
1.6475830078125
1.53720703125
1.5525146484374999
1.55009765625
1.4864501953125
1.45341796875
1.4276367187499999
1.4244140625
1.4437499999999999
1.4550292968749998
1.464697265625
1.4687255859375
1.5073974609374998
1.5106201171875
1.5202880859374999
1.525927734375
1.5275390624999998
1.5380126953125
1.542041015625
1.5404296874999999
1.3341796874999998
1.3736572265625
1.5251220703125
1.50498046875
1.5122314453124999
1.55009765625
1.6185791015625
1.7732666015624998
1.6669189453125
1.6177734375
1.5662109375
1.5782958984375
1.545263671875
1.558154296875
1.574267578125
1.5605712890624999
1.5492919921875
1.5364013671874999
1.538818359375
1.5404296874999999
1.538818359375
1.5702392578125
1.7136474609374999
1.5637939453124998
1.5509033203125
1.5718505859374998
1.5033691406249998
1.4477783203124999
1.4139404296875
1.413134765625
1.445361328125
1.4630859374999998
1.4783935546875
1.4864501953125
1.4896728515625
1.5009521484375
1.5057861328125
1.51787109375
1.5218994140625
1.5267333984375
1.538818359375
1.542041015625
1.48564453125
1.37607421875
1.5355957031249998
1.509814453125
1.5138427734375
1.5726562499999999
1.5782958984375
1.767626953125
1.6508056640625
1.603271484375
1.5702392578125
1.5766845703124999
1.5621826171875
1.5484863281249999
1.5662109375
1.5597656249999998
1.5517089843749998
1.53720703125
1.5323730468749999
1.5355957031249998
1.5315673828124998
1.546875
1.7168701171874998
1.5831298828125
1.5645996093749999
1.5605712890624999
1.513037109375
1.4751708984374998
1.400244140625
1.4115234374999999
1.4010498046875
1.4735595703125
1.4759765624999999
1.496923828125
1.496923828125
1.509814453125
1.5235107421874998
1.5082031249999999
1.5267333984375
1.5243164062499999
1.53720703125
1.51787109375
1.509814453125
1.3059814453124998
1.5154541015624998
1.506591796875
1.5073974609374998
1.5476806640624998
1.593603515625
1.7466796875
1.6886718749999998
1.6177734375
1.587158203125
1.5678222656249998
1.5686279296874999
1.5758789062499998
1.55009765625
1.5484863281249999
1.5517089843749998
1.5412353515625
1.5436523437499998
1.53076171875
1.5355957031249998
1.5412353515625
1.7619873046874999
1.5887695312499999
1.5541259765625
1.558154296875
1.533984375
1.4816162109375
1.397021484375
1.405078125
1.4284423828125
1.4550292968749998
1.4751708984374998
1.48564453125
1.4977294921875
1.5025634765625
1.5202880859374999
1.5146484375
1.5355957031249998
1.5170654296875
1.5331787109375
1.5275390624999998
1.5186767578125
1.29228515625
1.4751708984374998
1.513037109375
1.506591796875
1.533984375
1.577490234375
1.699951171875
1.714453125
1.63388671875
1.5968261718749999
1.5847412109374999
1.558154296875
1.5734619140625
1.5678222656249998
1.55009765625
1.5565429687499999
1.5460693359375
1.5283447265624999
1.5484863281249999
1.5323730468749999
1.5355957031249998
1.722509765625
1.6886718749999998
1.5533203125
1.5557373046874998
1.5404296874999999
1.4945068359375
1.4228027343749998
1.3994384765624999
1.413134765625
1.4671142578124998
1.474365234375
1.4945068359375
1.4832275390624998
1.493701171875
1.4977294921875
1.53720703125
1.51787109375
1.5251220703125
1.529150390625
1.533984375
1.5436523437499998
1.3172607421875
1.4735595703125
1.52109375
1.5186767578125
1.5444580078124999
1.5509033203125
1.6508056640625
1.7080078125
1.635498046875
1.5944091796875
1.577490234375
1.56943359375
1.561376953125
1.561376953125
1.5670166015625
1.5412353515625
1.5331787109375
1.5557373046874998
1.5299560546875
1.5194824218749998
1.5283447265624999
1.7023681640625
1.667724609375
1.5605712890624999
1.5750732421875
1.5484863281249999
1.4920898437499999
1.4381103515625
1.409912109375
1.4139404296875
1.43408203125
1.490478515625
1.477587890625
1.4759765624999999
1.5154541015624998
1.5073974609374998
1.5090087890625
1.5186767578125
1.5235107421874998
1.5186767578125
1.5573486328125
1.542041015625
1.3494873046875
1.3720458984375
1.4896728515625
1.5082031249999999
1.5194824218749998
1.5758789062499998
1.6153564453125
1.7587646484375
1.662890625
1.5887695312499999
1.5887695312499999
1.5605712890624999
1.5726562499999999
1.554931640625
1.5718505859374998
1.5589599609375
1.529150390625
1.5444580078124999
1.522705078125
1.5243164062499999
1.5315673828124998
1.5597656249999998
1.6806152343749998
1.558154296875
1.554931640625
1.545263671875
1.4848388671875
1.4880615234374999
1.4332763671875
1.4091064453125
1.4300537109375
1.47275390625
1.4912841796874998
1.4872558593749998
1.4848388671875
1.5138427734375
1.525927734375
1.52109375
1.5138427734375
1.5476806640624998
1.5355957031249998
1.5404296874999999
1.368017578125
1.353515625
1.4953124999999998
1.51787109375
1.5218994140625
1.5758789062499998
1.5968261718749999
1.7426513671875
1.67900390625
1.603271484375
1.5879638671874998
1.56943359375
1.56943359375
1.561376953125
1.5734619140625
1.5541259765625
1.5484863281249999
1.5331787109375
1.5347900390625
1.529150390625
1.538818359375
1.5243164062499999
1.7531249999999998
