1.5186767578125
1.4880615234374999
1.464697265625
1.4590576171874998
1.4735595703125
1.4961181640624999
1.5001464843749999
1.496923828125
1.509814453125
1.5364013671874999
1.5170654296875
1.5315673828124998
1.53076171875
1.5275390624999998
1.5428466796875
1.5283447265624999
1.405078125
1.4518066406249999
1.5186767578125
1.5122314453124999
1.5283447265624999
1.5597656249999998
1.61455078125
1.6532226562499999
1.6000488281249998
1.5831298828125
1.5678222656249998
1.5637939453124998
1.5517089843749998
1.5533203125
1.5484863281249999
1.5533203125
1.5412353515625
1.5355957031249998
1.5380126953125
1.538818359375
1.545263671875
1.5678222656249998
1.6459716796875
1.542041015625
1.5541259765625
1.5476806640624998
1.5082031249999999
1.474365234375
1.4791992187499998
1.4703369140625
1.477587890625
1.4896728515625
1.4993408203124998
1.49853515625
1.5073974609374998
1.5114257812499998
1.5090087890625
1.5170654296875
1.5347900390625
1.538818359375
1.52109375
1.529150390625
1.4961181640624999
1.4381103515625
1.5218994140625
1.5106201171875
1.53076171875
1.5444580078124999
1.5597656249999998
1.65966796875
1.593603515625
1.59521484375
1.587158203125
1.561376953125
1.5541259765625
1.55009765625
1.5492919921875
1.5380126953125
1.5637939453124998
1.55009765625
1.522705078125
1.538818359375
1.542041015625
1.5533203125
1.6572509765624999
1.5565429687499999
1.5533203125
1.5557373046874998
1.529150390625
1.4840332031249999
1.4896728515625
1.4550292968749998
1.464697265625
1.4848388671875
1.4928955078125
1.50498046875
1.5017578125
1.5138427734375
1.5009521484375
1.5186767578125
1.538818359375
1.53720703125
1.538818359375
1.5476806640624998
1.5114257812499998
1.3857421875
1.5154541015624998
1.5082031249999999
1.5073974609374998
1.55009765625
1.5758789062499998
1.6814208984374999
1.6201904296874998
1.5678222656249998
1.5605712890624999
1.5597656249999998
1.55009765625
1.558154296875
1.5565429687499999
1.5460693359375
1.5364013671874999
1.5380126953125
1.538818359375
1.5323730468749999
1.5218994140625
1.5355957031249998
1.662890625
1.574267578125
1.545263671875
1.5444580078124999
1.5251220703125
1.513037109375
1.4550292968749998
1.4510009765624998
1.4735595703125
1.4751708984374998
1.4945068359375
1.4977294921875
1.5033691406249998
1.5194824218749998
1.5138427734375
1.5235107421874998
1.5315673828124998
1.533984375
1.533984375
1.533984375
1.5251220703125
1.4058837890625
1.5057861328125
1.5122314453124999
1.5283447265624999
1.55009765625
1.5605712890624999
1.658056640625
1.6435546875
1.60166015625
1.5718505859374998
1.5670166015625
1.5573486328125
1.558154296875
1.5476806640624998
1.5476806640624998
1.5412353515625
1.5444580078124999
1.546875
1.53076171875
1.5396240234374998
1.5412353515625
1.6403320312499998
1.5718505859374998
1.5484863281249999
1.5492919921875
1.5428466796875
1.5041748046874999
1.4630859374999998
1.4622802734375
1.4735595703125
1.4767822265625
1.5057861328125
1.4920898437499999
1.5001464843749999
1.5186767578125
1.5186767578125
1.533984375
1.5202880859374999
1.5380126953125
1.5146484375
1.5251220703125
1.5380126953125
1.3849365234375
1.482421875
1.5170654296875
1.52109375
1.538818359375
1.5476806640624998
1.5992431640625
1.6379150390625
1.587158203125
1.5807128906249999
1.5686279296874999
1.546875
1.5654052734375
1.5565429687499999
1.5331787109375
1.5460693359375
1.5428466796875
1.53720703125
1.5364013671874999
1.53720703125
1.5396240234374998
1.6105224609375
1.6185791015625
1.5492919921875
1.5492919921875
1.5436523437499998
1.5235107421874998
1.4703369140625
1.4679199218749999
1.4445556640625
1.4840332031249999
1.48564453125
1.5138427734375
1.5082031249999999
1.5186767578125
1.52109375
1.5162597656249999
1.5275390624999998
1.5412353515625
1.5218994140625
1.5251220703125
1.5275390624999998
1.4413330078125
1.4284423828125
1.506591796875
1.5243164062499999
1.5218994140625
1.5412353515625
1.619384765625
1.6604736328124998
1.5879638671874998
1.5758789062499998
1.56298828125
1.5645996093749999
1.5525146484374999
1.5412353515625
1.5573486328125
1.5364013671874999
1.5355957031249998
1.5396240234374998
1.5412353515625
1.5355957031249998
1.538818359375
1.546875
1.6282470703124998
1.5436523437499998
1.5460693359375
1.529150390625
1.5283447265624999
1.5106201171875
1.4687255859375
1.4630859374999998
1.4872558593749998
1.4759765624999999
1.4961181640624999
1.490478515625
1.5154541015624998
1.5186767578125
1.5073974609374998
1.5202880859374999
1.5331787109375
1.5267333984375
1.5404296874999999
1.525927734375
1.4461669921875
1.4308593749999998
1.5218994140625
1.5057861328125
1.5251220703125
1.545263671875
1.5799072265624998
1.6508056640625
1.6089111328124999
1.5879638671874998
1.5782958984375
1.5726562499999999
1.5517089843749998
1.5573486328125
1.5509033203125
1.5404296874999999
1.5404296874999999
1.5323730468749999
1.5315673828124998
1.5364013671874999
1.52109375
1.5396240234374998
1.658056640625
1.558154296875
1.542041015625
1.5573486328125
1.5170654296875
1.509814453125
1.4687255859375
1.456640625
1.4735595703125
1.4945068359375
1.490478515625
1.5170654296875
1.50498046875
1.5194824218749998
1.51787109375
1.5283447265624999
1.5251220703125
1.5323730468749999
1.5235107421874998
1.5323730468749999
1.5218994140625
1.413134765625
1.5106201171875
1.513037109375
1.5275390624999998
1.5428466796875
1.5662109375
1.6653076171874999
1.6056884765625
1.5726562499999999
1.5750732421875
1.56298828125
1.5573486328125
1.558154296875
1.5428466796875
1.5428466796875
1.5331787109375
1.542041015625
1.542041015625
1.533984375
1.5364013671874999
1.538818359375
1.6612792968749999
1.571044921875
1.5557373046874998
1.5573486328125
1.5331787109375
1.5106201171875
1.4542236328125
1.4655029296875
1.4630859374999998
1.4759765624999999
1.4953124999999998
1.5114257812499998
1.5017578125
1.5162597656249999
1.5090087890625
1.5154541015624998
1.5283447265624999
1.533984375
1.5315673828124998
1.5355957031249998
1.5412353515625
1.3921875
1.4993408203124998
1.5154541015624998
1.5275390624999998
1.5347900390625
1.5589599609375
1.6459716796875
1.6322753906249998
1.590380859375
1.5718505859374998
1.5678222656249998
1.5412353515625
1.5517089843749998
1.558154296875
1.5597656249999998
1.5355957031249998
1.5323730468749999
1.5396240234374998
1.542041015625
1.522705078125
1.533984375
1.65
1.5791015625
1.5525146484374999
1.5484863281249999
1.533984375
1.5082031249999999
1.4759765624999999
1.46953125
1.448583984375
1.474365234375
1.5090087890625
1.5122314453124999
1.4840332031249999
1.509814453125
1.5106201171875
1.53720703125
1.5299560546875
1.529150390625
1.5347900390625
1.525927734375
1.53720703125
1.3954101562499999
1.464697265625
1.5162597656249999
1.5122314453124999
1.5404296874999999
1.561376953125
1.603271484375
1.6572509765624999
1.6089111328124999
1.5686279296874999
1.5758789062499998
1.571044921875
1.561376953125
1.5444580078124999
1.5517089843749998
1.533984375
1.5299560546875
1.5380126953125
1.5275390624999998
1.5476806640624998
1.533984375
1.5968261718749999
1.6298583984375
1.5492919921875
1.5404296874999999
1.5484863281249999
1.5154541015624998
1.474365234375
1.4671142578124998
1.4703369140625
1.48564453125
1.4783935546875
1.5001464843749999
1.5057861328125
1.5082031249999999
1.5251220703125
1.5146484375
1.5251220703125
1.5331787109375
1.5299560546875
1.5267333984375
1.5444580078124999
1.4574462890625
1.4655029296875
1.51787109375
1.529150390625
1.5283447265624999
1.5476806640624998
1.5734619140625
1.6427490234375
1.59521484375
1.571044921875
1.571044921875
1.5396240234374998
1.5589599609375
1.5605712890624999
1.5436523437499998
1.53076171875
1.529150390625
1.5476806640624998
1.5380126953125
1.533984375
1.5355957031249998
1.5782958984375
1.654833984375
1.5444580078124999
1.5533203125
1.5396240234374998
1.5275390624999998
1.4783935546875
1.4638916015624999
1.4590576171874998
1.4783935546875
1.5001464843749999
1.5122314453124999
1.5009521484375
1.5194824218749998
1.5323730468749999
1.509814453125
1.5251220703125
1.5444580078124999
1.53720703125
1.5299560546875
1.5323730468749999
1.4719482421874999
1.4091064453125
1.5122314453124999
1.5033691406249998
1.5146484375
1.5573486328125
1.5645996093749999
1.667724609375
1.611328125
1.585546875
1.561376953125
1.5726562499999999
1.5565429687499999
1.5541259765625
1.5597656249999998
1.5541259765625
1.533984375
1.5436523437499998
1.5323730468749999
1.5347900390625
1.5355957031249998
1.5331787109375
1.6322753906249998
1.5460693359375
1.5517089843749998
1.5484863281249999
1.5251220703125
1.5082031249999999
1.4679199218749999
1.4518066406249999
1.47275390625
1.4961181640624999
1.5073974609374998
1.5025634765625
1.5017578125
1.5170654296875
1.5186767578125
1.525927734375
1.5106201171875
1.5396240234374998
1.5299560546875
1.5275390624999998
1.5001464843749999
1.4115234374999999
1.5041748046874999
1.513037109375
1.5146484375
1.5396240234374998
1.5509033203125
1.6435546875
1.6371093749999999
1.5960205078124998
1.5678222656249998
1.577490234375
1.5573486328125
1.55009765625
1.5573486328125
1.5645996093749999
1.5364013671874999
1.5347900390625
1.5364013671874999
1.5331787109375
1.506591796875
1.5251220703125
1.6508056640625
1.5734619140625
1.5654052734375
1.5533203125
1.558154296875
1.5186767578125
1.4590576171874998
1.464697265625
1.47275390625
1.4719482421874999
1.4800048828124999
1.5017578125
1.509814453125
1.5275390624999998
1.5243164062499999
1.5114257812499998
1.5315673828124998
1.5146484375
1.53076171875
1.5331787109375
1.5218994140625
1.4155517578124999
1.5017578125
1.51787109375
1.5162597656249999
1.5267333984375
1.5323730468749999
1.6298583984375
1.6371093749999999
1.6040771484374998
1.5839355468749998
1.5686279296874999
1.5597656249999998
1.545263671875
1.5251220703125
1.5364013671874999
1.5283447265624999
1.5243164062499999
1.5533203125
1.5283447265624999
1.5251220703125
1.5243164062499999
1.6322753906249998
1.5911865234375
1.5597656249999998
1.5589599609375
1.525927734375
1.5073974609374998
1.4711425781249998
1.4550292968749998
1.46630859375
1.4840332031249999
1.4961181640624999
1.5082031249999999
1.5025634765625
1.5114257812499998
1.5170654296875
1.525927734375
1.538818359375
1.5380126953125
1.5331787109375
1.5275390624999998
1.5154541015624998
1.3897705078125
1.4437499999999999
1.5025634765625
1.5033691406249998
1.522705078125
1.545263671875
1.619384765625
1.67578125
1.609716796875
1.5984375
1.5911865234375
1.5782958984375
1.55009765625
1.5589599609375
1.5517089843749998
1.55009765625
1.529150390625
1.522705078125
1.5186767578125
1.5170654296875
1.5186767578125
1.5791015625
1.6169677734374999
1.574267578125
1.5605712890624999
1.5597656249999998
1.53720703125
1.4896728515625
1.4477783203124999
1.4630859374999998
1.4598632812499999
1.4848388671875
1.50498046875
1.4993408203124998
1.5138427734375
1.5082031249999999
1.5138427734375
1.5331787109375
1.5283447265624999
1.5218994140625
1.5194824218749998
1.5323730468749999
1.3929931640625
1.442138671875
1.5202880859374999
1.5082031249999999
1.506591796875
1.5428466796875
1.5927978515624999
1.6669189453125
1.6201904296874998
1.5758789062499998
1.56298828125
1.571044921875
1.5887695312499999
1.5662109375
1.5565429687499999
1.5557373046874998
1.558154296875
1.542041015625
1.5202880859374999
1.51787109375
1.538818359375
1.55009765625
1.6806152343749998
1.5654052734375
1.5726562499999999
1.5799072265624998
1.5299560546875
1.4888671875
1.4389160156249998
1.4711425781249998
1.474365234375
1.458251953125
1.4679199218749999
1.4655029296875
1.4840332031249999
1.506591796875
1.5154541015624998
1.493701171875
1.5106201171875
1.5033691406249998
1.5476806640624998
1.5782958984375
1.554931640625
1.445361328125
1.5299560546875
1.5122314453124999
1.5243164062499999
1.5283447265624999
1.5662109375
1.670947265625
1.6008544921874999
1.56298828125
1.5251220703125
1.538818359375
1.5533203125
1.5605712890624999
1.5484863281249999
1.5355957031249998
1.5186767578125
1.5460693359375
1.5299560546875
1.529150390625
1.5090087890625
1.5283447265624999
1.690283203125
1.5645996093749999
1.5726562499999999
1.571044921875
1.5275390624999998
1.482421875
1.4316650390624999
1.4364990234375
1.4316650390624999
1.4518066406249999
1.4896728515625
1.5017578125
1.5106201171875
1.5251220703125
1.5243164062499999
1.5412353515625
1.5315673828124998
1.5525146484374999
1.5565429687499999
1.5782958984375
1.585546875
1.35673828125
1.432470703125
1.4373046875
1.4735595703125
1.53076171875
1.5637939453124998
1.6612792968749999
1.6564453124999998
1.6242187499999998
1.6306640625
1.5984375
1.5734619140625
1.577490234375
1.5678222656249998
1.5533203125
1.545263671875
1.5243164062499999
1.5509033203125
1.56298828125
1.5154541015624998
1.5090087890625
1.7200927734375
1.609716796875
1.58232421875
1.5686279296874999
1.5509033203125
1.4840332031249999
1.4107177734374998
1.40185546875
1.416357421875
1.4606689453125
1.4518066406249999
1.4783935546875
1.4679199218749999
1.5186767578125
1.5347900390625
1.5444580078124999
1.5557373046874998
1.5678222656249998
1.574267578125
1.5839355468749998
1.538818359375
1.30517578125
1.4759765624999999
1.5122314453124999
1.464697265625
1.5138427734375
1.5436523437499998
1.699951171875
1.7208984374999998
1.6532226562499999
1.587158203125
1.5791015625
1.5557373046874998
1.5436523437499998
1.542041015625
1.5436523437499998
1.5670166015625
1.5380126953125
1.525927734375
1.5073974609374998
1.513037109375
1.5251220703125
1.7571533203124998
1.6967285156249998
1.6081054687499998
1.5911865234375
1.5879638671874998
1.4791992187499998
1.4123291015625
1.448583984375
1.4493896484375
1.4276367187499999
1.4518066406249999
1.442138671875
1.456640625
1.49853515625
1.5138427734375
1.4920898437499999
1.5082031249999999
1.4961181640624999
1.5073974609374998
1.53720703125
1.5412353515625
1.2963134765625
1.413134765625
1.490478515625
1.4840332031249999
1.533984375
1.5815185546875
1.6653076171874999
1.7539306640624999
1.683837890625
1.6556396484375
1.609716796875
1.5718505859374998
1.5726562499999999
1.5492919921875
1.577490234375
1.5750732421875
1.55009765625
1.5396240234374998
1.5194824218749998
1.5355957031249998
1.5533203125
1.7458740234374999
1.7555419921875
1.6371093749999999
1.5541259765625
1.56298828125
1.5347900390625
1.405078125
1.35673828125
1.3229003906249999
1.3583496093749998
1.4058837890625
1.4437499999999999
1.4711425781249998
1.5001464843749999
1.493701171875
1.4671142578124998
1.456640625
1.4671142578124998
1.5154541015624998
1.52109375
1.5347900390625
1.2262207031249999
1.21494140625
1.3962158203125
1.384130859375
1.4300537109375
1.554931640625
1.62744140625
1.9118408203125
1.8119384765625
1.7136474609374999
1.6153564453125
1.571044921875
1.585546875
1.5791015625
1.545263671875
1.574267578125
1.506591796875
1.4679199218749999
1.4896728515625
1.5194824218749998
1.496923828125
1.5525146484374999
1.96904296875
1.71123046875
1.6951171875
1.590380859375
1.4300537109375
1.3583496093749998
1.0973144531249999
1.11181640625
1.1883544921875
1.33740234375
1.4526123046875
1.4332763671875
1.4679199218749999
1.5476806640624998
1.558154296875
1.6081054687499998
1.5960205078124998
1.5186767578125
1.55009765625
1.5315673828124998
1.0675048828125
0.9031494140624999
1.19560546875
1.3365966796875
1.4115234374999999
1.5597656249999998
1.7265380859375
2.32998046875
2.2115478515625
1.9875732421874999
1.7829345703125
1.7329833984374998
1.5782958984375
1.638720703125
1.64677734375
1.6781982421875
1.6185791015625
1.5476806640624998
1.4316650390624999
1.46953125
1.5750732421875
1.5154541015624998
2.383154296875
2.0407470703125
1.9464843749999998
1.8586669921874999
1.7345947265625
1.4493896484375
1.02802734375
0.945849609375
0.8967041015624999
0.9216796875
1.068310546875
1.219775390625
1.2366943359375
1.405078125
1.4356933593749999
1.490478515625
1.5799072265624998
1.5992431640625
1.5944091796875
1.6435546875
1.61455078125
0.475341796875
0.8024414062499999
0.910400390625
1.08603515625
1.416357421875
1.6371093749999999
2.4210205078125
2.65546875
2.4725830078124997
2.247802734375
2.1076171875
1.8465820312499999
1.7507080078125
1.6773925781249999
1.6379150390625
1.670947265625
1.496923828125
1.4526123046875
1.49853515625
1.4671142578124998
1.5589599609375
2.4951416015624996
2.41376953125
2.228466796875
1.9996582031249999
1.7982421874999999
1.5573486328125
0.8572265625
0.581689453125
0.4648681640625
0.7017333984374999
0.8096923828125
0.8830078124999999
1.02158203125
1.216552734375
1.284228515625
1.426025390625
1.4429443359374998
1.538818359375
1.5090087890625
1.4308593749999998
1.496923828125
0.22236328125
0.1264892578125
0.233642578125
0.233642578125
0.32065429687499997
0.62841796875
1.5235107421874998
2.39443359375
2.8045166015625
3.0002929687499997
2.8947509765625
2.7674560546875
2.719921875
2.5636230468749996
2.56201171875
2.5177001953125
2.4613037109375
2.4177978515625
2.3074218749999997
2.2760009765625
2.2002685546875
3.0317138671875
3.0325195312499997
3.0309082031249996
3.0365478515624997
3.0357421875
3.0317138671875
2.6482177734374996
2.270361328125
1.4115234374999999
0.9651855468749999
0.604248046875
0.146630859375
0.0298095703125
0.0298095703125
0.033032226562499996
0.02578125
0.026586914062499998
0.0298095703125
0.030615234374999998
0.09426269531249999
0.12246093749999999
0.0298095703125
0.0298095703125
0.0298095703125
0.02900390625
0.0314208984375
0.027392578124999997
0.0314208984375
1.3575439453125
1.993212890625
2.2469970703124997
2.4282714843749997
2.54267578125
2.6103515625
2.6659423828124997
2.6748046875
2.553955078125
2.5370361328124997
2.41376953125
2.3614013671875
2.3315917968749997
2.1978515625
3.0325195312499997
3.029296875
3.0309082031249996
3.0325195312499997
3.0357421875
3.034130859375
3.0325195312499997
2.3340087890625
1.7055908203124999
1.239111328125
0.7742431640624999
0.4680908203125
0.22478027343749998
0.10957031249999999
0.0298095703125
0.037060546874999996
0.0346435546875
0.1313232421875
0.22880859374999998
0.2054443359375
0.281982421875
0.0378662109375
0.041088867187499996
0.030615234374999998
0.026586914062499998
0.02578125
0.030615234374999998
0.02578125
1.2399169921875
1.861083984375
2.1422607421874997
2.3533447265625
2.5370361328124997
2.66513671875
2.8302978515625
2.8286865234375
2.8536621093749996
2.892333984375
2.7328124999999996
2.7593994140625
2.6296874999999997
2.4677490234375
2.3307861328125
3.0309082031249996
3.0325195312499997
3.0309082031249996
3.0365478515624997
3.0301025390625
3.0317138671875
2.6304931640625
2.0069091796875
1.1867431640625
0.78955078125
0.4680908203125
0.1893310546875
0.064453125
0.02900390625
0.030615234374999998
0.23686523437499998
0.030615234374999998
0.07814941406249999
0.153076171875
0.223974609375
0.15871582031249998
0.0314208984375
0.0298095703125
0.02900390625
0.0298095703125
0.030615234374999998
0.0298095703125
0.7154296874999999
1.31162109375
2.07861328125
2.370263671875
2.45888671875
2.5692626953124997
2.7094482421875
2.795654296875
2.818212890625
2.8166015625
2.6981689453124997
2.6216308593749997
2.4991699218749996
2.4234375
2.373486328125
3.0325195312499997
3.0357421875
3.0317138671875
3.0349365234374996
3.029296875
3.0365478515624997
2.5563720703125
1.9360107421875
1.3905761718749998
0.9627685546875
0.62197265625
0.26748046875
0.0298095703125
0.0298095703125
0.027392578124999997
0.0249755859375
0.030615234374999998
0.03544921875
0.09023437499999999
0.1554931640625
0.185302734375
0.0298095703125
0.033032226562499996
0.015307617187499999
0.030615234374999998
0.0314208984375
0.0314208984375
0.22236328125
1.6169677734374999
2.0576660156249997
2.2832519531249997
2.489501953125
2.512060546875
2.6353271484375
2.6321044921874996
2.70380859375
2.698974609375
2.731201171875
2.7529541015624996
2.7521484375
2.818212890625
2.5644287109375
3.0317138671875
3.0325195312499997
3.0317138671875
3.029296875
3.0317138671875
3.0309082031249996
2.9495361328125
2.3074218749999997
1.6806152343749998
1.036083984375
0.6388916015624999
0.3440185546875
0.0298095703125
0.030615234374999998
0.02578125
0.0249755859375
0.0298095703125
0.030615234374999998
0.030615234374999998
0.0580078125
0.08056640625
0.033837890625
0.030615234374999998
0.0314208984375
0.0281982421875
0.0298095703125
0.02900390625
0.0298095703125
1.24072265625
1.7539306640624999
2.1624023437499997
2.4226318359375
2.5934326171874997
2.6441894531249996
2.7561767578125
2.9390625
3.0284912109374997
2.914892578125
2.9543701171874996
2.8617187499999996
2.7932373046874996
2.7247558593749996
2.6748046875
3.0317138671875
3.0317138671875
3.034130859375
3.0357421875
3.029296875
3.0333251953125
2.624853515625
1.7370117187499998
1.2141357421874999
0.8282226562499999
0.533349609375
0.11762695312499999
0.030615234374999998
0.0298095703125
0.030615234374999998
0.0298095703125
0.030615234374999998
0.042700195312499994
0.14501953125
0.23283691406249998
0.18691406249999998
0.0298095703125
0.030615234374999998
0.02900390625
0.030615234374999998
0.033032226562499996
0.03544921875
0.733154296875
1.8731689453125
2.0971435546875
2.3549560546875
2.3887939453125
2.576513671875
2.650634765625
2.745703125
2.6917236328125
2.7819580078125
2.7158935546875
2.666748046875
2.6055175781249997
2.4741943359375
2.3420654296875
3.029296875
3.0325195312499997
3.0349365234374996
3.034130859375
3.0309082031249996
3.037353515625
2.5644287109375
2.0278564453125
1.482421875
1.0787841796875
0.6268066406249999
0.391552734375
0.107958984375
0.030615234374999998
0.030615234374999998
0.030615234374999998
0.0314208984375
0.07009277343749999
0.02900390625
0.042700195312499994
0.103125
0.023364257812499997
0.030615234374999998
0.02900390625
0.0346435546875
0.030615234374999998
0.0298095703125
0.8064697265624999
1.5194824218749998
1.9650146484375
2.25263671875
2.4749999999999996
2.5313964843749996
2.5773193359374997
2.631298828125
2.6852783203125
2.7102539062499997
2.582958984375
2.591015625
2.6047119140625
2.47822265625
2.434716796875
3.0357421875
3.0317138671875
3.027685546875
3.0309082031249996
3.0301025390625
3.0357421875
2.70703125
2.3823486328125
1.603271484375
1.148876953125
0.6936767578124999
0.5647705078124999
0.07734374999999999
0.08217773437499999
0.0298095703125
0.02900390625
0.0298095703125
0.0298095703125
0.075732421875
0.18449707031249998
0.1893310546875
0.0281982421875
0.02578125
0.0322265625
0.0298095703125
0.02900390625
0.02900390625
0.0322265625
1.1335693359374999
1.7772949218749998
2.0407470703125
2.3307861328125
2.51044921875
2.6691650390625
2.6780273437499997
2.7062255859374997
2.771484375
2.7062255859374997
2.69091796875
2.5587890625
2.4234375
2.3839599609374997
3.0284912109374997
3.0309082031249996
3.0381591796875
3.0333251953125
3.0325195312499997
3.029296875
3.0325195312499997
2.437939453125
1.7442626953125
1.2447509765625
0.7742431640624999
0.46647949218749996
0.2425048828125
0.033032226562499996
0.0322265625
0.0281982421875
0.024169921875
0.11762695312499999
0.1377685546875
0.1780517578125
0.201416015625
0.0362548828125
0.033032226562499996
0.030615234374999998
0.0249755859375
0.0298095703125
0.0298095703125
0.0314208984375
1.0707275390625
1.571044921875
1.957763671875
2.2365234375
2.386376953125
2.47822265625
2.6200195312499996
2.62646484375
2.521728515625
2.5918212890624996
2.5636230468749996
2.6208251953125
2.544287109375
2.3823486328125
2.384765625
3.0357421875
3.034130859375
3.0309082031249996
3.0325195312499997
3.0317138671875
3.0357421875
2.5853759765624997
1.9625976562499998
1.3817138671875
0.942626953125
0.6018310546875
0.2811767578125
0.030615234374999998
0.0281982421875
0.02900390625
0.02900390625
0.030615234374999998
0.0298095703125
0.0362548828125
0.08942871093749999
0.1087646484375
0.033032226562499996
0.030615234374999998
0.024169921875
0.0322265625
0.030615234374999998
0.030615234374999998
0.7178466796874999
1.4671142578124998
2.0085205078125
2.222021484375
2.441162109375
2.537841796875
2.6159912109374996
2.63935546875
2.6756103515625
2.6675537109375
2.5950439453125
2.5885986328125
2.6707763671875
2.5845703125
2.4419677734375
3.0333251953125
3.029296875
3.0284912109374997
3.0317138671875
3.034130859375
3.0309082031249996
2.647412109375
2.1454833984375
1.690283203125
1.1947998046875
0.85400390625
0.42941894531249997
0.2376708984375
0.1740234375
0.049951171875
0.049145507812499996
0.02578125
0.041088867187499996
0.2022216796875
0.24895019531249998
0.33757324218749996
0.0281982421875
0.02900390625
0.030615234374999998
0.0298095703125
0.026586914062499998
0.02900390625
0.0346435546875
1.33740234375
1.7499023437499999
1.996435546875
2.1720703125
2.384765625
2.5853759765624997
2.7207275390624996
2.866552734375
2.874609375
2.7827636718749997
2.7666503906249997
2.7005859374999996
2.5072265624999996
2.4242431640624997
3.0325195312499997
3.0309082031249996
3.0333251953125
3.0317138671875
3.0333251953125
3.0309082031249996
2.776318359375
2.3936279296875
1.7595703125
1.1432373046875
0.8322509765624999
0.5357666015625
0.30454101562499997
0.12568359375
0.0346435546875
0.02578125
0.03544921875
0.09023437499999999
0.12568359375
0.18288574218749998
0.22316894531249998
0.0298095703125
0.0298095703125
0.0298095703125
0.0298095703125
0.02900390625
0.02578125
0.0314208984375
1.1609619140625
1.7080078125
2.1487060546875
2.3694580078125
2.53623046875
2.72958984375
2.7650390624999996
2.8174072265624996
2.792431640625
2.7408691406249996
2.642578125
2.631298828125
2.4911132812499996
2.367041015625
2.358984375
3.0333251953125
3.0325195312499997
3.0309082031249996
3.0325195312499997
3.0325195312499997
3.0333251953125
2.34287109375
1.8280517578125
1.3994384765624999
1.0610595703124999
0.6630615234374999
0.41008300781249996
0.18852539062499998
0.0298095703125
0.0298095703125
0.0346435546875
0.030615234374999998
0.0829833984375
0.16838378906249998
0.2135009765625
0.143408203125
0.02900390625
0.0298095703125
0.0249755859375
0.030615234374999998
0.026586914062499998
0.027392578124999997
0.7130126953125
1.5041748046874999
1.89169921875
2.0890869140625
2.2228271484374997
2.334814453125
2.4194091796875
2.5225341796875
2.5177001953125
2.60068359375
2.518505859375
2.5152832031249996
2.418603515625
2.29775390625
2.2034912109375
3.0325195312499997
3.0309082031249996
3.0333251953125
3.0301025390625
3.0317138671875
3.0325195312499997
2.6659423828124997
2.115673828125
1.6048828124999999
1.0675048828125
0.7541015624999999
0.526904296875
0.2876220703125
0.19658203124999998
0.1200439453125
0.0829833984375
0.10957031249999999
0.1506591796875
0.488232421875
0.31662597656249997
0.2666748046875
0.026586914062499998
0.033837890625
0.0298095703125
0.0298095703125
0.030615234374999998
0.0298095703125
0.5204589843749999
1.340625
1.7692382812499998
2.1390380859375
2.24619140625
2.4121582031249997
2.6441894531249996
2.69091796875
2.715087890625
2.6643310546874996
2.4693603515625
2.4298828125
2.34931640625
2.2663330078125
2.241357421875
3.0301025390625
3.0309082031249996
3.0333251953125
3.0333251953125
3.02607421875
3.0333251953125
2.7158935546875
2.3396484374999997
1.53076171875
1.1319580078125
0.8113037109375
0.4600341796875
0.24733886718749998
0.198193359375
0.0314208984375
0.0322265625
0.0314208984375
0.027392578124999997
0.049951171875
0.0990966796875
0.15146484375
0.0298095703125
0.026586914062499998
0.0281982421875
0.030615234374999998
0.024169921875
0.030615234374999998
0.02900390625
1.2221923828124999
1.9134521484375
2.135009765625
2.3984619140625
2.592626953125
2.7392578125
2.6401611328124996
2.7779296875
2.6885009765624996
2.68125
2.5072265624999996
2.4371337890625
2.3904052734375
2.42666015625
3.029296875
3.0301025390625
3.029296875
3.0357421875
3.0284912109374997
3.0333251953125
3.0325195312499997
2.5265625
1.735400390625
1.2060791015624999
0.7065673828125
0.40283203125
0.2054443359375
0.078955078125
0.0298095703125
0.0298095703125
0.02900390625
0.056396484375
0.0314208984375
0.1152099609375
0.1716064453125
0.0298095703125
0.02900390625
0.0322265625
0.033032226562499996
0.026586914062499998
0.030615234374999998
0.0298095703125
1.135986328125
1.5597656249999998
1.8441650390625
2.147900390625
2.3243408203125
2.434716796875
2.521728515625
2.59423828125
2.6699707031249997
2.599072265625
2.6756103515625
2.6699707031249997
2.6707763671875
2.5313964843749996
2.5330078124999997
3.027685546875
3.034130859375
3.0301025390625
3.034130859375
3.0349365234374996
3.0325195312499997
2.6143798828125
2.038330078125
1.30517578125
0.928125
0.5180419921875
0.15468749999999998
0.0314208984375
0.033837890625
0.0298095703125
0.0298095703125
0.0314208984375
0.1071533203125
0.21591796875
0.252978515625
0.310986328125
0.026586914062499998
0.0322265625
0.0298095703125
0.0346435546875
0.02578125
0.02578125
0.610693359375
1.36962890625
1.9907958984374998
2.2067138671874997
2.5813476562499997
2.6055175781249997
2.63935546875
2.6603027343749996
2.7134765625
2.7094482421875
2.5152832031249996
2.4927246093749997
2.4613037109375
2.4161865234374997
2.3960449218749997
3.0309082031249996
3.0301025390625
3.029296875
3.0309082031249996
3.034130859375
3.0284912109374997
2.8206298828125
2.193017578125
1.587158203125
1.197216796875
0.7114013671874999
0.44150390624999997
0.14421386718749998
0.0314208984375
0.033837890625
0.0281982421875
0.02900390625
0.1200439453125
0.1538818359375
0.2215576171875
0.2860107421875
0.02900390625
0.0298095703125
0.024169921875
0.030615234374999998
0.0298095703125
0.02900390625
0.7154296874999999
1.3672119140624999
1.716064453125
1.9553466796874999
2.2018798828125
2.3178955078125
2.4194091796875
2.5233398437499996
2.682861328125
2.663525390625
2.582958984375
2.487890625
2.489501953125
2.383154296875
2.3315917968749997
3.0389648437499996
3.0349365234374996
3.0309082031249996
3.0325195312499997
3.0325195312499997
3.0325195312499997
2.76826171875
2.3694580078125
1.7716552734375
1.152099609375
0.7839111328124999
0.4970947265625
0.149853515625
0.16838378906249998
0.040283203125
0.030615234374999998
0.0298095703125
0.050756835937499994
0.1039306640625
0.19013671875
0.26748046875
0.033032226562499996
0.030615234374999998
0.0362548828125
0.0314208984375
0.02578125
0.0314208984375
0.0298095703125
1.1577392578124999
1.7039794921875
2.199462890625
2.4065185546875
2.5555664062499996
2.65546875
2.67158203125
2.8447998046875
2.908447265625
2.81015625
2.69736328125
2.6780273437499997
2.5757080078124996
2.454052734375
2.6216308593749997
3.034130859375
3.0309082031249996
3.0317138671875
3.0397705078125
3.0349365234374996
3.0268798828124996
2.7102539062499997
1.8868652343749999
1.4389160156249998
1.0272216796875
0.5196533203125
0.2650634765625
0.0459228515625
0.0314208984375
0.0298095703125
0.0322265625
0.027392578124999997
0.0443115234375
0.14018554687499998
0.16435546874999998
0.0298095703125
0.030615234374999998
0.02900390625
0.0314208984375
0.030615234374999998
0.0346435546875
0.033837890625
1.147265625
1.6403320312499998
1.9384277343749998
2.215576171875
2.4451904296875
2.6377441406249997
2.7336181640625
2.7996826171875
2.8166015625
2.6860839843749997
2.6192138671875
2.6433837890625
2.5595947265624996
2.553955078125
2.4556640625
3.0317138671875
3.0301025390625
3.0333251953125
3.0349365234374996
3.0309082031249996
3.0325195312499997
2.650634765625
2.0004638671875
1.40185546875
0.8604492187499999
0.5091796875
0.2650634765625
0.0580078125
0.0298095703125
0.0281982421875
0.0314208984375
0.030615234374999998
0.0314208984375
0.053173828124999996
0.15468749999999998
0.24492187499999998
0.0298095703125
0.0298095703125
0.033032226562499996
0.030615234374999998
0.0298095703125
0.0298095703125
0.7637695312499999
1.4445556640625
1.8586669921874999
2.1664306640624997
2.3001708984375
2.357373046875
2.5660400390625
2.634521484375
2.6941406249999997
2.6925292968749996
2.7416748046875
2.6885009765624996
2.682861328125
2.55234375
2.3920166015624997
3.0309082031249996
3.0357421875
3.029296875
3.029296875
3.029296875
3.0365478515624997
2.889111328125
3.0325195312499997
3.0309082031249996
3.0349365234374996
3.0268798828124996
3.0284912109374997
3.0325195312499997
3.0317138671875
3.034130859375
3.034130859375
3.0317138671875
3.0309082031249996
3.0333251953125
3.0325195312499997
3.034130859375
3.0309082031249996
3.0349365234374996
3.0309082031249996
3.029296875
3.0309082031249996
3.0317138671875
3.0357421875
3.0317138671875
3.0317138671875
3.0333251953125
3.034130859375
3.0333251953125
3.0381591796875
3.0357421875
3.0317138671875
3.0301025390625
3.034130859375
3.0309082031249996
2.9898193359375
2.373486328125
1.8989501953124999
2.513671875
2.22041015625
1.409912109375
0.9216796875
0.42216796874999996
0.06606445312499999
0.030615234374999998
0.0298095703125
0.02900390625
0.030615234374999998
0.030615234374999998
0.02900390625
0.0298095703125
0.0910400390625
0.124072265625
0.2054443359375
0.420556640625
0.42619628906249996
0.48259277343749996
0.5212646484375
0.49387207031249997
0.130517578125
0.1554931640625
0.42861328125
0.4962890625
0.6429199218749999
0.77666015625
0.903955078125
1.2189697265625
1.1021484375
1.003857421875
0.9716308593749999
0.97001953125
0.9676025390624999
0.9740478515625
0.9933837890624999
1.036083984375
1.0127197265624999
1.0401123046875
1.0787841796875
1.0755615234375
1.0868408203125
1.12470703125
1.4437499999999999
1.2721435546875
1.26005859375
1.2705322265624999
1.1859374999999999
1.1512939453125
1.0385009765625
1.0336669921875
1.0642822265625
1.0763671875
1.171435546875
1.21494140625
1.2479736328125
1.24716796875
1.2963134765625
1.3148437499999999
1.3510986328124999
1.3180664062499998
1.3551269531249999
1.3591552734374999
1.4010498046875
1.135986328125
1.3100097656249998
1.3341796874999998
1.3583496093749998
1.4332763671875
1.4316650390624999
1.6395263671875
1.56943359375
1.5412353515625
1.5122314453124999
1.4703369140625
1.4800048828124999
1.5114257812499998
1.4888671875
1.474365234375
1.4703369140625
1.464697265625
1.480810546875
1.4759765624999999
1.4840332031249999
1.4872558593749998
1.7217041015624999
1.554931640625
1.506591796875
1.5283447265624999
1.5090087890625
1.4236083984374999
1.351904296875
1.3929931640625
1.3962158203125
1.442138671875
1.4735595703125
1.4751708984374998
1.4711425781249998
1.4719482421874999
1.4759765624999999
1.4840332031249999
1.5315673828124998
1.5315673828124998
1.5146484375
1.509814453125
1.5331787109375
1.3027587890624999
1.4373046875
1.4888671875
1.5009521484375
1.5082031249999999
1.5492919921875
1.6540283203125
1.7200927734375
1.6048828124999999
1.593603515625
1.56943359375
1.561376953125
1.545263671875
1.5331787109375
1.5476806640624998
1.59521484375
1.5541259765625
1.5517089843749998
1.5251220703125
1.533984375
1.51787109375
1.732177734375
1.6403320312499998
1.5605712890624999
1.558154296875
1.5299560546875
1.4880615234374999
1.4477783203124999
1.3865478515624998
1.416357421875
1.4574462890625
1.4888671875
1.482421875
1.4912841796874998
1.4800048828124999
1.5009521484375
1.5017578125
1.525927734375
1.4953124999999998
1.5267333984375
1.5315673828124998
1.529150390625
1.3333740234375
1.4308593749999998
1.47275390625
1.50498046875
1.5017578125
1.5525146484374999
1.6588623046875
1.6862548828125
1.6072998046875
1.5791015625
1.5492919921875
1.5678222656249998
1.5509033203125
1.5186767578125
1.5364013671874999
1.5460693359375
1.53076171875
1.538818359375
1.542041015625
1.5355957031249998
1.5444580078124999
1.6209960937499999
1.6105224609375
1.5509033203125
1.5541259765625
1.5509033203125
1.5090087890625
1.47275390625
1.4445556640625
1.4501953125
1.4574462890625
1.50498046875
1.4880615234374999
1.4896728515625
1.5017578125
1.5186767578125
1.525927734375
1.5436523437499998
1.51787109375
1.5323730468749999
1.5170654296875
1.5138427734375
1.3591552734374999
1.429248046875
1.5041748046874999
1.5154541015624998
1.5267333984375
1.5557373046874998
1.5895751953125
1.683837890625
1.6081054687499998
1.5726562499999999
1.5573486328125
1.561376953125
1.5565429687499999
1.558154296875
1.561376953125
1.554931640625
1.5267333984375
1.5251220703125
1.5355957031249998
1.5186767578125
1.52109375
1.6105224609375
1.674169921875
1.56298828125
1.5525146484374999
1.5323730468749999
1.5090087890625
1.4671142578124998
1.4356933593749999
1.4437499999999999
1.4711425781249998
1.4888671875
1.4888671875
1.4767822265625
1.493701171875
1.5138427734375
1.506591796875
1.53076171875
1.5315673828124998
1.5589599609375
1.577490234375
1.554931640625
1.4977294921875
1.40830078125
1.5460693359375
1.5323730468749999
1.53076171875
1.5525146484374999
1.5944091796875
1.6693359374999999
1.6322753906249998
1.593603515625
1.5509033203125
1.56298828125
1.56943359375
1.5404296874999999
1.5404296874999999
1.55009765625
1.5460693359375
1.5355957031249998
1.5460693359375
1.5299560546875
1.5146484375
1.53720703125
1.6685302734374998
1.56298828125
1.546875
1.5396240234374998
1.5106201171875
1.4880615234374999
1.4671142578124998
1.4526123046875
1.4719482421874999
1.4751708984374998
1.5033691406249998
1.5001464843749999
1.5017578125
1.5138427734375
1.5170654296875
1.533984375
1.5315673828124998
1.5202880859374999
1.5202880859374999
1.5194824218749998
1.50498046875
1.3986328124999998
1.5025634765625
1.5146484375
1.5235107421874998
1.5396240234374998
1.5726562499999999
1.6669189453125
1.64677734375
1.5968261718749999
1.5718505859374998
1.5589599609375
1.5662109375
1.5476806640624998
1.561376953125
1.5517089843749998
1.5355957031249998
1.545263671875
1.5323730468749999
1.5331787109375
1.513037109375
1.538818359375
1.6814208984374999
1.5589599609375
1.5525146484374999
1.5492919921875
1.5283447265624999
1.4928955078125
1.464697265625
1.4501953125
1.46953125
1.482421875
1.50498046875
1.5202880859374999
1.5106201171875
1.506591796875
1.5138427734375
1.5106201171875
1.51787109375
1.5355957031249998
1.529150390625
1.529150390625
1.5323730468749999
1.377685546875
1.4816162109375
1.5009521484375
1.513037109375
1.542041015625
1.5758789062499998
1.6588623046875
1.62744140625
1.5984375
1.5831298828125
1.5678222656249998
1.5557373046874998
1.5484863281249999
1.5605712890624999
1.5492919921875
1.5476806640624998
1.5243164062499999
1.5436523437499998
1.533984375
1.5404296874999999
1.5428466796875
1.6588623046875
1.6008544921874999
1.5396240234374998
1.5484863281249999
1.5323730468749999
1.50498046875
1.4598632812499999
1.4638916015624999
1.46630859375
1.493701171875
1.4840332031249999
1.5001464843749999
1.5017578125
1.5146484375
1.5170654296875
1.5138427734375
1.525927734375
1.522705078125
1.529150390625
1.5331787109375
1.5315673828124998
1.38896484375
1.4840332031249999
1.5073974609374998
1.52109375
1.5364013671874999
1.5621826171875
1.5911865234375
1.6854492187499999
1.609716796875
1.5815185546875
1.5718505859374998
1.5517089843749998
1.5541259765625
1.5533203125
1.5662109375
1.533984375
1.5315673828124998
1.5404296874999999
1.5380126953125
1.5436523437499998
1.53720703125
1.6346923828125
1.6234130859375
1.5517089843749998
1.5517089843749998
1.5404296874999999
1.5194824218749998
1.4840332031249999
1.43408203125
1.456640625
1.4751708984374998
1.4912841796874998
1.4953124999999998
1.4961181640624999
1.4993408203124998
1.522705078125
1.51787109375
1.5202880859374999
1.525927734375
1.53720703125
1.5412353515625
1.5275390624999998
1.4034667968749999
1.429248046875
1.5138427734375
1.5146484375
1.5194824218749998
1.5509033203125
1.603271484375
1.6854492187499999
1.603271484375
1.574267578125
1.5565429687499999
1.5565429687499999
1.5758789062499998
1.5573486328125
1.5533203125
1.55009765625
1.5347900390625
1.5396240234374998
1.5315673828124998
1.525927734375
1.5267333984375
1.5517089843749998
1.6556396484375
1.56298828125
1.5484863281249999
1.5460693359375
1.5106201171875
1.5025634765625
1.4542236328125
1.4469726562499998
1.4711425781249998
1.4920898437499999
1.5001464843749999
1.4953124999999998
1.509814453125
1.5194824218749998
1.5073974609374998
1.5331787109375
1.52109375
1.5460693359375
1.5243164062499999
1.538818359375
1.5194824218749998
1.4139404296875
1.496923828125
1.5186767578125
1.5283447265624999
1.5517089843749998
1.5605712890624999
1.6717529296875
1.6177734375
1.5911865234375
1.5734619140625
1.558154296875
1.5541259765625
1.5726562499999999
1.5444580078124999
1.5484863281249999
1.5444580078124999
1.5243164062499999
1.5364013671874999
1.529150390625
1.5315673828124998
1.5315673828124998
1.6781982421875
1.56943359375
1.5323730468749999
1.546875
1.5283447265624999
1.5057861328125
1.4679199218749999
1.4510009765624998
1.4638916015624999
1.4783935546875
1.4953124999999998
1.5235107421874998
1.5009521484375
1.5202880859374999
1.5138427734375
1.5146484375
1.525927734375
1.5251220703125
1.5347900390625
1.5275390624999998
1.5331787109375
1.3857421875
1.509814453125
1.5202880859374999
1.5138427734375
1.538818359375
1.5654052734375
1.6483886718749998
1.6475830078125
1.577490234375
1.5807128906249999
1.56943359375
1.561376953125
1.5678222656249998
1.5557373046874998
1.5364013671874999
1.5331787109375
1.53720703125
1.5476806640624998
1.5347900390625
1.525927734375
1.5396240234374998
1.6604736328124998
1.585546875
1.56298828125
1.5557373046874998
1.5323730468749999
1.5033691406249998
1.4751708984374998
1.44052734375
1.46630859375
1.4735595703125
1.4920898437499999
1.5009521484375
1.5041748046874999
1.5154541015624998
1.506591796875
1.509814453125
1.5412353515625
1.5541259765625
1.5218994140625
1.5331787109375
1.5315673828124998
1.3704345703124998
1.4751708984374998
1.5162597656249999
1.5138427734375
1.53720703125
1.5670166015625
1.6540283203125
1.6508056640625
1.6161621093749998
1.56298828125
1.5525146484374999
1.5444580078124999
1.56943359375
1.5484863281249999
1.5460693359375
1.5355957031249998
1.5267333984375
1.5355957031249998
1.5436523437499998
1.546875
1.5380126953125
1.625830078125
1.58232421875
1.5460693359375
1.5517089843749998
1.538818359375
1.5114257812499998
1.474365234375
1.4413330078125
1.4510009765624998
1.4872558593749998
1.4791992187499998
1.4953124999999998
1.493701171875
1.5355957031249998
1.5235107421874998
1.5154541015624998
1.5299560546875
1.5251220703125
1.5202880859374999
1.5243164062499999
1.53720703125
1.3865478515624998
1.4864501953125
1.5090087890625
1.53720703125
1.5355957031249998
1.533984375
1.5791015625
1.6645019531249998
1.6024658203125
1.5815185546875
1.5750732421875
1.5678222656249998
1.5541259765625
1.5670166015625
1.5364013671874999
1.5154541015624998
1.5243164062499999
1.5347900390625
1.542041015625
1.5251220703125
1.5299560546875
1.6201904296874998
1.6322753906249998
1.554931640625
1.542041015625
1.545263671875
1.5170654296875
1.4872558593749998
1.4622802734375
1.4389160156249998
1.4848388671875
1.4880615234374999
1.496923828125
1.5082031249999999
1.525927734375
1.506591796875
1.5106201171875
1.533984375
1.5235107421874998
1.5251220703125
1.5331787109375
1.5315673828124998
1.4526123046875
1.409912109375
1.52109375
1.5162597656249999
1.51787109375
1.5718505859374998
1.5815185546875
1.690283203125
1.6048828124999999
1.5839355468749998
1.5662109375
1.5678222656249998
1.5492919921875
1.558154296875
1.5476806640624998
1.5460693359375
1.5364013671874999
1.5331787109375
1.5251220703125
1.5331787109375
1.53076171875
1.53720703125
1.6322753906249998
1.5509033203125
1.5484863281249999
1.542041015625
1.522705078125
1.5041748046874999
1.4445556640625
1.4622802734375
1.4767822265625
1.493701171875
1.4953124999999998
1.4945068359375
1.50498046875
1.525927734375
1.52109375
1.5162597656249999
1.533984375
1.5323730468749999
1.5331787109375
1.5315673828124998
1.4655029296875
1.4171630859375
1.5162597656249999
1.5251220703125
1.5154541015624998
1.525927734375
1.5758789062499998
1.6693359374999999
1.6161621093749998
1.587158203125
1.5654052734375
1.5702392578125
1.56298828125
1.5517089843749998
1.5444580078124999
1.5557373046874998
1.5283447265624999
1.5525146484374999
1.533984375
1.5243164062499999
1.5299560546875
1.5404296874999999
1.6773925781249999
1.5557373046874998
1.5436523437499998
1.5299560546875
1.522705078125
1.5017578125
1.4469726562499998
1.4574462890625
1.4598632812499999
1.4832275390624998
1.513037109375
1.5033691406249998
1.496923828125
1.5073974609374998
1.51787109375
1.52109375
1.5380126953125
1.5323730468749999
1.513037109375
1.5235107421874998
1.545263671875
1.405078125
1.5001464843749999
1.5218994140625
1.522705078125
1.5396240234374998
1.5589599609375
1.6121337890624998
1.641943359375
1.60166015625
1.5686279296874999
1.5533203125
1.5364013671874999
1.5678222656249998
1.5557373046874998
1.5484863281249999
1.542041015625
1.53076171875
1.5347900390625
1.5347900390625
1.5299560546875
1.5404296874999999
1.6685302734374998
1.5847412109374999
1.5605712890624999
1.5517089843749998
1.5412353515625
1.5073974609374998
1.456640625
1.4590576171874998
1.4735595703125
1.4767822265625
1.4928955078125
1.4961181640624999
1.5106201171875
1.5186767578125
1.525927734375
1.5186767578125
1.5476806640624998
1.5347900390625
1.53720703125
1.5315673828124998
1.5323730468749999
1.3784912109374998
1.4993408203124998
1.5162597656249999
1.51787109375
1.5331787109375
1.558154296875
1.6234130859375
1.651611328125
1.5992431640625
1.58232421875
1.5662109375
1.542041015625
1.546875
1.5573486328125
1.55009765625
1.5412353515625
1.545263671875
1.5315673828124998
1.5275390624999998
1.53076171875
1.5380126953125
1.6653076171874999
1.5919921874999998
1.5509033203125
1.5573486328125
1.5323730468749999
1.5041748046874999
1.4880615234374999
1.4606689453125
1.4590576171874998
1.48564453125
1.4961181640624999
1.4977294921875
1.509814453125
1.5146484375
1.52109375
1.5057861328125
1.5283447265624999
1.5299560546875
1.52109375
1.5162597656249999
1.538818359375
1.3857421875
1.4526123046875
1.5138427734375
1.5267333984375
1.5218994140625
1.5404296874999999
1.6290527343749999
1.6556396484375
1.5976318359375
1.5750732421875
1.577490234375
1.5807128906249999
1.5605712890624999
1.5444580078124999
1.5484863281249999
1.5444580078124999
1.5428466796875
1.5154541015624998
1.5364013671874999
1.53720703125
1.5404296874999999
1.587158203125
1.654833984375
1.5404296874999999
1.55009765625
1.545263671875
1.5082031249999999
1.4816162109375
1.45341796875
1.4606689453125
1.4800048828124999
1.490478515625
1.509814453125
1.5025634765625
1.5122314453124999
1.5114257812499998
1.5154541015624998
1.5283447265624999
1.5194824218749998
1.5380126953125
1.538818359375
1.5251220703125
1.474365234375
1.445361328125
1.5146484375
1.5041748046874999
1.525927734375
1.542041015625
1.5670166015625
1.6798095703125
1.6266357421875
1.58232421875
1.5670166015625
1.56298828125
1.55009765625
1.558154296875
1.5509033203125
1.5355957031249998
1.5436523437499998
1.5492919921875
1.525927734375
1.5444580078124999
1.5267333984375
1.558154296875
1.6612792968749999
1.5637939453124998
1.5404296874999999
1.5492919921875
1.5251220703125
1.5009521484375
1.4606689453125
1.45341796875
1.4518066406249999
1.4888671875
1.5001464843749999
1.5017578125
1.5025634765625
1.5202880859374999
1.53076171875
1.51787109375
1.522705078125
1.5243164062499999
1.5460693359375
1.5299560546875
1.4864501953125
1.3921875
1.5162597656249999
1.5202880859374999
1.5162597656249999
1.5484863281249999
1.5654052734375
1.6806152343749998
1.6322753906249998
1.5799072265624998
1.5799072265624998
1.5605712890624999
1.5476806640624998
1.55009765625
1.55009765625
1.5347900390625
1.5476806640624998
1.5436523437499998
1.5315673828124998
1.5355957031249998
1.5323730468749999
1.5396240234374998
1.6612792968749999
1.5645996093749999
1.561376953125
1.5484863281249999
1.522705078125
1.5073974609374998
1.4477783203124999
1.4510009765624998
1.46630859375
1.4832275390624998
1.4945068359375
1.5082031249999999
1.4977294921875
1.5194824218749998
1.513037109375
1.5194824218749998
1.5243164062499999
1.5267333984375
1.5355957031249998
1.5380126953125
1.50498046875
1.3817138671875
1.4961181640624999
1.5170654296875
1.4993408203124998
1.529150390625
1.571044921875
1.6451660156249999
1.635498046875
1.5927978515624999
1.5557373046874998
1.5605712890624999
1.5879638671874998
1.56298828125
1.53720703125
1.5428466796875
1.5380126953125
1.5323730468749999
1.5492919921875
1.5243164062499999
1.525927734375
1.5315673828124998
1.670947265625
1.5919921874999998
1.5525146484374999
1.5404296874999999
1.538818359375
1.5073974609374998
1.4469726562499998
1.464697265625
1.4679199218749999
1.480810546875
1.4993408203124998
1.5082031249999999
1.5025634765625
1.509814453125
1.5186767578125
1.5283447265624999
1.5138427734375
1.5194824218749998
1.5275390624999998
1.5315673828124998
1.53720703125
1.3849365234375
1.490478515625
1.5106201171875
1.496923828125
1.546875
1.5621826171875
1.5944091796875
1.6508056640625
1.5927978515624999
1.574267578125
1.5678222656249998
1.5557373046874998
1.5597656249999998
1.5509033203125
1.5509033203125
1.554931640625
1.5380126953125
1.5509033203125
1.5323730468749999
1.5444580078124999
1.5267333984375
1.6540283203125
1.6040771484374998
1.5597656249999998
1.5557373046874998
1.5476806640624998
1.5041748046874999
1.456640625
1.4526123046875
1.461474609375
1.47275390625
1.480810546875
1.4977294921875
1.5106201171875
1.5138427734375
1.5114257812499998
1.5033691406249998
1.5476806640624998
1.5315673828124998
1.533984375
1.5380126953125
1.5194824218749998
1.405078125
1.4445556640625
1.5146484375
1.5194824218749998
1.538818359375
1.5323730468749999
1.6089111328124999
1.6717529296875
1.5968261718749999
1.56943359375
1.5782958984375
1.574267578125
1.5597656249999998
1.5484863281249999
1.5396240234374998
1.5436523437499998
1.5355957031249998
1.5347900390625
1.5436523437499998
1.5323730468749999
1.5267333984375
1.5678222656249998
1.6177734375
1.5509033203125
1.5460693359375
1.5541259765625
1.5041748046874999
1.490478515625
1.4558349609374999
1.4558349609374999
1.4719482421874999
1.4961181640624999
1.4977294921875
1.5001464843749999
1.5162597656249999
1.506591796875
1.51787109375
1.5218994140625
1.5235107421874998
1.5331787109375
1.533984375
1.5355957031249998
1.4147460937499998
1.4501953125
1.513037109375
1.5114257812499998
1.5114257812499998
1.5517089843749998
1.5911865234375
1.65966796875
1.6121337890624998
1.5879638671874998
1.5565429687499999
1.554931640625
1.5404296874999999
1.5573486328125
1.5412353515625
1.5597656249999998
1.5428466796875
1.529150390625
1.52109375
1.5428466796875
1.525927734375
1.5460693359375
1.6669189453125
1.5589599609375
1.5476806640624998
1.554931640625
1.5170654296875
1.4848388671875
1.4606689453125
1.4542236328125
1.4759765624999999
1.4800048828124999
1.5057861328125
1.493701171875
1.5146484375
1.51787109375
1.5186767578125
1.538818359375
1.5275390624999998
1.5364013671874999
1.5412353515625
1.5444580078124999
1.5154541015624998
1.4276367187499999
1.5033691406249998
1.5025634765625
1.5162597656249999
1.546875
1.5589599609375
1.6564453124999998
1.6322753906249998
1.5718505859374998
1.5565429687499999
1.5654052734375
1.5678222656249998
1.5517089843749998
1.5380126953125
1.5460693359375
1.5484863281249999
1.529150390625
1.5331787109375
1.538818359375
1.5347900390625
1.5299560546875
1.6669189453125
1.5791015625
1.5541259765625
1.5444580078124999
1.533984375
1.5082031249999999
1.4518066406249999
1.4510009765624998
1.4719482421874999
1.4953124999999998
1.4832275390624998
1.4993408203124998
1.5146484375
1.5235107421874998
1.5299560546875
1.51787109375
1.5355957031249998
1.5404296874999999
1.5275390624999998
1.529150390625
1.522705078125
1.380908203125
1.522705078125
1.5194824218749998
1.513037109375
1.5283447265624999
1.5525146484374999
1.6556396484375
1.6298583984375
1.5919921874999998
1.5678222656249998
1.5565429687499999
1.5541259765625
1.554931640625
1.5476806640624998
1.5347900390625
1.5557373046874998
1.5517089843749998
1.5509033203125
1.5275390624999998
1.538818359375
1.5267333984375
1.6636962890625
1.5863525390625
1.5597656249999998
1.5517089843749998
1.53076171875
1.5033691406249998
1.464697265625
1.456640625
1.4679199218749999
1.4759765624999999
1.4920898437499999
1.51787109375
1.513037109375
1.506591796875
1.5170654296875
1.5218994140625
1.5194824218749998
1.533984375
1.5331787109375
1.5202880859374999
1.5380126953125
1.3913818359374999
1.4800048828124999
1.5243164062499999
1.5194824218749998
1.5355957031249998
1.5605712890624999
1.6201904296874998
1.641943359375
1.606494140625
1.5678222656249998
1.5565429687499999
1.5605712890624999
1.5517089843749998
1.561376953125
1.5670166015625
1.546875
1.5492919921875
1.5323730468749999
1.5444580078124999
1.5331787109375
1.5331787109375
1.6290527343749999
1.6282470703124998
1.55009765625
1.5460693359375
1.542041015625
1.5122314453124999
1.464697265625
1.464697265625
1.4630859374999998
1.47275390625
1.490478515625
1.4912841796874998
1.4977294921875
1.5106201171875
1.5331787109375
1.509814453125
1.5202880859374999
1.5428466796875
1.5347900390625
1.53720703125
1.5364013671874999
1.432470703125
1.480810546875
1.5082031249999999
1.5017578125
1.5404296874999999
1.561376953125
1.5831298828125
1.651611328125
1.5944091796875
1.5807128906249999
1.571044921875
1.558154296875
1.5444580078124999
1.5597656249999998
1.545263671875
1.546875
1.5412353515625
1.5355957031249998
1.5364013671874999
1.5396240234374998
1.5347900390625
1.6024658203125
1.6242187499999998
1.5525146484374999
1.5428466796875
1.5557373046874998
1.5267333984375
1.477587890625
1.46630859375
1.4469726562499998
1.4735595703125
1.4880615234374999
1.493701171875
1.5025634765625
1.5162597656249999
1.525927734375
1.5218994140625
1.53076171875
1.5283447265624999
1.5315673828124998
1.5202880859374999
1.5436523437499998
1.4300537109375
1.4042724609375
1.5218994140625
1.5235107421874998
1.5275390624999998
1.56298828125
1.577490234375
1.6830322265625
1.6040771484374998
1.5831298828125
1.5645996093749999
1.5597656249999998
1.56298828125
1.5492919921875
1.5476806640624998
1.55009765625
1.5509033203125
1.5509033203125
1.5355957031249998
1.5202880859374999
1.5283447265624999
1.53720703125
1.6371093749999999
1.5605712890624999
1.5492919921875
1.5412353515625
1.529150390625
1.5090087890625
1.4590576171874998
1.4598632812499999
1.4679199218749999
1.4800048828124999
1.4832275390624998
1.496923828125
1.5001464843749999
1.5162597656249999
1.5323730468749999
1.5243164062499999
1.525927734375
1.5235107421874998
1.5331787109375
1.5323730468749999
1.4816162109375
1.409912109375
1.509814453125
1.5243164062499999
1.5267333984375
1.5444580078124999
1.5605712890624999
1.6540283203125
1.6234130859375
1.5807128906249999
1.577490234375
1.5637939453124998
1.5726562499999999
1.5476806640624998
1.55009765625
1.53720703125
1.5404296874999999
1.53720703125
1.5436523437499998
1.5355957031249998
1.5404296874999999
1.5154541015624998
1.6717529296875
1.546875
1.5557373046874998
1.5557373046874998
1.5355957031249998
1.5057861328125
1.4445556640625
1.4679199218749999
1.4671142578124998
1.5025634765625
1.4800048828124999
1.5073974609374998
1.5041748046874999
1.52109375
1.5243164062499999
1.5267333984375
1.5364013671874999
1.5323730468749999
1.522705078125
1.5275390624999998
1.5218994140625
1.4074951171874999
1.5090087890625
1.522705078125
1.5218994140625
1.5218994140625
1.56298828125
1.65
1.6298583984375
1.5911865234375
1.5766845703124999
1.561376953125
1.5589599609375
1.558154296875
1.5573486328125
1.5533203125
1.5380126953125
1.5436523437499998
1.5267333984375
1.5323730468749999
1.542041015625
1.5355957031249998
1.674169921875
1.5984375
1.5460693359375
1.5476806640624998
1.5146484375
1.5057861328125
1.4550292968749998
1.4679199218749999
1.4638916015624999
1.4735595703125
1.5017578125
1.50498046875
1.5033691406249998
1.51787109375
1.5194824218749998
1.5235107421874998
1.5218994140625
1.5412353515625
1.525927734375
1.525927734375
1.53076171875
1.3792968749999999
1.464697265625
1.522705078125
1.5009521484375
1.5251220703125
1.5702392578125
1.619384765625
1.6653076171874999
1.5927978515624999
1.5718505859374998
1.5557373046874998
1.5605712890624999
1.5726562499999999
1.5484863281249999
1.5645996093749999
1.55009765625
1.5355957031249998
1.5323730468749999
1.5275390624999998
1.533984375
1.53720703125
1.606494140625
1.6072998046875
1.5621826171875
1.561376953125
1.5476806640624998
1.5057861328125
1.4679199218749999
1.4590576171874998
1.456640625
1.4671142578124998
1.4880615234374999
1.4920898437499999
1.4896728515625
1.5073974609374998
1.5275390624999998
1.5194824218749998
1.525927734375
1.5218994140625
1.5315673828124998
1.5243164062499999
1.5235107421874998
1.40185546875
1.4630859374999998
1.5243164062499999
1.5106201171875
1.522705078125
1.5573486328125
1.5927978515624999
1.6636962890625
1.60166015625
1.56943359375
1.571044921875
1.558154296875
1.5444580078124999
1.56298828125
1.5444580078124999
1.5597656249999998
1.5323730468749999
1.5380126953125
1.5428466796875
1.5492919921875
1.5380126953125
1.5766845703124999
1.65
1.5444580078124999
1.5573486328125
1.5605712890624999
1.5194824218749998
1.474365234375
1.448583984375
1.4630859374999998
1.4767822265625
1.50498046875
1.5090087890625
1.5082031249999999
1.52109375
1.5202880859374999
1.506591796875
1.5299560546875
1.538818359375
1.52109375
1.5364013671874999
1.5404296874999999
1.4606689453125
1.4574462890625
1.533984375
1.513037109375
1.5283447265624999
1.55009765625
1.5645996093749999
1.6822265625
1.6000488281249998
1.5791015625
1.5734619140625
1.5533203125
1.5637939453124998
1.5509033203125
1.5476806640624998
1.5428466796875
1.5525146484374999
1.5347900390625
1.5347900390625
1.53720703125
1.53076171875
1.5525146484374999
1.641943359375
1.5637939453124998
1.5533203125
1.5428466796875
1.5218994140625
1.522705078125
1.4574462890625
1.4598632812499999
1.4574462890625
1.48564453125
1.49853515625
1.49853515625
1.5315673828124998
1.5218994140625
1.5202880859374999
1.5202880859374999
1.5267333984375
1.529150390625
1.52109375
1.5323730468749999
1.513037109375
1.4010498046875
1.5082031249999999
1.5114257812499998
1.5186767578125
1.545263671875
1.5589599609375
1.658056640625
1.6306640625
1.5984375
1.5782958984375
1.5678222656249998
1.5533203125
1.5557373046874998
1.546875
1.5315673828124998
1.5476806640624998
1.522705078125
1.525927734375
1.545263671875
1.545263671875
1.5315673828124998
1.6604736328124998
1.5782958984375
1.5509033203125
1.5509033203125
1.5194824218749998
1.4993408203124998
1.45341796875
1.461474609375
1.4574462890625
1.4800048828124999
1.496923828125
1.4961181640624999
1.5090087890625
1.522705078125
1.5218994140625
1.5299560546875
1.5194824218749998
1.5283447265624999
1.5299560546875
1.5299560546875
1.5138427734375
1.384130859375
1.4953124999999998
1.5057861328125
1.5251220703125
1.5533203125
1.5525146484374999
1.6403320312499998
1.6451660156249999
1.5927978515624999
1.56943359375
1.5605712890624999
1.5573486328125
1.5678222656249998
1.546875
1.5460693359375
1.545263671875
1.5323730468749999
1.533984375
1.5509033203125
1.5283447265624999
1.5243164062499999
1.6604736328124998
1.59521484375
1.5460693359375
1.5412353515625
1.5404296874999999
1.5146484375
1.4630859374999998
1.461474609375
1.4630859374999998
1.4848388671875
1.4928955078125
1.50498046875
1.5146484375
1.5138427734375
1.5162597656249999
1.53076171875
1.529150390625
1.52109375
1.5404296874999999
1.5355957031249998
1.51787109375
1.397021484375
1.4928955078125
1.5251220703125
1.5025634765625
1.5444580078124999
1.5637939453124998
1.611328125
1.6459716796875
1.5879638671874998
1.585546875
1.56298828125
1.55009765625
1.5517089843749998
1.545263671875
1.5525146484374999
1.5436523437499998
1.5364013671874999
1.5444580078124999
1.5347900390625
1.533984375
1.525927734375
1.6322753906249998
1.606494140625
1.5517089843749998
1.5686279296874999
1.5355957031249998
1.5194824218749998
1.4791992187499998
1.448583984375
1.4671142578124998
1.4751708984374998
1.490478515625
1.4993408203124998
1.5146484375
1.5154541015624998
1.506591796875
1.529150390625
1.525927734375
1.5170654296875
1.5396240234374998
1.5364013671874999
1.5315673828124998
1.4147460937499998
1.4364990234375
1.5041748046874999
1.5194824218749998
1.5299560546875
1.554931640625
1.5750732421875
1.674169921875
1.67900390625
1.5734619140625
1.5702392578125
1.5645996093749999
1.5573486328125
1.546875
1.5573486328125
1.5533203125
1.5436523437499998
1.5364013671874999
1.525927734375
1.529150390625
1.5347900390625
1.5476806640624998
1.6161621093749998
1.538818359375
1.571044921875
1.546875
1.5041748046874999
1.48564453125
1.464697265625
1.4687255859375
1.474365234375
1.4896728515625
1.50498046875
1.50498046875
1.506591796875
1.51787109375
1.5218994140625
1.5194824218749998
1.5275390624999998
1.53076171875
1.5404296874999999
1.538818359375
1.44052734375
1.4268310546874998
1.525927734375
1.5186767578125
1.52109375
1.5428466796875
1.5662109375
1.6620849609375
1.6081054687499998
1.5815185546875
1.5766845703124999
1.5621826171875
1.5573486328125
1.5412353515625
1.5565429687499999
1.538818359375
1.5404296874999999
1.53076171875
1.55009765625
1.5315673828124998
1.5146484375
1.538818359375
1.6717529296875
1.5654052734375
1.5517089843749998
1.5444580078124999
1.5154541015624998
1.50498046875
1.4469726562499998
1.461474609375
1.4671142578124998
1.493701171875
1.496923828125
1.4816162109375
1.509814453125
1.5218994140625
1.5251220703125
1.513037109375
1.5251220703125
1.53076171875
1.538818359375
1.5251220703125
1.5202880859374999
1.4074951171874999
1.525927734375
1.5235107421874998
1.5057861328125
1.5476806640624998
1.5509033203125
1.6653076171874999
1.6242187499999998
1.590380859375
1.5686279296874999
1.5597656249999998
1.5670166015625
1.5758789062499998
1.5476806640624998
1.545263671875
1.525927734375
1.5380126953125
1.5412353515625
1.5364013671874999
1.5251220703125
1.53076171875
1.674169921875
1.577490234375
1.558154296875
1.5565429687499999
1.53720703125
1.5090087890625
1.46953125
1.4526123046875
1.456640625
1.4816162109375
1.4920898437499999
1.493701171875
1.5009521484375
1.529150390625
1.5146484375
1.533984375
1.5251220703125
1.53076171875
1.51787109375
1.5323730468749999
1.5404296874999999
1.40185546875
1.48564453125
1.513037109375
1.5202880859374999
1.529150390625
1.5509033203125
1.6161621093749998
1.6427490234375
1.5879638671874998
1.5750732421875
1.56298828125
1.558154296875
1.5557373046874998
1.554931640625
1.545263671875
1.5380126953125
1.5364013671874999
1.5404296874999999
1.5460693359375
1.545263671875
1.5323730468749999
1.6475830078125
1.585546875
1.5492919921875
1.5460693359375
1.5186767578125
1.5090087890625
1.4671142578124998
1.4630859374999998
1.4606689453125
1.4783935546875
1.5090087890625
1.506591796875
1.4816162109375
1.5009521484375
1.509814453125
1.5194824218749998
1.533984375
1.5283447265624999
1.5396240234374998
1.522705078125
1.545263671875
1.3849365234375
1.477587890625
1.51787109375
1.5082031249999999
1.5194824218749998
1.5654052734375
1.6443603515624998
1.654833984375
1.5960205078124998
1.5895751953125
1.577490234375
1.5460693359375
1.554931640625
1.5565429687499999
1.538818359375
1.5347900390625
1.5404296874999999
1.53720703125
1.5492919921875
1.5428466796875
1.538818359375
1.6072998046875
1.6081054687499998
1.5476806640624998
1.5436523437499998
1.542041015625
1.506591796875
1.480810546875
1.4671142578124998
1.4735595703125
1.4735595703125
1.4896728515625
1.5082031249999999
1.50498046875
1.5057861328125
1.5138427734375
1.5146484375
1.5396240234374998
1.5283447265624999
1.5218994140625
1.53720703125
1.546875
1.442138671875
1.4526123046875
1.5154541015624998
1.5082031249999999
1.546875
1.5533203125
1.5621826171875
1.6822265625
1.60166015625
1.5766845703124999
1.5678222656249998
1.571044921875
1.5517089843749998
1.5492919921875
1.5492919921875
1.5476806640624998
1.5347900390625
1.546875
1.529150390625
1.5364013671874999
1.533984375
1.5839355468749998
1.6403320312499998
1.5476806640624998
1.5557373046874998
1.5404296874999999
1.5073974609374998
1.5025634765625
1.477587890625
1.4630859374999998
1.4630859374999998
1.4945068359375
1.490478515625
1.5033691406249998
1.5114257812499998
1.522705078125
1.5315673828124998
1.51787109375
1.53076171875
1.529150390625
1.53076171875
1.533984375
1.4622802734375
1.4123291015625
1.5283447265624999
1.5001464843749999
1.5267333984375
1.542041015625
1.5654052734375
1.654833984375
1.6298583984375
1.5887695312499999
1.5670166015625
1.5565429687499999
1.56943359375
1.5605712890624999
1.554931640625
1.538818359375
1.533984375
1.5436523437499998
1.545263671875
1.5347900390625
1.52109375
1.5275390624999998
1.6572509765624999
1.5654052734375
1.5484863281249999
1.5380126953125
1.5267333984375
1.5001464843749999
1.47275390625
1.4606689453125
1.461474609375
1.4977294921875
1.50498046875
1.5122314453124999
1.4961181640624999
1.5041748046874999
1.5251220703125
1.5138427734375
1.5412353515625
1.522705078125
1.5412353515625
1.52109375
1.4735595703125
1.4074951171874999
1.49853515625
1.5146484375
1.525927734375
1.554931640625
1.5565429687499999
1.66611328125
1.6363037109374998
1.5847412109374999
1.574267578125
1.558154296875
1.5589599609375
1.5686279296874999
1.5533203125
1.546875
1.5484863281249999
1.542041015625
1.5436523437499998
1.5444580078124999
1.5404296874999999
1.53076171875
1.6612792968749999
1.5686279296874999
1.5492919921875
1.5412353515625
1.5364013671874999
1.5073974609374998
1.4590576171874998
1.4590576171874998
1.46953125
1.4791992187499998
1.4993408203124998
1.496923828125
1.4896728515625
1.5194824218749998
1.525927734375
1.5235107421874998
1.5331787109375
1.5267333984375
1.5323730468749999
1.529150390625
1.5323730468749999
1.3825195312499998
1.5114257812499998
1.5146484375
1.5106201171875
1.538818359375
1.5597656249999998
1.6185791015625
1.6298583984375
1.5911865234375
1.571044921875
1.5734619140625
1.5758789062499998
1.5597656249999998
1.5597656249999998
1.558154296875
1.5267333984375
1.53720703125
1.538818359375
1.5364013671874999
1.5283447265624999
1.522705078125
1.6588623046875
1.5839355468749998
1.5428466796875
1.558154296875
1.538818359375
1.5299560546875
1.445361328125
1.4574462890625
1.46630859375
1.4880615234374999
1.4953124999999998
1.49853515625
1.49853515625
1.51787109375
1.5033691406249998
1.5202880859374999
1.5251220703125
1.533984375
1.522705078125
1.5275390624999998
1.5283447265624999
1.40185546875
1.4574462890625
1.509814453125
1.51787109375
1.561376953125
1.5428466796875
1.5839355468749998
1.67578125
1.6072998046875
1.5791015625
1.5645996093749999
1.5533203125
1.558154296875
1.5492919921875
1.5484863281249999
1.5533203125
1.5412353515625
1.5404296874999999
1.5315673828124998
1.538818359375
1.5218994140625
1.5879638671874998
1.611328125
1.5364013671874999
1.546875
1.5460693359375
1.522705078125
1.4735595703125
1.461474609375
1.4590576171874998
1.4687255859375
1.493701171875
1.4928955078125
1.5090087890625
1.5154541015624998
1.52109375
1.5170654296875
1.5275390624999998
1.5299560546875
1.5202880859374999
1.529150390625
1.5355957031249998
1.4107177734374998
1.4477783203124999
1.5235107421874998
1.509814453125
1.522705078125
1.5557373046874998
1.5863525390625
1.6556396484375
1.6161621093749998
1.577490234375
1.5654052734375
1.5686279296874999
1.5525146484374999
1.5476806640624998
1.5444580078124999
1.542041015625
1.5476806640624998
1.542041015625
1.5484863281249999
1.5355957031249998
1.5460693359375
1.5557373046874998
1.6564453124999998
1.55009765625
1.5597656249999998
1.5396240234374998
1.5154541015624998
1.5033691406249998
1.4590576171874998
1.4429443359374998
1.47275390625
1.4872558593749998
1.4928955078125
1.5001464843749999
1.5162597656249999
1.5218994140625
1.5162597656249999
1.5235107421874998
1.53076171875
1.5347900390625
1.5267333984375
1.5283447265624999
1.5009521484375
1.4356933593749999
1.5243164062499999
1.5218994140625
1.5146484375
1.5364013671874999
1.571044921875
1.6403320312499998
1.61455078125
1.5782958984375
1.577490234375
1.5589599609375
1.5750732421875
1.5678222656249998
1.5597656249999998
1.5573486328125
1.53720703125
1.5355957031249998
1.529150390625
1.5323730468749999
1.53076171875
1.5251220703125
1.65966796875
1.5686279296874999
1.5597656249999998
1.5589599609375
1.5315673828124998
1.513037109375
1.461474609375
1.4622802734375
1.4832275390624998
1.4783935546875
1.4953124999999998
1.5090087890625
1.496923828125
1.5025634765625
1.51787109375
1.5299560546875
1.5218994140625
1.52109375
1.5364013671874999
1.53076171875
1.52109375
1.3962158203125
1.5057861328125
1.5082031249999999
1.5186767578125
1.5267333984375
1.5637939453124998
1.6395263671875
1.6411376953124999
1.5887695312499999
1.5678222656249998
1.5637939453124998
1.5492919921875
1.5517089843749998
1.5573486328125
1.5484863281249999
1.546875
1.5235107421874998
1.5323730468749999
1.529150390625
1.5444580078124999
1.53720703125
1.658056640625
1.5807128906249999
1.5460693359375
1.5492919921875
1.5299560546875
1.5323730468749999
1.4518066406249999
1.4526123046875
1.4751708984374998
