1.477587890625
1.496923828125
1.5041748046874999
1.4945068359375
1.522705078125
1.5218994140625
1.5331787109375
1.5194824218749998
1.5315673828124998
1.5315673828124998
1.5364013671874999
1.5267333984375
1.380908203125
1.4767822265625
1.522705078125
1.513037109375
1.5331787109375
1.5492919921875
1.6137451171875
1.6669189453125
1.6008544921874999
1.5766845703124999
1.5718505859374998
1.5791015625
1.545263671875
1.558154296875
1.5404296874999999
1.53720703125
1.53720703125
1.5347900390625
1.5436523437499998
1.5146484375
1.5380126953125
1.6169677734374999
1.5879638671874998
1.5573486328125
1.5533203125
1.5573486328125
1.5162597656249999
1.46630859375
1.4671142578124998
1.456640625
1.4816162109375
1.490478515625
1.4896728515625
1.5106201171875
1.5154541015624998
1.5154541015624998
1.5202880859374999
1.5364013671874999
1.525927734375
1.525927734375
1.5331787109375
1.5243164062499999
1.393798828125
1.4679199218749999
1.5073974609374998
1.5017578125
1.5202880859374999
1.5565429687499999
1.5807128906249999
1.670947265625
1.61455078125
1.5911865234375
1.5734619140625
1.5565429687499999
1.5484863281249999
1.5347900390625
1.5476806640624998
1.5525146484374999
1.53720703125
1.5404296874999999
1.5476806640624998
1.5355957031249998
1.55009765625
1.5831298828125
1.65
1.5654052734375
1.5565429687499999
1.5444580078124999
1.5380126953125
1.4848388671875
1.4606689453125
1.4493896484375
1.480810546875
1.4791992187499998
1.4896728515625
1.5009521484375
1.506591796875
1.506591796875
1.5283447265624999
1.5299560546875
1.525927734375
1.525927734375
1.5412353515625
1.5428466796875
1.4800048828124999
1.4437499999999999
1.509814453125
1.4961181640624999
1.513037109375
1.5404296874999999
1.5807128906249999
1.6781982421875
1.5927978515624999
1.5807128906249999
1.5637939453124998
1.5726562499999999
1.5460693359375
1.5436523437499998
1.5347900390625
1.5541259765625
1.5347900390625
1.546875
1.5299560546875
1.5323730468749999
1.5412353515625
1.5509033203125
1.6475830078125
1.5621826171875
1.5380126953125
1.5686279296874999
1.5106201171875
1.5033691406249998
1.4703369140625
1.4598632812499999
1.4510009765624998
1.4920898437499999
1.4961181640624999
1.5041748046874999
1.4872558593749998
1.51787109375
1.522705078125
1.5251220703125
1.5355957031249998
1.5162597656249999
1.533984375
1.5347900390625
1.5001464843749999
1.4010498046875
1.490478515625
1.4977294921875
1.5162597656249999
1.538818359375
1.5662109375
1.6798095703125
1.6322753906249998
1.5992431640625
1.5645996093749999
1.554931640625
1.5476806640624998
1.5436523437499998
1.5702392578125
1.558154296875
1.5484863281249999
1.55009765625
1.533984375
1.538818359375
1.533984375
1.5299560546875
1.6612792968749999
1.5807128906249999
1.5589599609375
1.5605712890624999
1.5444580078124999
1.5001464843749999
1.461474609375
1.4518066406249999
1.4679199218749999
1.477587890625
1.493701171875
1.4920898437499999
1.482421875
1.51787109375
1.5299560546875
1.5202880859374999
1.538818359375
1.5194824218749998
1.533984375
1.5251220703125
1.5323730468749999
1.4034667968749999
1.4945068359375
1.5138427734375
1.5090087890625
1.546875
1.5597656249999998
1.6314697265625
1.6435546875
1.6048828124999999
1.5718505859374998
1.5517089843749998
1.5557373046874998
1.5517089843749998
1.56298828125
1.55009765625
1.5484863281249999
1.5436523437499998
1.5364013671874999
1.525927734375
1.5380126953125
1.542041015625
1.6435546875
1.5976318359375
1.5517089843749998
1.5428466796875
1.545263671875
1.5194824218749998
1.445361328125
1.461474609375
1.4493896484375
1.4864501953125
1.4920898437499999
1.5001464843749999
1.5090087890625
1.513037109375
1.5138427734375
1.5114257812499998
1.5380126953125
1.529150390625
1.5218994140625
1.5162597656249999
1.53720703125
1.4010498046875
1.4872558593749998
1.5218994140625
1.52109375
1.529150390625
1.5525146484374999
1.6000488281249998
1.6806152343749998
1.587158203125
1.577490234375
1.5734619140625
1.5589599609375
1.5573486328125
1.5637939453124998
1.5654052734375
1.55009765625
1.5476806640624998
1.53720703125
1.5355957031249998
1.5355957031249998
1.5275390624999998
1.65966796875
1.6250244140624999
1.5533203125
1.5573486328125
1.5404296874999999
1.51787109375
1.48564453125
1.4687255859375
1.4606689453125
1.4751708984374998
1.4759765624999999
1.5017578125
1.5001464843749999
1.513037109375
1.53076171875
1.52109375
1.5194824218749998
1.5267333984375
1.5283447265624999
1.5243164062499999
1.5267333984375
1.4276367187499999
1.44052734375
1.5170654296875
1.5057861328125
1.513037109375
1.5533203125
1.5782958984375
1.67900390625
1.6298583984375
1.5919921874999998
1.5589599609375
1.5726562499999999
1.5565429687499999
1.5557373046874998
1.5476806640624998
1.5484863281249999
1.522705078125
1.5323730468749999
1.5251220703125
1.5444580078124999
1.5323730468749999
1.5492919921875
1.6725585937499998
1.5573486328125
1.5517089843749998
1.5484863281249999
1.5194824218749998
1.4920898437499999
1.4501953125
1.4590576171874998
1.477587890625
1.4840332031249999
1.5033691406249998
1.509814453125
1.5025634765625
1.5090087890625
1.529150390625
1.5162597656249999
1.5243164062499999
1.5275390624999998
1.5323730468749999
1.545263671875
1.522705078125
1.4356933593749999
1.5122314453124999
1.506591796875
1.5355957031249998
1.5517089843749998
1.5557373046874998
1.670947265625
1.6250244140624999
1.5927978515624999
1.571044921875
1.5428466796875
1.5557373046874998
1.5444580078124999
1.5517089843749998
1.5396240234374998
1.5444580078124999
1.5347900390625
1.5428466796875
1.53076171875
1.546875
1.5380126953125
1.670947265625
1.574267578125
1.5517089843749998
1.5484863281249999
1.5380126953125
1.5025634765625
1.4510009765624998
1.456640625
1.46953125
1.490478515625
1.5082031249999999
1.5114257812499998
1.493701171875
1.5146484375
1.5082031249999999
1.5267333984375
1.5355957031249998
1.53720703125
1.533984375
1.5380126953125
1.5355957031249998
1.3865478515624998
1.5041748046874999
1.5041748046874999
1.5186767578125
1.5444580078124999
1.558154296875
1.6636962890625
1.6314697265625
1.5879638671874998
1.5791015625
1.5670166015625
1.5573486328125
1.5637939453124998
1.558154296875
1.5444580078124999
1.545263671875
1.5436523437499998
1.5275390624999998
1.5355957031249998
1.522705078125
1.5380126953125
1.6612792968749999
1.5766845703124999
1.5517089843749998
1.5557373046874998
1.545263671875
1.5162597656249999
1.4518066406249999
1.4477783203124999
1.4598632812499999
1.480810546875
1.4993408203124998
1.4920898437499999
1.506591796875
1.5186767578125
1.5283447265624999
1.5114257812499998
1.5283447265624999
1.5380126953125
1.5323730468749999
1.5323730468749999
1.5218994140625
1.380908203125
1.4800048828124999
1.5243164062499999
1.5364013671874999
1.5331787109375
1.5428466796875
1.6290527343749999
1.64677734375
1.5944091796875
1.56943359375
1.5758789062499998
1.5589599609375
1.5517089843749998
1.5509033203125
1.554931640625
1.5331787109375
1.53720703125
1.546875
1.5275390624999998
1.5444580078124999
1.5283447265624999
1.638720703125
1.6008544921874999
1.5533203125
1.5509033203125
1.5243164062499999
1.5162597656249999
1.4687255859375
1.458251953125
1.474365234375
1.4832275390624998
1.4953124999999998
1.5082031249999999
1.49853515625
1.5082031249999999
1.5186767578125
1.5299560546875
1.5412353515625
1.53076171875
1.5146484375
1.5243164062499999
1.5492919921875
1.3913818359374999
1.4719482421874999
1.53076171875
1.506591796875
1.522705078125
1.5670166015625
1.5984375
1.6435546875
1.593603515625
1.5718505859374998
1.5702392578125
1.5678222656249998
1.5492919921875
1.5396240234374998
1.545263671875
1.5525146484374999
1.538818359375
1.5347900390625
1.53720703125
1.5444580078124999
1.53076171875
1.606494140625
1.6330810546874999
1.5573486328125
1.5533203125
1.5492919921875
1.5162597656249999
1.480810546875
1.458251953125
1.4574462890625
1.4767822265625
1.4832275390624998
1.4928955078125
1.4928955078125
1.5138427734375
1.5243164062499999
1.5243164062499999
1.5380126953125
1.5194824218749998
1.5138427734375
1.542041015625
1.53076171875
1.448583984375
1.4203857421875
1.5170654296875
1.5057861328125
1.5283447265624999
1.56298828125
1.5484863281249999
1.6620849609375
1.6072998046875
1.5839355468749998
1.5807128906249999
1.571044921875
1.558154296875
1.5645996093749999
1.5565429687499999
1.53720703125
1.5460693359375
1.5138427734375
1.545263671875
1.5509033203125
1.5355957031249998
1.5331787109375
1.6475830078125
1.5815185546875
1.5476806640624998
1.5404296874999999
1.51787109375
1.5041748046874999
1.461474609375
1.4526123046875
1.4767822265625
1.4759765624999999
1.4945068359375
1.4945068359375
1.5001464843749999
1.53076171875
1.5251220703125
1.53720703125
1.5299560546875
1.538818359375
1.5355957031249998
1.525927734375
1.464697265625
1.409912109375
1.5106201171875
1.5106201171875
1.506591796875
1.5565429687499999
1.5605712890624999
1.6620849609375
1.6314697265625
1.5944091796875
1.5807128906249999
1.5621826171875
1.5533203125
1.546875
1.5533203125
1.55009765625
1.5396240234374998
1.5331787109375
1.5412353515625
1.5404296874999999
1.53076171875
1.529150390625
1.667724609375
1.5799072265624998
1.5621826171875
1.542041015625
1.5347900390625
1.5243164062499999
1.4493896484375
1.46630859375
1.458251953125
1.4783935546875
1.4953124999999998
1.5025634765625
1.5106201171875
1.513037109375
1.538818359375
1.529150390625
1.5243164062499999
1.5275390624999998
1.538818359375
1.538818359375
1.5154541015624998
1.3897705078125
1.50498046875
1.5170654296875
1.5235107421874998
1.53076171875
1.5621826171875
1.651611328125
1.6306640625
1.5887695312499999
1.5799072265624998
1.5718505859374998
1.5637939453124998
1.5533203125
1.5533203125
1.5355957031249998
1.5404296874999999
1.5331787109375
1.5364013671874999
1.5243164062499999
1.53720703125
1.53076171875
1.6604736328124998
1.590380859375
1.5565429687499999
1.5525146484374999
1.545263671875
1.5162597656249999
1.461474609375
1.4542236328125
1.464697265625
1.5025634765625
1.4872558593749998
1.490478515625
1.5186767578125
1.522705078125
1.5162597656249999
1.5235107421874998
1.529150390625
1.5283447265624999
1.5267333984375
1.53076171875
1.533984375
1.400244140625
1.482421875
1.5251220703125
1.5154541015624998
1.542041015625
1.5645996093749999
1.6177734375
1.6524169921874998
1.5887695312499999
1.5839355468749998
1.5718505859374998
1.5662109375
1.5436523437499998
1.5412353515625
1.5412353515625
1.5275390624999998
1.5380126953125
1.5364013671874999
1.5557373046874998
1.545263671875
1.5251220703125
1.674169921875
1.5968261718749999
1.5557373046874998
1.5533203125
1.545263671875
1.513037109375
1.480810546875
1.458251953125
1.4598632812499999
1.4832275390624998
1.5017578125
1.5073974609374998
1.496923828125
1.522705078125
1.5082031249999999
1.5033691406249998
1.5082031249999999
1.5154541015624998
1.5380126953125
1.53720703125
1.5299560546875
1.3833251953124999
1.4719482421874999
1.5251220703125
1.5186767578125
1.52109375
1.55009765625
1.6072998046875
1.6532226562499999
1.6024658203125
1.590380859375
1.585546875
1.5645996093749999
1.5670166015625
1.5412353515625
1.55009765625
1.5517089843749998
1.5509033203125
1.5396240234374998
1.533984375
1.5170654296875
1.5122314453124999
1.5895751953125
1.6443603515624998
1.5589599609375
1.5758789062499998
1.56943359375
1.5323730468749999
1.509814453125
1.4598632812499999
1.4671142578124998
1.4622802734375
1.4711425781249998
1.482421875
1.5033691406249998
1.5025634765625
1.5283447265624999
1.5323730468749999
1.4880615234374999
1.5041748046874999
1.5436523437499998
1.5484863281249999
1.5557373046874998
1.47275390625
1.4332763671875
1.477587890625
1.4816162109375
1.5082031249999999
1.5444580078124999
1.5895751953125
1.703173828125
1.6346923828125
1.5992431640625
1.5782958984375
1.56943359375
1.5879638671874998
1.5766845703124999
1.5919921874999998
1.58232421875
1.5428466796875
1.5484863281249999
1.5267333984375
1.5057861328125
1.5106201171875
1.5331787109375
1.6379150390625
1.5654052734375
1.5476806640624998
1.546875
1.5186767578125
1.5001464843749999
1.47275390625
1.4606689453125
1.4880615234374999
1.5057861328125
1.48564453125
1.4606689453125
1.4872558593749998
1.4800048828124999
1.4816162109375
1.53076171875
1.5122314453124999
1.5106201171875
1.5170654296875
1.5170654296875
1.5364013671874999
1.3962158203125
1.482421875
1.4356933593749999
1.46630859375
1.5364013671874999
1.5355957031249998
1.6669189453125
1.6540283203125
1.6121337890624998
1.65
1.6242187499999998
1.6379150390625
1.5911865234375
1.5412353515625
1.5073974609374998
1.4719482421874999
1.4687255859375
1.5218994140625
1.529150390625
1.5541259765625
1.5662109375
1.7104248046875
1.5750732421875
1.5645996093749999
1.6000488281249998
1.593603515625
1.5509033203125
1.4864501953125
1.458251953125
1.4187744140624998
1.4244140625
1.448583984375
1.4719482421874999
1.456640625
1.490478515625
1.4953124999999998
1.5138427734375
1.5396240234374998
1.5791015625
1.5645996093749999
1.5839355468749998
1.525927734375
1.3124267578125
1.4767822265625
1.46953125
1.461474609375
1.5001464843749999
1.4888671875
1.735400390625
1.66611328125
1.64677734375
1.6177734375
1.5726562499999999
1.611328125
1.5573486328125
1.5299560546875
1.5517089843749998
1.5637939453124998
1.593603515625
1.5597656249999998
1.5283447265624999
1.5404296874999999
1.522705078125
1.796630859375
1.65966796875
1.6234130859375
1.6161621093749998
1.5428466796875
1.4783935546875
1.3470703124999999
1.3744628906249998
1.393798828125
1.4034667968749999
1.42119140625
1.44052734375
1.4373046875
1.4800048828124999
1.506591796875
1.4961181640624999
1.4977294921875
1.5114257812499998
1.5404296874999999
1.5444580078124999
1.461474609375
1.1738525390624999
1.397021484375
1.4574462890625
1.4687255859375
1.480810546875
1.5267333984375
1.7088134765624998
1.77568359375
1.662890625
1.651611328125
1.5662109375
1.5573486328125
1.5436523437499998
1.5782958984375
1.5114257812499998
1.53076171875
1.558154296875
1.5662109375
1.6234130859375
1.5347900390625
1.4687255859375
2.02705078125
1.9376220703125
1.7184814453125
1.6806152343749998
1.7531249999999998
1.5960205078124998
1.303564453125
1.1698242187499999
1.094091796875
1.1899658203124999
1.2423339843749999
1.2802001953125
1.316455078125
1.448583984375
1.4791992187499998
1.4244140625
1.5251220703125
1.5565429687499999
1.574267578125
1.5887695312499999
1.5436523437499998
0.5196533203125
0.37785644531249996
0.5422119140625
0.6574218749999999
0.8306396484374999
1.174658203125
1.690283203125
2.60712890625
2.7424804687499997
2.6723876953124996
2.666748046875
2.505615234375
2.3485107421875
2.2534423828125
2.1213134765625
2.0955322265625
2.1664306640624997
2.125341796875
2.0665283203125
2.047998046875
1.92392578125
2.383154296875
3.0317138671875
3.0309082031249996
3.0381591796875
3.034130859375
3.0325195312499997
2.979345703125
2.334814453125
1.7418457031249999
1.27939453125
0.67998046875
0.3843017578125
0.15146484375
0.02900390625
0.0298095703125
0.0322265625
0.033032226562499996
0.033032226562499996
0.064453125
0.1007080078125
0.1973876953125
0.0298095703125
0.0314208984375
0.0314208984375
0.0322265625
0.0298095703125
0.0322265625
0.02578125
1.3623779296874998
1.9215087890625
2.1624023437499997
2.309033203125
2.3549560546875
2.463720703125
2.4766113281249997
2.5225341796875
2.537841796875
2.4210205078125
2.3404541015625
2.276806640625
2.2341064453125
2.2373291015625
2.37509765625
3.0325195312499997
3.0365478515624997
3.0317138671875
3.0333251953125
3.0325195312499997
3.0349365234374996
2.534619140625
1.9440673828125
1.2020507812499999
0.75732421875
0.4962890625
0.2344482421875
0.0298095703125
0.0322265625
0.030615234374999998
0.030615234374999998
0.104736328125
0.1740234375
0.2255859375
0.2054443359375
0.027392578124999997
0.030615234374999998
0.0314208984375
0.026586914062499998
0.030615234374999998
0.030615234374999998
0.03544921875
0.878173828125
1.6564453124999998
2.0625
2.3033935546874997
2.3936279296875
2.51044921875
2.6441894531249996
2.642578125
2.7513427734375
2.737646484375
2.59423828125
2.513671875
2.296142578125
1.9376220703125
2.08505859375
3.0309082031249996
3.0325195312499997
3.034130859375
3.0301025390625
3.0325195312499997
3.0333251953125
2.7988769531249997
2.1116455078125
1.5533203125
1.0191650390625
0.5583251953125
0.33676757812499997
0.1087646484375
0.0362548828125
0.030615234374999998
0.0314208984375
0.10957031249999999
0.165966796875
0.22880859374999998
0.3037353515625
0.275537109375
0.0314208984375
0.027392578124999997
0.0281982421875
0.027392578124999997
0.0281982421875
0.0314208984375
0.246533203125
1.5025634765625
1.960986328125
2.2631103515624997
2.4886962890624997
2.5628173828125
2.666748046875
2.8190185546874997
2.802099609375
2.784375
2.8238525390625
2.731201171875
2.6868896484375
2.5152832031249996
2.4774169921875
3.0317138671875
3.034130859375
3.029296875
3.034130859375
3.027685546875
3.0333251953125
2.666748046875
2.2743896484375
1.6588623046875
1.134375
0.768603515625
0.6332519531249999
0.2344482421875
0.111181640625
0.0314208984375
0.030615234374999998
0.0765380859375
0.246533203125
0.169189453125
0.28359375
0.36979980468749996
0.0298095703125
0.033032226562499996
0.0314208984375
0.033837890625
0.030615234374999998
0.030615234374999998
0.25458984375
1.1980224609374999
1.7072021484375
2.0657226562499997
2.2711669921874997
2.3936279296875
2.68125
2.7062255859374997
2.7561767578125
2.8754150390624997
2.80048828125
2.7142822265624997
2.65869140625
2.6039062499999996
2.5225341796875
2.7722900390625
3.0301025390625
3.037353515625
3.034130859375
3.0325195312499997
3.0349365234374996
3.0357421875
2.59423828125
1.8900878906249998
1.4332763671875
0.9853271484374999
0.5921630859375
0.30937499999999996
0.0652587890625
0.02578125
0.024169921875
0.02900390625
0.09345703124999999
0.167578125
0.24089355468749998
0.240087890625
0.03544921875
0.02578125
0.026586914062499998
0.030615234374999998
0.030615234374999998
0.030615234374999998
0.02900390625
1.1738525390624999
1.6483886718749998
2.0181884765625
2.2196044921875
2.39443359375
2.5249511718749997
2.7046142578124996
2.747314453125
2.8367431640625
2.7755126953125
2.6103515625
2.5088378906249997
2.4661376953125
2.4242431640624997
2.4500244140625
3.0325195312499997
3.0317138671875
3.0325195312499997
3.034130859375
3.034130859375
3.037353515625
2.6594970703125
2.077001953125
1.5533203125
1.044140625
0.7130126953125
0.4390869140625
0.17482910156249998
0.030615234374999998
0.02578125
0.046728515624999994
0.10957031249999999
0.21108398437499998
0.270703125
0.29970703125
0.2634521484375
0.030615234374999998
0.030615234374999998
0.030615234374999998
0.0314208984375
0.033032226562499996
0.030615234374999998
0.6388916015624999
1.2834228515625
1.8111328125
2.0560546875
2.2365234375
2.410546875
2.586181640625
2.5902099609375
2.6417724609374997
2.60068359375
2.5757080078124996
2.534619140625
2.5894042968749997
2.5450927734374997
2.5152832031249996
3.0317138671875
3.0325195312499997
3.0325195312499997
3.034130859375
3.0317138671875
3.0333251953125
2.68125
2.0471923828125
1.5025634765625
1.12470703125
0.7951904296875
0.4842041015625
0.2054443359375
0.075732421875
0.030615234374999998
0.030615234374999998
0.0958740234375
0.0362548828125
0.10957031249999999
0.1571044921875
0.2118896484375
0.0298095703125
0.030615234374999998
0.027392578124999997
0.030615234374999998
0.033837890625
0.033032226562499996
0.6002197265625
1.611328125
2.0165771484375
2.1221191406249997
2.43955078125
2.5894042968749997
2.6885009765624996
2.6885009765624996
2.7674560546875
2.76181640625
2.615185546875
2.5144775390625
2.486279296875
2.4596923828125
2.3726806640625
3.0349365234374996
3.034130859375
3.0317138671875
3.0349365234374996
3.0325195312499997
3.034130859375
2.8302978515625
2.3646240234375
1.819189453125
1.2157470703125
0.913623046875
0.688037109375
0.36979980468749996
0.26103515625
0.0990966796875
0.04189453125
0.16435546874999998
0.198193359375
0.2570068359375
0.41813964843749996
0.4318359375
0.030615234374999998
0.0314208984375
0.030615234374999998
0.030615234374999998
0.026586914062499998
0.026586914062499998
0.0314208984375
1.1996337890625
1.6209960937499999
1.9634033203124999
2.173681640625
2.4145751953125
2.5579833984375
2.537841796875
2.63935546875
2.7263671874999997
2.6135742187499997
2.53623046875
2.4468017578125
2.36220703125
2.281640625
2.624853515625
3.0365478515624997
3.034130859375
3.0333251953125
3.0317138671875
3.0333251953125
2.9253662109375
2.6441894531249996
1.835302734375
1.3720458984375
1.0167480468749999
0.6260009765625
0.39316406249999997
0.10634765624999999
0.0459228515625
0.0346435546875
0.037060546874999996
0.030615234374999998
0.03544921875
0.069287109375
0.1087646484375
0.030615234374999998
0.026586914062499998
0.0314208984375
0.033032226562499996
0.0314208984375
0.0281982421875
0.02900390625
0.8926757812499999
1.662890625
1.993212890625
2.2590820312499997
2.4258544921875
2.5088378906249997
2.5338134765625
2.5982666015625
2.616796875
2.4838623046875
2.5168945312499997
2.5338134765625
2.4814453125
2.4041015624999997
2.3501220703125
3.034130859375
3.0325195312499997
3.037353515625
3.0381591796875
3.0333251953125
3.0333251953125
2.5885986328125
2.0745849609375
1.5597656249999998
1.0239990234375
0.7226806640625
0.4318359375
0.16032714843749998
0.1611328125
0.0749267578125
0.0797607421875
0.1200439453125
0.1345458984375
0.18369140625
0.15629882812499998
0.198193359375
0.030615234374999998
0.02900390625
0.0314208984375
0.033032226562499996
0.033032226562499996
0.033837890625
0.7758544921874999
1.4961181640624999
1.9021728515624998
2.36220703125
2.3074218749999997
2.4363281249999997
2.5579833984375
2.495947265625
2.650634765625
2.454052734375
2.4032958984375
2.3791259765625
2.4177978515625
2.26552734375
2.2969482421875
3.0349365234374996
3.0357421875
3.0333251953125
3.0325195312499997
3.0389648437499996
3.0325195312499997
2.8270751953124997
2.408935546875
1.6435546875
1.224609375
0.8080810546874999
0.37705078124999997
0.1877197265625
0.230419921875
0.040283203125
0.09023437499999999
0.09345703124999999
0.1313232421875
0.2038330078125
0.20625
0.19013671875
0.030615234374999998
0.0322265625
0.030615234374999998
0.037060546874999996
0.02900390625
0.0322265625
0.030615234374999998
1.3172607421875
1.699951171875
1.915869140625
2.1712646484375
2.3468994140625
2.4016845703125
2.3984619140625
2.6031005859375
2.6780273437499997
2.6401611328124996
2.5845703125
2.415380859375
2.4113525390625
2.399267578125
3.0333251953125
3.034130859375
3.0365478515624997
3.0317138671875
3.0317138671875
3.0325195312499997
2.7650390624999996
2.4443847656249997
1.8038818359375
1.2785888671874999
0.8427246093749999
0.6493652343749999
0.46728515625
0.2199462890625
0.0797607421875
0.0314208984375
0.0314208984375
0.153076171875
0.1740234375
0.0322265625
0.2183349609375
0.0346435546875
0.0314208984375
0.030615234374999998
0.0298095703125
0.030615234374999998
0.0322265625
0.0298095703125
1.148876953125
1.6234130859375
2.02060546875
2.164013671875
2.2832519531249997
2.312255859375
2.360595703125
2.5491210937499997
2.5902099609375
2.5072265624999996
2.4435791015625
2.3912109375
2.3050048828125
2.1970458984375
2.26552734375
3.0325195312499997
3.0357421875
3.0333251953125
3.029296875
3.034130859375
3.0365478515624997
2.6441894531249996
1.960986328125
1.4332763671875
1.1053710937499999
0.845947265625
0.5043457031249999
0.33193359375
0.2900390625
0.14421386718749998
0.0926513671875
0.12890625
0.18852539062499998
0.1941650390625
0.2360595703125
0.17482910156249998
0.03544921875
0.0314208984375
0.0314208984375
0.033032226562499996
0.0322265625
0.0322265625
0.78310546875
1.56298828125
1.8812255859375
2.0625
2.1970458984375
2.29775390625
2.4532470703125
2.4693603515625
2.495947265625
2.5845703125
2.521728515625
2.4629150390625
2.4790283203124996
2.437939453125
2.3138671875
3.0349365234374996
3.0325195312499997
3.0325195312499997
3.0309082031249996
3.0333251953125
3.0333251953125
2.7424804687499997
2.1140624999999997
1.5517089843749998
0.984521484375
0.6872314453124999
0.485009765625
0.278759765625
0.127294921875
0.02578125
0.0314208984375
0.08942871093749999
0.0620361328125
0.11037597656249999
0.16677246093749998
0.21269531249999998
0.0281982421875
0.033032226562499996
0.02900390625
0.0314208984375
0.0314208984375
0.030615234374999998
0.6413085937499999
1.3100097656249998
1.780517578125
2.1624023437499997
2.23974609375
2.3839599609374997
2.5386474609375
2.5797363281249996
2.6917236328125
2.70703125
2.52978515625
2.578125
2.5088378906249997
2.354150390625
2.3050048828125
3.0325195312499997
3.0309082031249996
3.0325195312499997
3.0405761718749997
3.034130859375
3.0357421875
2.8254638671874996
2.4709716796875
1.7337890624999999
1.405078125
1.0763671875
0.7234863281249999
0.39638671875
0.33515625
0.223974609375
0.09829101562499999
0.143408203125
0.23928222656249998
0.23928222656249998
0.2199462890625
0.3053466796875
0.0346435546875
0.0314208984375
0.043505859375
0.030615234374999998
0.030615234374999998
0.0314208984375
0.165966796875
1.2286376953125
1.8199951171875
2.015771484375
2.1809326171875
2.3356201171874997
2.4846679687499997
2.489501953125
2.6176025390624997
2.6683593749999996
2.5885986328125
2.5821533203125
2.43310546875
2.376708984375
2.3638183593749997
3.034130859375
3.0317138671875
3.0325195312499997
3.0325195312499997
3.034130859375
3.0333251953125
3.034130859375
2.3477050781249997
1.7660156249999999
1.3921875
0.9490722656249999
0.71865234375
0.4390869140625
0.17724609375
0.0878173828125
0.030615234374999998
0.030615234374999998
0.07009277343749999
0.17241210937499998
0.233642578125
0.3101806640625
0.0281982421875
0.030615234374999998
0.0314208984375
0.030615234374999998
0.0314208984375
0.030615234374999998
0.02900390625
1.2898681640624998
1.7184814453125
2.0109375
2.302587890625
2.4000732421874997
2.4177978515625
2.602294921875
2.5894042968749997
2.6739990234374997
2.673193359375
2.856884765625
2.68125
2.5652343749999997
2.3203125
2.3001708984375
3.0325195312499997
3.0381591796875
3.037353515625
3.0317138671875
3.0357421875
3.0284912109374997
2.7771240234374996
2.199462890625
1.405078125
1.1110107421875
0.8024414062499999
0.4487548828125
0.252978515625
0.054785156249999994
0.030615234374999998
0.030615234374999998
0.030615234374999998
0.0314208984375
0.030615234374999998
0.107958984375
0.037060546874999996
0.033837890625
0.027392578124999997
0.030615234374999998
0.0314208984375
0.0298095703125
0.0281982421875
0.8483642578124999
1.6927001953124998
1.9658203125
2.1664306640624997
2.3017822265625
2.4363281249999997
2.5209228515624997
2.5676513671874996
2.6304931640625
2.6683593749999996
2.566845703125
2.54267578125
2.5112548828124996
2.418603515625
2.3839599609374997
3.0333251953125
3.029296875
3.034130859375
3.034130859375
3.0325195312499997
3.0325195312499997
2.7481201171875
2.144677734375
1.622607421875
1.21171875
0.6775634765624999
0.4165283203125
0.1119873046875
0.0708984375
0.02900390625
0.0322265625
0.0281982421875
0.046728515624999994
0.075732421875
0.127294921875
0.214306640625
0.0362548828125
0.0322265625
0.0346435546875
0.02900390625
0.030615234374999998
0.0298095703125
0.7581298828124999
1.35673828125
1.8111328125
2.051220703125
2.157568359375
2.1889892578125
2.421826171875
2.4363281249999997
2.4983642578125
2.4145751953125
2.3146728515625
2.3477050781249997
2.3388427734375
2.29453125
2.24619140625
3.034130859375
3.0381591796875
3.0325195312499997
3.0317138671875
3.034130859375
3.0317138671875
2.7545654296874997
2.4363281249999997
1.687060546875
1.2697265624999998
0.9047607421874999
0.6147216796875
0.3343505859375
0.2715087890625
0.10957031249999999
0.08942871093749999
0.10957031249999999
0.1699951171875
0.24331054687499998
0.2731201171875
0.32065429687499997
0.033837890625
0.030615234374999998
0.042700195312499994
0.030615234374999998
0.026586914062499998
0.030615234374999998
0.0346435546875
1.074755859375
1.690283203125
1.880419921875
2.0520263671875
2.2228271484374997
2.40732421875
2.4242431640624997
2.5305908203125
2.553955078125
2.5265625
2.4967529296874997
2.502392578125
2.3855712890625
2.392822265625
3.0317138671875
3.0349365234374996
3.0357421875
3.0317138671875
3.0325195312499997
3.0333251953125
3.0301025390625
2.4202148437499997
1.85947265625
1.482421875
0.9804931640625
0.6678955078125
0.37785644531249996
0.18046874999999998
0.0990966796875
0.111181640625
0.026586914062499998
0.0322265625
0.030615234374999998
0.06606445312499999
0.1474365234375
0.03544921875
0.030615234374999998
0.0322265625
0.0314208984375
0.0322265625
0.0314208984375
0.02900390625
1.139208984375
1.638720703125
1.989990234375
2.2453857421875
2.3372314453125
2.3952392578125
2.5080322265625
2.5168945312499997
2.5096435546875
2.5313964843749996
2.5547607421875
2.4725830078124997
2.338037109375
2.2993652343749997
2.3654296875
3.0333251953125
3.0325195312499997
3.0333251953125
3.034130859375
3.0333251953125
3.0333251953125
2.642578125
2.002880859375
1.3285400390625
0.9893554687499999
0.7242919921875
0.37060546875
0.14824218749999998
0.0652587890625
0.0322265625
0.033032226562499996
0.11843261718749999
0.11440429687499999
0.193359375
0.270703125
0.3101806640625
0.0314208984375
0.0314208984375
0.0322265625
0.0346435546875
0.0298095703125
0.030615234374999998
0.7822998046874999
1.3656005859375
1.8103271484374999
2.0657226562499997
2.23974609375
2.4274658203125
2.6127685546875
2.650634765625
2.7134765625
2.6764160156249996
2.647412109375
2.586181640625
2.4427734375
2.4282714843749997
2.4242431640624997
3.0325195312499997
3.0317138671875
3.037353515625
3.0357421875
3.0309082031249996
3.0357421875
2.7803466796875
2.1857666015625
1.5968261718749999
1.1802978515625
0.8024414062499999
0.588134765625
0.314208984375
0.1393798828125
0.050756835937499994
0.04189453125
0.0555908203125
0.16274414062499998
0.1168212890625
0.09426269531249999
0.15227050781249998
0.0314208984375
0.0314208984375
0.030615234374999998
0.0314208984375
0.0314208984375
0.033837890625
0.45439453124999996
1.1851318359375
1.6298583984375
1.899755859375
2.0923095703125
2.25263671875
2.41376953125
2.5571777343749997
2.586181640625
2.6039062499999996
2.6216308593749997
2.602294921875
2.5628173828125
2.489501953125
2.3968505859375
3.0325195312499997
3.0325195312499997
3.0309082031249996
3.0357421875
3.0325195312499997
3.034130859375
2.7835693359375
2.3638183593749997
1.7724609375
1.2987304687499999
0.889453125
0.6114990234375
0.19094238281249998
0.059619140625
0.0322265625
0.0314208984375
0.030615234374999998
0.02900390625
0.09990234375
0.143408203125
0.21511230468749998
0.0314208984375
0.030615234374999998
0.030615234374999998
0.030615234374999998
0.0281982421875
0.030615234374999998
0.033837890625
1.173046875
1.72412109375
2.0681396484375
2.26552734375
2.383154296875
2.5201171875
2.5716796874999996
2.6079345703124996
2.5813476562499997
2.5813476562499997
2.505615234375
2.5402587890625
2.463720703125
2.49755859375
2.479833984375
3.029296875
3.029296875
3.029296875
3.0333251953125
3.0301025390625
3.0325195312499997
2.434716796875
1.74345703125
1.1786865234375
0.865283203125
0.578466796875
0.3262939453125
0.1039306640625
0.0314208984375
0.0314208984375
0.030615234374999998
0.09023437499999999
0.1393798828125
0.16435546874999998
0.1554931640625
0.030615234374999998
0.02900390625
0.026586914062499998
0.0298095703125
0.030615234374999998
0.027392578124999997
0.02900390625
1.0401123046875
1.3865478515624998
1.6975341796874999
1.9464843749999998
2.064111328125
2.2711669921874997
2.402490234375
2.5201171875
2.5152832031249996
2.634521484375
2.56845703125
2.4766113281249997
2.2880859375
2.3912109375
2.3775146484375
3.0309082031249996
3.034130859375
3.0389648437499996
3.0325195312499997
3.0325195312499997
3.0333251953125
2.9011962890625
2.276806640625
1.593603515625
1.2383056640624999
0.9410156249999999
0.7299316406249999
0.4189453125
0.285205078125
0.18369140625
0.11843261718749999
0.1071533203125
0.07734374999999999
0.0322265625
0.061230468749999996
0.057202148437499996
0.0298095703125
0.02900390625
0.030615234374999998
0.030615234374999998
0.027392578124999997
0.027392578124999997
0.5663818359375
1.2447509765625
1.7378173828124999
2.035107421875
2.18173828125
2.389599609375
2.5265625
2.592626953125
2.6860839843749997
2.6675537109375
2.5531494140624997
2.4741943359375
2.44921875
2.321923828125
2.2179931640625
3.0317138671875
3.037353515625
3.034130859375
3.0317138671875
3.0325195312499997
3.0357421875
2.7642333984375
2.1793212890625
1.5895751953125
1.2689208984375
0.768603515625
0.549462890625
0.2771484375
0.23525390624999998
0.072509765625
0.030615234374999998
0.249755859375
0.1007080078125
0.111181640625
0.1345458984375
0.182080078125
0.0281982421875
0.0314208984375
0.041088867187499996
0.033032226562499996
0.0314208984375
0.033032226562499996
0.0346435546875
1.168212890625
1.77890625
2.0439697265625
2.286474609375
2.4548583984375
2.5007812499999997
2.5499267578125
2.6401611328124996
2.618408203125
2.6095458984374997
2.6039062499999996
2.5064208984375
2.502392578125
2.4709716796875
3.0317138671875
3.0349365234374996
3.0301025390625
3.037353515625
3.0325195312499997
3.0309082031249996
2.8174072265624996
2.386376953125
1.8119384765625
1.1674072265625
0.87333984375
0.6670898437499999
0.3843017578125
0.198193359375
0.1264892578125
0.030615234374999998
0.026586914062499998
0.033837890625
0.1007080078125
0.12568359375
0.1861083984375
0.0322265625
0.026586914062499998
0.033837890625
0.027392578124999997
0.0314208984375
0.0314208984375
0.0298095703125
1.164990234375
1.6185791015625
2.060888671875
2.281640625
2.4016845703125
2.5579833984375
2.5563720703125
2.5853759765624997
2.56845703125
2.5885986328125
2.487890625
2.4677490234375
2.3887939453125
2.34609375
2.3315917968749997
3.0317138671875
3.0325195312499997
3.0284912109374997
3.0333251953125
3.0309082031249996
3.0381591796875
2.7948486328124997
2.0439697265625
1.5686279296874999
1.1480712890625
0.9732421874999999
0.555908203125
0.40122070312499997
0.269091796875
0.3117919921875
0.275537109375
0.21672363281249998
0.2989013671875
0.34562988281249996
0.4833984375
0.030615234374999998
0.03544921875
0.0314208984375
0.0322265625
0.1651611328125
1.3607666015625
3.0357421875
3.0325195312499997
3.0349365234374996
3.0325195312499997
3.029296875
3.0333251953125
3.029296875
3.0325195312499997
3.034130859375
3.0365478515624997
3.0325195312499997
3.0325195312499997
3.0325195312499997
3.0325195312499997
3.0333251953125
3.0357421875
3.0357421875
3.0317138671875
3.034130859375
3.0333251953125
3.0317138671875
3.0325195312499997
3.0309082031249996
3.0301025390625
3.0349365234374996
3.0333251953125
3.0325195312499997
3.034130859375
3.0325195312499997
3.0317138671875
3.034130859375
3.037353515625
3.0301025390625
3.0284912109374997
3.0317138671875
3.0325195312499997
3.0349365234374996
2.4468017578125
2.6063232421875
2.36865234375
2.0584716796875
2.006103515625
1.7184814453125
1.9053955078125
1.5275390624999998
1.3881591796875
1.2511962890625
1.0675048828125
0.9547119140625
0.8113037109375
0.736376953125
0.7291259765625
0.7339599609374999
0.7315429687499999
0.6646728515625
0.6388916015624999
0.65419921875
0.64775390625
1.21171875
0.98291015625
0.7774658203125
0.7315429687499999
0.7275146484374999
0.6936767578124999
0.5164306640624999
0.49790039062499997
0.49387207031249997
0.62841796875
0.6856201171874999
0.7323486328125
0.7645751953125
0.88623046875
0.9498779296875
0.90556640625
0.9490722656249999
0.9869384765625
1.0248046874999999
1.0207763671874999
1.0159423828125
0.58330078125
0.7839111328124999
0.9724365234375
0.9990234375
1.0997314453125
1.1384033203125
1.4719482421874999
1.5162597656249999
1.3865478515624998
1.3124267578125
1.3083984375
1.2689208984375
1.3229003906249999
1.252001953125
1.2705322265624999
1.2826171874999999
1.2576416015624998
1.2310546875
1.2665039062499999
1.316455078125
1.3309570312499999
1.571044921875
1.6749755859375
1.46953125
1.445361328125
1.4308593749999998
1.340625
1.2503906249999999
1.1577392578124999
1.1698242187499999
1.2028564453125
1.2439453125
1.303564453125
1.351904296875
1.3527099609375
1.3801025390625
1.4034667968749999
1.38896484375
1.4397216796874999
1.4381103515625
1.4630859374999998
1.4493896484375
1.222998046875
1.2342773437499999
1.3865478515624998
1.4219970703125
1.4574462890625
1.522705078125
1.558154296875
1.7176757812499999
1.5960205078124998
1.5436523437499998
1.50498046875
1.4953124999999998
1.4864501953125
1.4711425781249998
1.506591796875
1.5041748046874999
1.4735595703125
1.4816162109375
1.464697265625
1.4679199218749999
1.4413330078125
1.5637939453124998
1.6927001953124998
1.56943359375
1.5275390624999998
1.5355957031249998
1.4864501953125
1.3865478515624998
1.3913818359374999
1.34384765625
1.37607421875
1.40830078125
1.4236083984374999
1.4574462890625
1.4840332031249999
1.5001464843749999
1.4920898437499999
1.5146484375
1.50498046875
1.52109375
1.5073974609374998
1.49853515625
1.4276367187499999
1.2608642578125
1.4759765624999999
1.45341796875
1.4759765624999999
1.56298828125
1.6330810546874999
1.8046875
1.6620849609375
1.6427490234375
1.5799072265624998
1.5662109375
1.5533203125
1.5484863281249999
1.5444580078124999
1.53076171875
1.5251220703125
1.5243164062499999
1.5525146484374999
1.513037109375
1.50498046875
1.5017578125
1.74345703125
1.63388671875
1.587158203125
1.5654052734375
1.5154541015624998
1.4848388671875
1.3728515625
1.3752685546874999
1.4034667968749999
1.44052734375
1.4606689453125
1.4687255859375
1.4783935546875
1.4848388671875
1.496923828125
1.50498046875
1.5170654296875
1.5114257812499998
1.538818359375
1.533984375
1.474365234375
1.2608642578125
1.41796875
1.48564453125
1.5017578125
1.5275390624999998
1.5831298828125
1.7958251953125
1.716064453125
1.65966796875
1.587158203125
1.5766845703124999
1.5758789062499998
1.56298828125
1.5412353515625
1.5364013671874999
1.55009765625
1.5323730468749999
1.5525146484374999
1.5380126953125
1.55009765625
1.5347900390625
1.79501953125
1.6290527343749999
1.574267578125
1.603271484375
1.6000488281249998
1.47275390625
1.4107177734374998
1.38896484375
1.4066894531249998
1.442138671875
1.45341796875
1.5009521484375
1.477587890625
1.5041748046874999
1.513037109375
1.53720703125
1.5194824218749998
1.5243164062499999
1.5396240234374998
1.5082031249999999
1.5412353515625
1.3027587890624999
1.4574462890625
1.5017578125
1.4671142578124998
1.5533203125
1.5662109375
1.7055908203124999
1.6951171875
1.6250244140624999
1.5782958984375
1.5831298828125
1.561376953125
1.5492919921875
1.5476806640624998
1.558154296875
1.561376953125
1.561376953125
1.5218994140625
1.5283447265624999
1.506591796875
1.5218994140625
1.7297607421874999
1.6588623046875
1.6081054687499998
1.5686279296874999
1.533984375
1.509814453125
1.3921875
1.43408203125
1.413134765625
1.4147460937499998
1.44052734375
1.48564453125
1.4767822265625
1.5146484375
1.5114257812499998
1.5106201171875
1.5106201171875
1.5412353515625
1.55009765625
1.522705078125
1.5202880859374999
1.2955078125
1.3825195312499998
1.5033691406249998
1.5033691406249998
1.5347900390625
1.5718505859374998
1.6725585937499998
1.7297607421874999
1.62744140625
1.622607421875
1.6072998046875
1.5815185546875
1.574267578125
1.53720703125
1.5275390624999998
1.5404296874999999
1.5533203125
1.5573486328125
1.5476806640624998
1.509814453125
1.5170654296875
1.60166015625
1.6725585937499998
1.5879638671874998
1.5662109375
1.5380126953125
1.5082031249999999
1.4477783203124999
1.4397216796874999
1.426025390625
1.4284423828125
1.51787109375
1.5525146484374999
1.5041748046874999
1.5364013671874999
1.53076171875
1.5243164062499999
1.5146484375
1.5251220703125
1.5162597656249999
1.53076171875
1.5492919921875
1.3398193359375
1.3994384765624999
1.5090087890625
1.4928955078125
1.5082031249999999
1.5517089843749998
1.641943359375
1.7297607421874999
1.6475830078125
1.5984375
1.5605712890624999
1.5517089843749998
1.5509033203125
1.5492919921875
1.5299560546875
1.5533203125
1.5315673828124998
1.5146484375
1.5347900390625
1.525927734375
1.5243164062499999
1.5557373046874998
1.7096191406249999
1.5597656249999998
1.5525146484374999
1.5678222656249998
1.5025634765625
1.474365234375
1.458251953125
1.4107177734374998
1.4719482421874999
1.4759765624999999
1.4800048828124999
1.4791992187499998
1.506591796875
1.49853515625
1.5380126953125
1.51787109375
1.5283447265624999
1.5275390624999998
1.55009765625
1.5114257812499998
1.5082031249999999
1.3768798828125
1.5170654296875
1.4816162109375
1.5017578125
1.5525146484374999
1.5678222656249998
1.732177734375
1.6459716796875
1.6056884765625
1.585546875
1.546875
1.5782958984375
1.5670166015625
1.5404296874999999
1.55009765625
1.5589599609375
1.5476806640624998
1.5323730468749999
1.5412353515625
1.5347900390625
1.5355957031249998
1.72412109375
1.5968261718749999
1.56298828125
1.5662109375
1.538818359375
1.482421875
1.4244140625
1.4332763671875
1.4751708984374998
1.4679199218749999
1.4783935546875
1.496923828125
1.506591796875
1.5090087890625
1.5106201171875
1.5001464843749999
1.5396240234374998
1.5235107421874998
1.5315673828124998
1.5299560546875
1.5202880859374999
1.340625
1.506591796875
1.4953124999999998
1.51787109375
1.5396240234374998
1.5791015625
1.7184814453125
1.662890625
1.6072998046875
1.5927978515624999
1.5565429687499999
1.5517089843749998
1.5533203125
1.5347900390625
1.5428466796875
1.5525146484374999
1.546875
1.5404296874999999
1.542041015625
1.5412353515625
1.5347900390625
1.7168701171874998
1.622607421875
1.5323730468749999
1.558154296875
1.5436523437499998
1.5082031249999999
1.4437499999999999
1.4284423828125
1.4493896484375
1.4671142578124998
1.4816162109375
1.4872558593749998
1.5057861328125
1.5033691406249998
1.49853515625
1.5315673828124998
1.5323730468749999
1.5146484375
1.52109375
1.55009765625
1.5267333984375
1.3390136718749999
1.4630859374999998
1.5106201171875
1.5082031249999999
1.5380126953125
1.5517089843749998
1.6717529296875
1.687060546875
1.6201904296874998
1.58232421875
1.5718505859374998
1.5686279296874999
1.5605712890624999
1.5541259765625
1.5533203125
1.53720703125
1.5323730468749999
1.5436523437499998
1.5299560546875
1.542041015625
1.5404296874999999
1.67900390625
1.6556396484375
1.5517089843749998
1.5621826171875
1.5573486328125
1.50498046875
1.4356933593749999
1.4308593749999998
1.4373046875
1.4800048828124999
1.4832275390624998
1.477587890625
1.4953124999999998
1.5057861328125
1.5218994140625
1.5243164062499999
1.5170654296875
1.5275390624999998
1.529150390625
1.5323730468749999
1.5525146484374999
1.3873535156249999
1.4389160156249998
1.5194824218749998
1.4977294921875
1.529150390625
1.5847412109374999
1.6218017578125
1.6733642578124999
1.619384765625
1.5791015625
1.5589599609375
1.5750732421875
1.5686279296874999
1.5678222656249998
1.5517089843749998
1.533984375
1.538818359375
1.5509033203125
1.5412353515625
1.546875
1.509814453125
1.622607421875
1.66611328125
1.5654052734375
1.5605712890624999
1.5541259765625
1.529150390625
1.4598632812499999
1.448583984375
1.42119140625
1.4606689453125
1.474365234375
1.4759765624999999
1.493701171875
1.5235107421874998
1.5082031249999999
1.5122314453124999
1.5347900390625
1.5347900390625
1.5364013671874999
1.5138427734375
1.5251220703125
1.4203857421875
1.3905761718749998
1.506591796875
1.5275390624999998
1.5194824218749998
1.558154296875
1.5992431640625
1.7176757812499999
1.6314697265625
1.5895751953125
1.5734619140625
1.558154296875
1.5533203125
1.5645996093749999
1.5484863281249999
1.5589599609375
1.546875
1.5267333984375
1.533984375
1.5323730468749999
1.52109375
1.5243164062499999
1.6685302734374998
1.590380859375
1.558154296875
1.5484863281249999
1.5082031249999999
1.4977294921875
1.4501953125
1.4397216796874999
1.4574462890625
1.4679199218749999
1.4848388671875
1.4888671875
1.5017578125
1.5186767578125
1.533984375
1.53076171875
1.5517089843749998
1.5202880859374999
1.5243164062499999
1.5355957031249998
1.4219970703125
1.3913818359374999
1.506591796875
1.490478515625
1.5194824218749998
1.5533203125
1.5750732421875
1.7128417968749998
1.635498046875
1.611328125
1.577490234375
1.5782958984375
1.56943359375
1.5444580078124999
1.546875
1.55009765625
1.5573486328125
1.5347900390625
1.5380126953125
1.538818359375
1.545263671875
1.5404296874999999
1.7023681640625
1.571044921875
1.5533203125
1.5492919921875
1.5396240234374998
1.4945068359375
1.442138671875
1.4501953125
1.4574462890625
1.474365234375
1.480810546875
1.5025634765625
1.493701171875
1.513037109375
1.5057861328125
1.51787109375
1.529150390625
1.5347900390625
1.5412353515625
1.53076171875
1.5347900390625
1.3744628906249998
1.4735595703125
1.5243164062499999
1.525927734375
1.5404296874999999
1.5686279296874999
1.687060546875
1.65966796875
1.5815185546875
1.5887695312499999
1.5509033203125
1.577490234375
1.5533203125
1.5621826171875
1.5670166015625
1.5436523437499998
1.53076171875
1.525927734375
1.5347900390625
1.538818359375
1.5565429687499999
1.7168701171874998
1.5799072265624998
1.5557373046874998
1.5444580078124999
1.5517089843749998
1.5025634765625
1.4316650390624999
1.4373046875
1.4542236328125
1.4679199218749999
1.4800048828124999
1.4872558593749998
1.5082031249999999
1.5162597656249999
1.5154541015624998
1.525927734375
1.5194824218749998
1.529150390625
1.533984375
1.5218994140625
1.51787109375
1.361572265625
1.4510009765624998
1.5001464843749999
1.5082031249999999
1.538818359375
1.5686279296874999
1.6322753906249998
1.6935058593749999
1.5992431640625
1.587158203125
1.571044921875
1.585546875
1.5670166015625
1.558154296875
1.55009765625
1.5428466796875
1.533984375
1.5347900390625
1.533984375
1.5235107421874998
1.5347900390625
1.635498046875
1.609716796875
1.5678222656249998
1.558154296875
1.5162597656249999
1.5073974609374998
1.4735595703125
1.4332763671875
1.448583984375
1.4751708984374998
1.482421875
1.4791992187499998
1.4945068359375
1.5186767578125
1.5082031249999999
1.5251220703125
1.5138427734375
1.5170654296875
1.53720703125
1.5243164062499999
1.52109375
1.3712402343749999
1.44052734375
1.4912841796874998
1.5138427734375
1.546875
1.561376953125
1.6395263671875
1.69833984375
1.6242187499999998
1.6024658203125
1.5831298828125
1.56298828125
1.5517089843749998
1.5355957031249998
1.5525146484374999
1.5533203125
1.5428466796875
1.5436523437499998
1.5396240234374998
1.5283447265624999
1.5364013671874999
1.587158203125
1.6620849609375
1.558154296875
1.5541259765625
1.5541259765625
1.5404296874999999
1.4816162109375
1.4510009765624998
1.4389160156249998
1.46953125
1.4816162109375
1.4993408203124998
1.4993408203124998
1.513037109375
1.5106201171875
1.5162597656249999
1.50498046875
1.5299560546875
1.5428466796875
1.538818359375
1.5347900390625
1.458251953125
1.4252197265625
1.5025634765625
1.5057861328125
1.525927734375
1.5605712890624999
1.5944091796875
1.7120361328125
1.62744140625
1.5766845703124999
1.554931640625
1.5621826171875
1.5589599609375
1.5662109375
1.5573486328125
1.5444580078124999
1.5331787109375
1.545263671875
1.5404296874999999
1.5315673828124998
1.5235107421874998
1.5686279296874999
1.6822265625
1.5984375
1.554931640625
1.5323730468749999
1.522705078125
1.474365234375
1.4501953125
1.4445556640625
1.46630859375
1.48564453125
1.4993408203124998
1.513037109375
1.5162597656249999
1.5138427734375
1.529150390625
1.5114257812499998
1.53720703125
1.53076171875
1.5243164062499999
1.538818359375
1.4638916015624999
1.3688232421875
1.5114257812499998
1.493701171875
1.525927734375
1.53720703125
1.5839355468749998
1.7072021484375
1.6572509765624999
1.5839355468749998
1.577490234375
1.5662109375
1.5573486328125
1.5589599609375
1.5444580078124999
1.5484863281249999
1.5444580078124999
1.5492919921875
1.5396240234374998
1.5323730468749999
1.5162597656249999
1.522705078125
1.67578125
1.58232421875
1.574267578125
1.571044921875
1.53720703125
1.5073974609374998
1.4638916015624999
1.4332763671875
1.4526123046875
1.4671142578124998
1.4719482421874999
1.50498046875
1.506591796875
1.5154541015624998
1.5202880859374999
1.525927734375
1.5404296874999999
1.53076171875
1.5428466796875
1.5347900390625
1.5122314453124999
1.3744628906249998
1.49853515625
1.5138427734375
1.51787109375
1.53076171875
1.5573486328125
1.69189453125
1.6508056640625
1.5895751953125
1.5662109375
1.5509033203125
1.5533203125
1.5726562499999999
1.5412353515625
1.546875
1.5412353515625
1.558154296875
1.5355957031249998
1.533984375
1.5194824218749998
1.5364013671874999
1.6967285156249998
1.625830078125
1.561376953125
1.5541259765625
1.5404296874999999
1.509814453125
1.4437499999999999
1.43408203125
1.4518066406249999
1.4993408203124998
1.4896728515625
1.4816162109375
1.50498046875
1.5243164062499999
1.5202880859374999
1.5218994140625
1.51787109375
1.5267333984375
1.5251220703125
1.5412353515625
1.5380126953125
1.3623779296874998
1.490478515625
1.509814453125
1.5154541015624998
1.5323730468749999
1.56298828125
1.6290527343749999
1.6556396484375
1.6185791015625
1.5879638671874998
1.577490234375
1.5605712890624999
1.561376953125
1.545263671875
1.5525146484374999
1.5573486328125
1.5315673828124998
1.533984375
1.53720703125
1.546875
1.529150390625
1.67900390625
1.6403320312499998
1.5597656249999998
1.5565429687499999
1.5670166015625
1.5090087890625
1.4550292968749998
1.4590576171874998
1.445361328125
1.4630859374999998
1.493701171875
1.4896728515625
1.4800048828124999
1.5218994140625
1.522705078125
1.5073974609374998
1.51787109375
1.529150390625
1.5323730468749999
1.546875
1.5355957031249998
1.397021484375
1.4284423828125
1.4953124999999998
1.5041748046874999
1.5380126953125
1.5597656249999998
1.5847412109374999
1.6717529296875
1.622607421875
1.5799072265624998
1.5887695312499999
1.5734619140625
1.5686279296874999
1.5484863281249999
1.5605712890624999
1.5436523437499998
1.5412353515625
1.5194824218749998
1.5404296874999999
1.5533203125
1.5444580078124999
1.5726562499999999
1.62744140625
1.5541259765625
1.5589599609375
1.5525146484374999
1.509814453125
1.4896728515625
1.4558349609374999
1.4445556640625
1.4783935546875
1.4920898437499999
1.490478515625
1.4912841796874998
1.506591796875
1.52109375
1.529150390625
1.5194824218749998
1.5299560546875
1.5283447265624999
1.5428466796875
1.5275390624999998
1.405078125
1.4155517578124999
1.5146484375
1.509814453125
1.5315673828124998
1.5484863281249999
1.5637939453124998
1.6733642578124999
1.6298583984375
1.5992431640625
1.56943359375
1.5686279296874999
1.5766845703124999
1.5243164062499999
1.561376953125
1.53720703125
1.56298828125
1.533984375
1.5436523437499998
1.5323730468749999
1.5404296874999999
1.5565429687499999
1.7007568359374998
1.5589599609375
1.561376953125
1.5428466796875
1.53076171875
1.496923828125
1.4493896484375
1.43408203125
1.4880615234374999
1.4864501953125
1.4888671875
1.4832275390624998
1.490478515625
1.509814453125
1.5202880859374999
1.5251220703125
1.5347900390625
1.522705078125
1.5194824218749998
1.51787109375
1.5146484375
1.4074951171874999
1.5122314453124999
1.5146484375
1.5073974609374998
1.542041015625
1.5621826171875
1.6991455078125
1.6314697265625
1.5758789062499998
1.5662109375
1.5557373046874998
1.5533203125
1.5605712890624999
1.5645996093749999
1.554931640625
1.5492919921875
1.5404296874999999
1.5428466796875
1.5517089843749998
1.53076171875
1.5444580078124999
1.67900390625
1.5686279296874999
1.5597656249999998
1.5476806640624998
1.529150390625
1.5146484375
1.4864501953125
1.4461669921875
1.4622802734375
1.4783935546875
1.5001464843749999
1.5114257812499998
1.49853515625
1.5243164062499999
1.4993408203124998
1.5073974609374998
1.51787109375
1.5460693359375
1.533984375
1.5460693359375
1.533984375
1.3704345703124998
1.4928955078125
1.5025634765625
1.5033691406249998
1.5380126953125
1.5678222656249998
1.67900390625
1.6379150390625
1.587158203125
1.5799072265624998
1.558154296875
1.5573486328125
1.5662109375
1.5533203125
1.5436523437499998
1.558154296875
1.55009765625
1.5364013671874999
1.5404296874999999
1.5331787109375
1.5146484375
1.667724609375
1.5960205078124998
1.5525146484374999
1.5605712890624999
1.5525146484374999
1.513037109375
1.4493896484375
1.4308593749999998
1.4429443359374998
1.46953125
1.4880615234374999
1.5218994140625
1.4840332031249999
1.5194824218749998
1.5106201171875
1.5041748046874999
1.5283447265624999
1.5444580078124999
1.5202880859374999
1.5283447265624999
1.5331787109375
1.3639892578125
1.4655029296875
1.51787109375
1.5146484375
1.5299560546875
1.5517089843749998
1.6733642578124999
1.6475830078125
1.61455078125
1.5887695312499999
1.5670166015625
1.585546875
1.56298828125
1.5637939453124998
1.5670166015625
1.5404296874999999
1.5243164062499999
1.533984375
1.5323730468749999
1.5355957031249998
1.5235107421874998
1.638720703125
1.651611328125
1.5621826171875
1.5484863281249999
1.5509033203125
1.5033691406249998
1.45341796875
1.458251953125
1.4469726562499998
1.4767822265625
1.4759765624999999
1.4848388671875
1.5017578125
1.5243164062499999
1.5202880859374999
1.522705078125
1.5275390624999998
1.5299560546875
1.5347900390625
1.5243164062499999
1.5364013671874999
1.4171630859375
1.4356933593749999
1.51787109375
1.50498046875
1.5331787109375
1.5670166015625
1.59521484375
1.6894775390624999
1.6121337890624998
1.5879638671874998
1.561376953125
1.5589599609375
1.5670166015625
1.561376953125
1.5476806640624998
1.542041015625
1.5275390624999998
1.5380126953125
1.5275390624999998
1.5323730468749999
1.5404296874999999
1.6137451171875
1.6612792968749999
1.5726562499999999
1.5533203125
1.558154296875
1.5186767578125
1.5122314453124999
1.456640625
1.4469726562499998
1.4550292968749998
1.474365234375
1.5033691406249998
1.5017578125
1.5082031249999999
1.5057861328125
1.529150390625
1.5364013671874999
1.5283447265624999
1.52109375
1.5283447265624999
1.5412353515625
1.4542236328125
1.38896484375
1.5090087890625
1.5057861328125
1.5267333984375
1.5597656249999998
1.5637939453124998
1.6733642578124999
1.63388671875
1.5895751953125
1.587158203125
1.5791015625
1.5766845703124999
1.554931640625
1.5541259765625
1.5605712890624999
1.5436523437499998
1.53720703125
1.5492919921875
1.53720703125
1.5235107421874998
1.5315673828124998
1.6483886718749998
1.5573486328125
1.554931640625
1.554931640625
1.5243164062499999
1.5033691406249998
1.4558349609374999
1.4469726562499998
1.4413330078125
1.46953125
1.4953124999999998
1.5057861328125
1.4961181640624999
1.5082031249999999
1.53076171875
1.5186767578125
1.52109375
1.533984375
1.5235107421874998
1.533984375
1.4679199218749999
1.3946044921874998
1.5041748046874999
1.5017578125
1.525927734375
1.5444580078124999
1.5670166015625
1.6967285156249998
1.6161621093749998
1.5895751953125
1.571044921875
1.56298828125
1.546875
1.5605712890624999
1.5637939453124998
1.561376953125
1.5412353515625
1.529150390625
1.52109375
1.5299560546875
1.5428466796875
1.542041015625
1.6927001953124998
1.590380859375
1.554931640625
1.5637939453124998
1.546875
1.513037109375
1.445361328125
1.4590576171874998
1.4437499999999999
1.474365234375
1.4791992187499998
1.490478515625
1.5025634765625
1.5114257812499998
1.5275390624999998
1.525927734375
1.529150390625
1.5194824218749998
1.5412353515625
1.5347900390625
1.5323730468749999
1.3664062499999998
1.48564453125
1.5073974609374998
1.5186767578125
1.5347900390625
1.571044921875
1.6322753906249998
1.6653076171874999
1.5984375
1.59521484375
1.5782958984375
1.561376953125
1.558154296875
1.5476806640624998
1.5517089843749998
1.56298828125
1.5299560546875
1.5364013671874999
1.5444580078124999
1.53076171875
1.5243164062499999
1.6854492187499999
1.59521484375
1.5734619140625
1.5492919921875
1.542041015625
1.5082031249999999
1.4630859374999998
1.4469726562499998
1.4501953125
1.4767822265625
1.49853515625
1.4832275390624998
1.5001464843749999
1.5122314453124999
1.5122314453124999
1.5186767578125
1.5267333984375
1.5251220703125
1.5090087890625
1.525927734375
1.529150390625
1.3825195312499998
1.461474609375
1.5106201171875
1.522705078125
1.5154541015624998
1.56943359375
1.6395263671875
1.690283203125
1.6121337890624998
1.5662109375
1.5686279296874999
1.5533203125
1.5678222656249998
1.5533203125
1.542041015625
1.5517089843749998
1.5243164062499999
1.538818359375
1.53076171875
1.5460693359375
1.5275390624999998
1.6161621093749998
1.6089111328124999
1.5597656249999998
1.5589599609375
1.5347900390625
1.5073974609374998
1.4767822265625
1.4510009765624998
1.4622802734375
1.482421875
1.4864501953125
1.4888671875
1.49853515625
1.5146484375
1.5154541015624998
1.52109375
1.5162597656249999
1.529150390625
1.5347900390625
1.533984375
1.529150390625
1.38896484375
1.445361328125
1.5106201171875
1.5025634765625
1.5267333984375
1.5605712890624999
1.577490234375
1.674169921875
1.6056884765625
1.5799072265624998
1.5726562499999999
1.5670166015625
1.5654052734375
1.5645996093749999
1.5525146484374999
1.5412353515625
1.53720703125
1.5492919921875
1.538818359375
1.5476806640624998
1.5347900390625
1.577490234375
1.6556396484375
1.5678222656249998
1.5670166015625
1.5476806640624998
1.5243164062499999
1.4840332031249999
1.46630859375
1.4389160156249998
1.46630859375
1.46630859375
1.4880615234374999
1.4945068359375
1.5186767578125
1.5194824218749998
1.5243164062499999
1.5138427734375
1.53720703125
1.5243164062499999
1.5186767578125
1.5283447265624999
1.482421875
1.4437499999999999
1.5082031249999999
1.4993408203124998
1.5202880859374999
1.5509033203125
1.558154296875
1.670947265625
1.6330810546874999
1.6040771484374998
1.5791015625
1.5718505859374998
1.56298828125
1.5484863281249999
1.5460693359375
1.554931640625
1.5444580078124999
1.5396240234374998
1.5428466796875
1.5347900390625
1.5275390624999998
1.5654052734375
1.6862548828125
1.5895751953125
1.5637939453124998
1.55009765625
1.5331787109375
1.5057861328125
1.45341796875
1.4445556640625
1.4381103515625
1.4864501953125
1.4888671875
1.4953124999999998
1.509814453125
1.5251220703125
1.5154541015624998
1.513037109375
1.5380126953125
1.5380126953125
1.5404296874999999
1.5275390624999998
1.50498046875
1.38896484375
1.4961181640624999
1.5033691406249998
1.5186767578125
1.5460693359375
1.5637939453124998
1.6693359374999999
1.638720703125
1.6000488281249998
1.574267578125
1.5815185546875
1.56943359375
1.5509033203125
1.5331787109375
1.546875
1.5404296874999999
1.5396240234374998
1.5275390624999998
1.5436523437499998
1.542041015625
1.53720703125
1.662890625
1.571044921875
1.5750732421875
1.5557373046874998
1.5380126953125
1.5146484375
1.442138671875
1.44052734375
1.4574462890625
1.4767822265625
1.4791992187499998
1.5025634765625
1.5106201171875
1.5090087890625
1.5218994140625
1.529150390625
1.533984375
1.53076171875
1.5323730468749999
1.5364013671874999
1.5412353515625
1.3768798828125
1.4767822265625
1.51787109375
1.5057861328125
1.5396240234374998
1.56298828125
1.6701416015625
1.6508056640625
1.5968261718749999
1.5847412109374999
1.5525146484374999
1.55009765625
1.5686279296874999
1.5662109375
1.5557373046874998
1.554931640625
1.5396240234374998
1.53076171875
1.5380126953125
1.5251220703125
1.5243164062499999
1.6693359374999999
1.6242187499999998
1.55009765625
1.554931640625
1.5541259765625
1.5146484375
1.4477783203124999
1.4477783203124999
1.4542236328125
1.46953125
1.477587890625
1.4920898437499999
1.4993408203124998
1.5170654296875
1.5170654296875
1.538818359375
1.5315673828124998
1.53720703125
1.5275390624999998
1.5186767578125
1.5186767578125
1.400244140625
1.4783935546875
1.52109375
1.5025634765625
1.542041015625
1.5428466796875
1.609716796875
1.6886718749999998
1.6201904296874998
1.5887695312499999
1.5758789062499998
1.55009765625
1.5517089843749998
1.55009765625
1.5436523437499998
1.5364013671874999
1.554931640625
1.55009765625
1.5573486328125
1.53720703125
1.5283447265624999
1.6588623046875
1.6266357421875
1.5605712890624999
1.5573486328125
1.5436523437499998
1.5122314453124999
1.4832275390624998
1.4590576171874998
1.4445556640625
1.46630859375
1.4864501953125
1.5082031249999999
1.49853515625
1.5122314453124999
1.5057861328125
1.5146484375
1.5275390624999998
1.5380126953125
1.529150390625
1.5218994140625
1.5235107421874998
1.4107177734374998
1.4284423828125
1.5162597656249999
1.513037109375
1.5235107421874998
1.5444580078124999
1.5734619140625
1.6725585937499998
1.619384765625
1.60166015625
1.5621826171875
1.561376953125
1.561376953125
1.5412353515625
1.5525146484374999
1.546875
1.55009765625
1.5509033203125
1.5412353515625
1.5436523437499998
1.522705078125
1.53720703125
1.62744140625
1.5645996093749999
1.55009765625
1.546875
1.5073974609374998
1.4896728515625
1.4389160156249998
1.4429443359374998
1.4711425781249998
1.4953124999999998
1.5073974609374998
1.5057861328125
1.5122314453124999
1.5122314453124999
1.5283447265624999
1.5251220703125
1.5331787109375
1.5396240234374998
1.529150390625
1.5243164062499999
1.4373046875
1.426025390625
1.5009521484375
1.5090087890625
1.533984375
1.5557373046874998
1.5726562499999999
1.6612792968749999
1.61455078125
1.5895751953125
1.5807128906249999
1.5758789062499998
1.5573486328125
1.5621826171875
1.5380126953125
1.5476806640624998
1.554931640625
1.5460693359375
1.5492919921875
1.5396240234374998
1.5315673828124998
1.5283447265624999
1.6717529296875
1.5782958984375
1.5525146484374999
1.5734619140625
1.5380126953125
1.5009521484375
1.4381103515625
1.4518066406249999
1.458251953125
1.47275390625
1.4896728515625
1.50498046875
1.5082031249999999
1.53076171875
1.5364013671874999
1.5122314453124999
1.529150390625
1.529150390625
1.5380126953125
1.5436523437499998
1.5275390624999998
1.361572265625
1.506591796875
1.5033691406249998
1.5154541015624998
1.5396240234374998
1.5686279296874999
1.63388671875
1.6435546875
1.593603515625
1.577490234375
1.5670166015625
1.571044921875
1.5573486328125
1.5533203125
1.5557373046874998
1.5533203125
1.5509033203125
1.546875
1.5492919921875
1.5251220703125
1.53076171875
1.690283203125
1.574267578125
1.546875
1.5444580078124999
1.5364013671874999
1.513037109375
1.4469726562499998
1.4437499999999999
1.4574462890625
1.474365234375
1.482421875
1.509814453125
1.5017578125
1.5146484375
1.5218994140625
1.522705078125
1.5331787109375
1.5331787109375
1.5460693359375
1.5251220703125
1.5251220703125
1.37607421875
1.4679199218749999
1.513037109375
1.5162597656249999
1.5428466796875
1.5678222656249998
1.6588623046875
1.65
1.6105224609375
1.577490234375
1.5645996093749999
1.5509033203125
1.5645996093749999
1.5621826171875
1.5509033203125
1.5444580078124999
1.5364013671874999
1.5364013671874999
1.5436523437499998
1.533984375
1.5323730468749999
1.6169677734374999
1.585546875
1.554931640625
1.5541259765625
1.5428466796875
1.5154541015624998
1.4751708984374998
1.4526123046875
1.4461669921875
1.4848388671875
1.482421875
1.4993408203124998
1.5186767578125
1.51787109375
1.5170654296875
1.5170654296875
1.5315673828124998
1.5170654296875
1.5404296874999999
1.53076171875
1.533984375
1.3728515625
1.474365234375
1.50498046875
1.496923828125
1.525927734375
1.5621826171875
1.577490234375
1.6701416015625
1.6161621093749998
1.5839355468749998
1.5879638671874998
1.5589599609375
1.5533203125
1.5605712890624999
1.5621826171875
1.5436523437499998
1.538818359375
1.5396240234374998
1.55009765625
1.53076171875
1.5267333984375
1.6306640625
1.6290527343749999
1.5557373046874998
1.5476806640624998
1.545263671875
1.5146484375
1.4735595703125
1.4622802734375
1.4622802734375
1.482421875
1.4735595703125
1.49853515625
1.4961181640624999
1.5235107421874998
1.5218994140625
1.5146484375
1.5154541015624998
1.5275390624999998
1.5251220703125
1.545263671875
1.545263671875
1.4437499999999999
1.4590576171874998
1.5218994140625
1.5033691406249998
1.513037109375
1.5597656249999998
1.6048828124999999
1.6773925781249999
1.6137451171875
1.5750732421875
1.5573486328125
1.5637939453124998
1.546875
1.5509033203125
1.554931640625
1.558154296875
1.5484863281249999
1.5428466796875
1.542041015625
1.5251220703125
1.5436523437499998
1.6008544921874999
1.65966796875
1.5662109375
1.5573486328125
1.5509033203125
1.51787109375
1.4872558593749998
1.45341796875
1.4526123046875
1.4711425781249998
1.4832275390624998
1.5001464843749999
1.4993408203124998
1.506591796875
1.51787109375
1.5186767578125
1.5323730468749999
1.533984375
1.529150390625
1.533984375
1.5347900390625
1.4493896484375
1.397021484375
1.5017578125
1.5251220703125
1.5162597656249999
1.5444580078124999
1.574267578125
1.67900390625
1.6105224609375
1.5887695312499999
1.574267578125
1.5541259765625
1.5589599609375
1.5533203125
1.5525146484374999
1.5533203125
1.542041015625
1.545263671875
1.538818359375
1.538818359375
1.5444580078124999
1.545263671875
1.687060546875
1.56943359375
1.529150390625
1.545263671875
1.522705078125
1.5082031249999999
1.4574462890625
1.4526123046875
1.464697265625
1.4888671875
1.4953124999999998
1.5033691406249998
1.49853515625
1.506591796875
1.529150390625
1.5476806640624998
1.52109375
1.5114257812499998
1.5331787109375
1.5412353515625
1.5275390624999998
1.3978271484375
1.5082031249999999
1.5202880859374999
1.5073974609374998
1.5251220703125
1.554931640625
1.67578125
1.6435546875
1.5960205078124998
1.571044921875
1.5782958984375
1.5597656249999998
1.5597656249999998
1.542041015625
1.5565429687499999
1.5492919921875
1.5364013671874999
1.533984375
1.5396240234374998
1.546875
1.55009765625
1.6653076171874999
1.5927978515624999
1.5565429687499999
1.5605712890624999
1.5355957031249998
1.5057861328125
1.4518066406249999
1.4542236328125
1.4655029296875
1.4687255859375
1.493701171875
1.496923828125
1.496923828125
1.5218994140625
1.5186767578125
1.5017578125
1.5162597656249999
1.529150390625
1.538818359375
1.5347900390625
1.5476806640624998
1.4026611328124998
1.5025634765625
1.50498046875
1.506591796875
1.5235107421874998
1.56298828125
1.6290527343749999
1.658056640625
1.590380859375
1.5831298828125
1.56298828125
1.5509033203125
1.5541259765625
1.5597656249999998
1.5460693359375
1.5460693359375
1.533984375
1.533984375
1.5621826171875
1.5533203125
1.5460693359375
1.6669189453125
1.603271484375
1.558154296875
1.546875
1.5323730468749999
1.5146484375
1.4638916015624999
1.4501953125
1.4550292968749998
1.45341796875
1.4888671875
1.50498046875
1.5009521484375
1.5138427734375
1.5243164062499999
1.5154541015624998
1.53076171875
1.5396240234374998
1.542041015625
1.529150390625
1.5355957031249998
1.3954101562499999
1.4598632812499999
1.5146484375
1.5162597656249999
1.5275390624999998
1.5637939453124998
1.6153564453125
1.6572509765624999
1.5944091796875
1.577490234375
1.5799072265624998
1.5686279296874999
1.5565429687499999
1.55009765625
1.5331787109375
1.5533203125
1.5396240234374998
1.53720703125
1.5396240234374998
1.546875
1.533984375
1.590380859375
1.6056884765625
1.5517089843749998
1.5670166015625
1.53720703125
1.5073974609374998
1.4888671875
1.4638916015624999
1.456640625
1.474365234375
1.4888671875
1.506591796875
1.50498046875
1.5170654296875
1.529150390625
1.5267333984375
1.5186767578125
1.5243164062499999
1.5251220703125
1.5243164062499999
1.5315673828124998
1.400244140625
1.456640625
1.5154541015624998
1.5162597656249999
1.52109375
1.5541259765625
1.5702392578125
1.65966796875
1.6121337890624998
1.5766845703124999
1.5678222656249998
1.5718505859374998
1.5565429687499999
1.55009765625
1.56298828125
1.5573486328125
1.5396240234374998
1.5299560546875
1.5396240234374998
1.5444580078124999
1.5347900390625
1.5637939453124998
1.641943359375
1.5621826171875
1.5533203125
1.546875
1.5267333984375
1.4840332031249999
1.4598632812499999
1.461474609375
1.48564453125
1.4912841796874998
1.5033691406249998
1.5114257812499998
1.5090087890625
1.5162597656249999
1.51787109375
1.5315673828124998
1.5323730468749999
1.5315673828124998
1.533984375
1.5347900390625
1.51787109375
1.409912109375
1.5025634765625
1.5114257812499998
1.5057861328125
1.546875
1.5645996093749999
1.662890625
1.6137451171875
1.5791015625
1.5839355468749998
1.5726562499999999
1.5589599609375
1.5621826171875
1.5589599609375
1.5412353515625
1.533984375
1.5444580078124999
1.546875
1.53720703125
1.5557373046874998
1.5347900390625
1.654833984375
1.5645996093749999
1.55009765625
1.554931640625
1.51787109375
1.5033691406249998
1.4574462890625
1.458251953125
1.4590576171874998
1.49853515625
1.493701171875
1.5001464843749999
1.5090087890625
