1.5573486328125
1.5484863281249999
1.5082031249999999
1.4993408203124998
1.4800048828124999
1.4501953125
1.4598632812499999
1.4896728515625
1.4953124999999998
1.525927734375
1.5025634765625
1.5484863281249999
1.53076171875
1.5355957031249998
1.542041015625
1.554931640625
1.545263671875
1.5686279296874999
1.538818359375
1.42119140625
1.5106201171875
1.529150390625
1.5194824218749998
1.5404296874999999
1.5670166015625
1.6572509765624999
1.6346923828125
1.593603515625
1.5605712890624999
1.5726562499999999
1.5460693359375
1.5444580078124999
1.533984375
1.525927734375
1.5436523437499998
1.545263671875
1.53076171875
1.5355957031249998
1.5404296874999999
1.5323730468749999
1.63388671875
1.561376953125
1.5436523437499998
1.533984375
1.525927734375
1.50498046875
1.4832275390624998
1.4679199218749999
1.4735595703125
1.4872558593749998
1.5073974609374998
1.5017578125
1.5033691406249998
1.5267333984375
1.5364013671874999
1.5186767578125
1.5347900390625
1.5218994140625
1.5323730468749999
1.525927734375
1.5484863281249999
1.4074951171874999
1.490478515625
1.522705078125
1.5162597656249999
1.5299560546875
1.5573486328125
1.6403320312499998
1.6129394531249999
1.5645996093749999
1.5517089843749998
1.561376953125
1.5533203125
1.5517089843749998
1.5492919921875
1.5436523437499998
1.5347900390625
1.5492919921875
1.533984375
1.522705078125
1.5170654296875
1.5235107421874998
1.6363037109374998
1.5911865234375
1.554931640625
1.5444580078124999
1.5436523437499998
1.513037109375
1.4767822265625
1.4735595703125
1.4679199218749999
1.4912841796874998
1.4912841796874998
1.4993408203124998
1.513037109375
1.5106201171875
1.5025634765625
1.5380126953125
1.5331787109375
1.525927734375
1.5533203125
1.529150390625
1.5541259765625
1.4364990234375
1.4800048828124999
1.52109375
1.5106201171875
1.5436523437499998
1.5509033203125
1.6314697265625
1.6137451171875
1.5815185546875
1.5621826171875
1.53720703125
1.5637939453124998
1.5404296874999999
1.538818359375
1.545263671875
1.5476806640624998
1.53076171875
1.529150390625
1.5428466796875
1.5347900390625
1.5355957031249998
1.5944091796875
1.6209960937499999
1.554931640625
1.5492919921875
1.5492919921875
1.506591796875
1.5033691406249998
1.4767822265625
1.4606689453125
1.4816162109375
1.4961181640624999
1.4953124999999998
1.5033691406249998
1.5194824218749998
1.5283447265624999
1.5347900390625
1.5194824218749998
1.5299560546875
1.5299560546875
1.542041015625
1.545263671875
1.4389160156249998
1.4558349609374999
1.5138427734375
1.5235107421874998
1.5396240234374998
1.5428466796875
1.590380859375
1.6411376953124999
1.5944091796875
1.5734619140625
1.5565429687499999
1.554931640625
1.55009765625
1.5444580078124999
1.5404296874999999
1.545263671875
1.53076171875
1.5364013671874999
1.5404296874999999
1.5380126953125
1.5251220703125
1.5355957031249998
1.6290527343749999
1.5573486328125
1.5347900390625
1.558154296875
1.5025634765625
1.4840332031249999
1.490478515625
1.4880615234374999
1.482421875
1.4961181640624999
1.4977294921875
1.5057861328125
1.49853515625
1.53720703125
1.5202880859374999
1.5243164062499999
1.51787109375
1.522705078125
1.529150390625
1.5404296874999999
1.522705078125
1.4477783203124999
1.513037109375
1.509814453125
1.5283447265624999
1.5541259765625
1.5791015625
1.6443603515624998
1.5911865234375
1.5662109375
1.5637939453124998
1.5380126953125
1.5533203125
1.546875
1.5218994140625
1.5476806640624998
1.5380126953125
1.525927734375
1.5412353515625
1.5299560546875
1.5347900390625
1.5331787109375
1.6451660156249999
1.5766845703124999
1.533984375
1.5476806640624998
1.5283447265624999
1.5090087890625
1.474365234375
1.4759765624999999
1.4896728515625
1.4872558593749998
1.5025634765625
1.50498046875
1.5275390624999998
1.5235107421874998
1.5243164062499999
1.513037109375
1.5436523437499998
1.542041015625
1.545263671875
1.5380126953125
1.51787109375
1.4381103515625
1.5082031249999999
1.5106201171875
1.52109375
1.5533203125
1.546875
1.6645019531249998
1.603271484375
1.5678222656249998
1.5782958984375
1.5597656249999998
1.558154296875
1.53720703125
1.53720703125
1.5347900390625
1.5436523437499998
1.5404296874999999
1.5476806640624998
1.5323730468749999
1.5355957031249998
1.5218994140625
1.6322753906249998
1.585546875
1.5573486328125
1.5428466796875
1.5267333984375
1.522705078125
1.482421875
1.4703369140625
1.46953125
1.5033691406249998
1.5114257812499998
1.4945068359375
1.5073974609374998
1.51787109375
1.5275390624999998
1.5218994140625
1.5323730468749999
1.53720703125
1.525927734375
1.5331787109375
1.5404296874999999
1.4332763671875
1.4816162109375
1.5114257812499998
1.5364013671874999
1.5412353515625
1.5509033203125
1.6177734375
1.6298583984375
1.5766845703124999
1.554931640625
1.5637939453124998
1.5315673828124998
1.5380126953125
1.56298828125
1.5476806640624998
1.533984375
1.53076171875
1.5404296874999999
1.5315673828124998
1.533984375
1.5323730468749999
1.60166015625
1.58232421875
1.554931640625
1.5444580078124999
1.5396240234374998
1.5243164062499999
1.4896728515625
1.4767822265625
1.46953125
1.4912841796874998
1.506591796875
1.49853515625
1.5186767578125
1.513037109375
1.5251220703125
1.5315673828124998
1.5267333984375
1.5323730468749999
1.538818359375
1.5355957031249998
1.5315673828124998
1.4244140625
1.5001464843749999
1.5267333984375
1.5146484375
1.525927734375
1.545263671875
1.5839355468749998
1.6201904296874998
1.5839355468749998
1.5726562499999999
1.554931640625
1.55009765625
1.538818359375
1.546875
1.5412353515625
1.55009765625
1.5436523437499998
1.5492919921875
1.5380126953125
1.53720703125
1.53076171875
1.5919921874999998
1.6129394531249999
1.5404296874999999
1.55009765625
1.5492919921875
1.51787109375
1.4816162109375
1.47275390625
1.4703369140625
1.5009521484375
1.5017578125
1.5170654296875
1.4928955078125
1.5114257812499998
1.52109375
1.5275390624999998
1.5146484375
1.5436523437499998
1.5444580078124999
1.5364013671874999
1.53720703125
1.464697265625
1.4558349609374999
1.5041748046874999
1.5186767578125
1.5315673828124998
1.5484863281249999
1.585546875
1.6451660156249999
1.585546875
1.5670166015625
1.545263671875
1.55009765625
1.546875
1.5323730468749999
1.5509033203125
1.5484863281249999
1.5275390624999998
1.5428466796875
1.5364013671874999
1.542041015625
1.5283447265624999
1.5396240234374998
1.611328125
1.5597656249999998
1.5589599609375
1.522705078125
1.522705078125
1.4872558593749998
1.4783935546875
1.4864501953125
1.48564453125
1.4945068359375
1.50498046875
1.5138427734375
1.5162597656249999
1.5251220703125
1.5267333984375
1.51787109375
1.5299560546875
1.5404296874999999
1.5404296874999999
1.533984375
1.4671142578124998
1.4373046875
1.509814453125
1.513037109375
1.5186767578125
1.5525146484374999
1.558154296875
1.6250244140624999
1.5976318359375
1.58232421875
1.5597656249999998
1.5605712890624999
1.542041015625
1.538818359375
1.5460693359375
1.542041015625
1.5323730468749999
1.53720703125
1.5251220703125
1.5355957031249998
1.542041015625
1.5315673828124998
1.6306640625
1.5404296874999999
1.55009765625
1.5436523437499998
1.5194824218749998
1.5033691406249998
1.5001464843749999
1.4816162109375
1.482421875
1.4928955078125
1.5057861328125
1.5218994140625
1.509814453125
1.5186767578125
1.5218994140625
1.529150390625
1.5267333984375
1.529150390625
1.522705078125
1.5283447265624999
1.53076171875
1.445361328125
1.509814453125
1.5138427734375
1.5106201171875
1.5444580078124999
1.5605712890624999
1.6411376953124999
1.6040771484374998
1.5726562499999999
1.5557373046874998
1.5509033203125
1.5476806640624998
1.55009765625
1.5428466796875
1.542041015625
1.525927734375
1.542041015625
1.529150390625
1.5412353515625
1.5315673828124998
1.529150390625
1.6121337890624998
1.5927978515624999
1.5428466796875
1.5404296874999999
1.5428466796875
1.52109375
1.4945068359375
1.4848388671875
1.482421875
1.4840332031249999
1.4953124999999998
1.5082031249999999
1.5146484375
1.5404296874999999
1.5186767578125
1.5170654296875
1.5412353515625
1.53076171875
1.5315673828124998
1.5380126953125
1.53076171875
1.4284423828125
1.4993408203124998
1.5154541015624998
1.5235107421874998
1.5380126953125
1.5702392578125
1.622607421875
1.61455078125
1.5766845703124999
1.5662109375
1.546875
1.5654052734375
1.5509033203125
1.5315673828124998
1.538818359375
1.5323730468749999
1.545263671875
1.5355957031249998
1.5331787109375
1.522705078125
1.529150390625
1.6121337890624998
1.5807128906249999
1.5525146484374999
1.5541259765625
1.5323730468749999
1.5194824218749998
1.493701171875
1.4671142578124998
1.4791992187499998
1.4945068359375
1.5146484375
1.5138427734375
1.5194824218749998
1.5243164062499999
1.5138427734375
1.5283447265624999
1.5243164062499999
1.5404296874999999
1.5444580078124999
1.5315673828124998
1.5364013671874999
1.4308593749999998
1.4912841796874998
1.5033691406249998
1.5202880859374999
1.538818359375
1.5517089843749998
1.5976318359375
1.611328125
1.5839355468749998
1.56943359375
1.5573486328125
1.554931640625
1.5573486328125
1.5460693359375
1.5492919921875
1.5347900390625
1.5444580078124999
1.5347900390625
1.5315673828124998
1.5347900390625
1.5428466796875
1.5670166015625
1.59521484375
1.5509033203125
1.5412353515625
1.5476806640624998
1.5138427734375
1.48564453125
1.4783935546875
1.4816162109375
1.4896728515625
1.4993408203124998
1.493701171875
1.5057861328125
1.533984375
1.5218994140625
1.5170654296875
1.5267333984375
1.538818359375
1.5315673828124998
1.5355957031249998
1.533984375
1.4800048828124999
1.4703369140625
1.5162597656249999
1.513037109375
1.5275390624999998
1.5492919921875
1.5766845703124999
1.6330810546874999
1.5839355468749998
1.5662109375
1.554931640625
1.5355957031249998
1.5573486328125
1.5517089843749998
1.5412353515625
1.5347900390625
1.545263671875
1.53076171875
1.538818359375
1.538818359375
1.5315673828124998
1.5573486328125
1.6209960937499999
1.5605712890624999
1.5541259765625
1.533984375
1.51787109375
1.49853515625
1.4896728515625
1.4550292968749998
1.4880615234374999
1.4961181640624999
1.5106201171875
1.51787109375
1.5090087890625
1.5194824218749998
1.5267333984375
1.529150390625
1.5347900390625
1.5380126953125
1.5275390624999998
1.5444580078124999
1.4888671875
1.4413330078125
1.5162597656249999
1.525927734375
1.5251220703125
1.558154296875
1.5573486328125
1.641943359375
1.5984375
1.55009765625
1.5565429687499999
1.5621826171875
1.538818359375
1.5460693359375
1.5428466796875
1.5533203125
1.545263671875
1.529150390625
1.5331787109375
1.5355957031249998
1.5347900390625
1.5444580078124999
1.6363037109374998
1.5476806640624998
1.5557373046874998
1.5396240234374998
1.522705078125
1.4977294921875
1.4928955078125
1.4735595703125
1.4888671875
1.493701171875
1.5001464843749999
1.5122314453124999
1.5033691406249998
1.533984375
1.5283447265624999
1.533984375
1.5251220703125
1.53076171875
1.5404296874999999
1.53720703125
1.5073974609374998
1.4469726562499998
1.5114257812499998
1.513037109375
1.5162597656249999
1.5347900390625
1.55009765625
1.6282470703124998
1.6000488281249998
1.5863525390625
1.5654052734375
1.5525146484374999
1.5509033203125
1.5565429687499999
1.5412353515625
1.5444580078124999
1.5476806640624998
1.5154541015624998
1.5404296874999999
1.533984375
1.538818359375
1.5347900390625
1.625830078125
1.5484863281249999
1.5460693359375
1.542041015625
1.533984375
1.5154541015624998
1.4912841796874998
1.4751708984374998
1.4735595703125
1.4945068359375
1.509814453125
1.522705078125
1.5186767578125
1.525927734375
1.522705078125
1.525927734375
1.5299560546875
1.529150390625
1.525927734375
1.533984375
1.5396240234374998
1.43408203125
1.4872558593749998
1.5218994140625
1.5315673828124998
1.538818359375
1.5533203125
1.6242187499999998
1.58232421875
1.5750732421875
1.56943359375
1.5597656249999998
1.5565429687499999
1.5444580078124999
1.545263671875
1.5404296874999999
1.5444580078124999
1.5404296874999999
1.5428466796875
1.522705078125
1.522705078125
1.53076171875
1.6209960937499999
1.590380859375
1.5509033203125
1.546875
1.55009765625
1.5186767578125
1.4896728515625
1.4767822265625
1.46630859375
1.5138427734375
1.5082031249999999
1.5001464843749999
1.506591796875
1.5162597656249999
1.51787109375
1.5001464843749999
1.5436523437499998
1.5509033203125
1.5380126953125
1.5436523437499998
1.5444580078124999
1.442138671875
1.4920898437499999
1.5194824218749998
1.5114257812499998
1.5033691406249998
1.5404296874999999
1.5895751953125
1.6314697265625
1.56943359375
1.5557373046874998
1.5597656249999998
1.5662109375
1.5428466796875
1.5444580078124999
1.5557373046874998
1.542041015625
1.53076171875
1.5243164062499999
1.538818359375
1.542041015625
1.5331787109375
1.5662109375
1.606494140625
1.5436523437499998
1.5283447265624999
1.5355957031249998
1.5235107421874998
1.4880615234374999
1.4920898437499999
1.4751708984374998
1.48564453125
1.4977294921875
1.506591796875
1.5041748046874999
1.5235107421874998
1.5243164062499999
1.5122314453124999
1.5396240234374998
1.525927734375
1.5218994140625
1.52109375
1.5154541015624998
1.416357421875
1.4413330078125
1.509814453125
1.5347900390625
1.5654052734375
1.5766845703124999
1.6242187499999998
1.6435546875
1.6121337890624998
1.5791015625
1.5766845703124999
1.5541259765625
1.5565429687499999
1.5275390624999998
1.5283447265624999
1.5202880859374999
1.5001464843749999
1.4961181640624999
1.5162597656249999
1.5033691406249998
1.5331787109375
1.558154296875
1.6121337890624998
1.5573486328125
1.5355957031249998
1.5347900390625
1.5235107421874998
1.50498046875
1.4759765624999999
1.4800048828124999
1.4864501953125
1.493701171875
1.51787109375
1.5194824218749998
1.4953124999999998
1.4945068359375
1.49853515625
1.5154541015624998
1.5243164062499999
1.5154541015624998
1.53720703125
1.5090087890625
1.4896728515625
1.44052734375
1.5106201171875
1.5009521484375
1.5283447265624999
1.5565429687499999
1.5557373046874998
1.6483886718749998
1.587158203125
1.5678222656249998
1.571044921875
1.5637939453124998
1.5428466796875
1.545263671875
1.561376953125
1.55009765625
1.5428466796875
1.5436523437499998
1.533984375
1.5364013671874999
1.5428466796875
1.5299560546875
1.6314697265625
1.5782958984375
1.5573486328125
1.5484863281249999
1.5347900390625
1.5138427734375
1.4896728515625
1.4679199218749999
1.48564453125
1.4993408203124998
1.5090087890625
1.5057861328125
1.51787109375
1.5331787109375
1.5299560546875
1.55009765625
1.5380126953125
1.5380126953125
1.5267333984375
1.5251220703125
1.5001464843749999
1.40830078125
1.509814453125
1.52109375
1.5138427734375
1.538818359375
1.5678222656249998
1.6725585937499998
1.65
1.611328125
1.593603515625
1.577490234375
1.561376953125
1.538818359375
1.5170654296875
1.5194824218749998
1.5654052734375
1.533984375
1.5122314453124999
1.5146484375
1.53076171875
1.546875
1.6725585937499998
1.603271484375
1.56298828125
1.558154296875
1.522705078125
1.5033691406249998
1.5090087890625
1.4510009765624998
1.46630859375
1.4751708984374998
1.4590576171874998
1.5033691406249998
1.5162597656249999
1.490478515625
1.5090087890625
1.5041748046874999
1.522705078125
1.5041748046874999
1.5114257812499998
1.525927734375
1.5380126953125
1.4195800781249999
1.5001464843749999
1.5122314453124999
1.4888671875
1.5017578125
1.5323730468749999
1.662890625
1.606494140625
1.5509033203125
1.53720703125
1.5299560546875
1.538818359375
1.5476806640624998
1.5396240234374998
1.5734619140625
1.5702392578125
1.5621826171875
1.5517089843749998
1.5251220703125
1.5243164062499999
1.5299560546875
1.6483886718749998
1.635498046875
1.5323730468749999
1.5364013671874999
1.5460693359375
1.5541259765625
1.5033691406249998
1.4590576171874998
1.5122314453124999
1.5033691406249998
1.4800048828124999
1.4759765624999999
1.445361328125
1.4848388671875
1.4993408203124998
1.474365234375
1.55009765625
1.5347900390625
1.5476806640624998
1.5750732421875
1.5484863281249999
1.4147460937499998
1.458251953125
1.5057861328125
1.5114257812499998
1.5404296874999999
1.5766845703124999
1.6701416015625
1.6532226562499999
1.5831298828125
1.56298828125
1.5662109375
1.5492919921875
1.5525146484374999
1.5645996093749999
1.5541259765625
1.5670166015625
1.5315673828124998
1.5162597656249999
1.5557373046874998
1.5412353515625
1.5436523437499998
1.667724609375
1.6459716796875
1.5243164062499999
1.55009765625
1.546875
1.529150390625
1.46630859375
1.4606689453125
1.4526123046875
1.4783935546875
1.4687255859375
1.464697265625
1.4244140625
1.506591796875
1.53076171875
1.5654052734375
1.5484863281249999
1.5782958984375
1.5573486328125
1.5267333984375
1.538818359375
1.3929931640625
1.4429443359374998
1.4920898437499999
1.5041748046874999
1.5275390624999998
1.5782958984375
1.622607421875
1.7088134765624998
1.6645019531249998
1.5968261718749999
1.5791015625
1.5718505859374998
1.5750732421875
1.554931640625
1.525927734375
1.5106201171875
1.5170654296875
1.533984375
1.5533203125
1.56298828125
1.5299560546875
1.53720703125
1.7088134765624998
1.5839355468749998
1.574267578125
1.5517089843749998
1.51787109375
1.4598632812499999
1.3897705078125
1.448583984375
1.4888671875
1.5380126953125
1.4888671875
1.5194824218749998
1.496923828125
1.5412353515625
1.5517089843749998
1.5686279296874999
1.5315673828124998
1.5025634765625
1.5275390624999998
1.4912841796874998
1.3712402343749999
1.3688232421875
1.4550292968749998
1.5114257812499998
1.480810546875
1.5758789062499998
1.6081054687499998
1.8071044921875
1.6564453124999998
1.5911865234375
1.5090087890625
1.4840332031249999
1.4961181640624999
1.5283447265624999
1.49853515625
1.50498046875
1.509814453125
1.5347900390625
1.5460693359375
1.525927734375
1.51787109375
1.5243164062499999
1.7603759765625
1.66611328125
1.6314697265625
1.5992431640625
1.545263671875
1.4364990234375
1.3502929687499998
1.3220947265624998
1.348681640625
1.38896484375
1.4373046875
1.474365234375
1.4461669921875
1.5090087890625
1.5025634765625
1.42119140625
1.5033691406249998
1.4735595703125
1.496923828125
1.5662109375
1.53076171875
1.1077880859375
1.2987304687499999
1.40185546875
1.4034667968749999
1.4622802734375
1.658056640625
1.9867675781249998
1.9013671875
1.8425537109374999
1.7015624999999999
1.6910888671875
1.6250244140624999
1.590380859375
1.5484863281249999
1.5283447265624999
1.5573486328125
1.5154541015624998
1.5267333984375
1.506591796875
1.4638916015624999
1.538818359375
2.0375244140624997
1.8224121093749999
1.73056640625
1.73056640625
1.6604736328124998
1.53076171875
1.3768798828125
1.1939941406249999
1.12470703125
1.1287353515625
1.2318603515625
1.271337890625
1.3664062499999998
1.4679199218749999
1.5331787109375
1.5364013671874999
1.5283447265624999
1.67900390625
1.651611328125
1.6564453124999998
1.5170654296875
0.7871337890625
0.9555175781249999
1.2254150390625
1.2930908203125
1.3881591796875
1.603271484375
2.19140625
2.1720703125
2.0842529296875
1.9440673828125
1.851416015625
1.7781005859374999
1.7128417968749998
1.6443603515624998
1.6685302734374998
1.7176757812499999
1.611328125
1.56943359375
1.490478515625
1.4389160156249998
1.5114257812499998
2.1487060546875
2.2502197265625
2.1221191406249997
1.90458984375
1.7418457031249999
1.5726562499999999
1.16015625
0.913623046875
0.8419189453125
0.9410156249999999
1.013525390625
1.1835205078125
1.1859374999999999
1.2785888671874999
1.3301513671874998
1.3462646484374998
1.4687255859375
1.4638916015624999
1.5645996093749999
1.5758789062499998
1.529150390625
0.6098876953125
0.5679931640625
0.6775634765624999
0.8531982421875
1.07958984375
1.3100097656249998
2.3630126953125
2.505615234375
2.4991699218749996
2.4596923828125
2.231689453125
2.0504150390625
1.9706542968749998
1.8506103515624999
1.7257324218749999
1.6451660156249999
1.699951171875
1.5315673828124998
1.53720703125
1.5517089843749998
1.56298828125
2.3839599609374997
2.914892578125
2.9543701171874996
3.0349365234374996
3.0325195312499997
2.802099609375
2.3678466796874997
2.0165771484375
1.4469726562499998
0.9563232421875
0.7001220703125
0.48178710937499997
0.2666748046875
0.09426269531249999
0.033837890625
0.033837890625
0.0555908203125
0.0362548828125
0.02900390625
0.1458251953125
0.285205078125
0.033032226562499996
0.0298095703125
0.02578125
0.0298095703125
0.026586914062499998
0.026586914062499998
1.0006347656249999
1.5887695312499999
1.94970703125
2.05283203125
2.1873779296875
2.2469970703124997
2.4790283203124996
2.5813476562499997
2.5475097656249996
2.5571777343749997
2.4709716796875
2.360595703125
2.2260498046875
2.1487060546875
2.0971435546875
2.3146728515625
3.029296875
3.0333251953125
3.0317138671875
3.0325195312499997
3.029296875
2.8472167968749997
2.2760009765625
1.8167724609375
1.456640625
1.18271484375
0.8435302734375
0.6227783203124999
0.38671875
0.31340332031249996
0.19094238281249998
0.2183349609375
0.2102783203125
0.3101806640625
0.3520751953125
0.3714111328125
0.0298095703125
0.030615234374999998
0.0346435546875
0.0298095703125
0.0314208984375
0.030615234374999998
0.03544921875
1.2439453125
1.6282470703124998
1.88525390625
2.2695556640625
2.3178955078125
2.4371337890625
2.5418701171875
2.5894042968749997
2.5088378906249997
2.5555664062499996
2.4814453125
2.41376953125
2.3468994140625
2.3477050781249997
2.255859375
3.0325195312499997
3.0317138671875
3.0325195312499997
3.0325195312499997
3.0325195312499997
2.8456054687499996
2.65869140625
2.0713623046875
1.5557373046874998
1.1674072265625
0.8773681640625
0.6695068359374999
0.41330566406249997
0.43747558593749997
0.3021240234375
0.1506591796875
0.24895019531249998
0.3150146484375
0.3826904296875
0.5051513671875
0.3440185546875
0.0298095703125
0.03544921875
0.026586914062499998
0.0322265625
0.033837890625
0.027392578124999997
1.0594482421875
1.6008544921874999
2.0407470703125
2.2623046875
2.2937255859375
2.479833984375
2.5845703125
2.5636230468749996
2.5491210937499997
2.576513671875
2.6643310546874996
2.5555664062499996
2.43310546875
2.2921142578125
2.1744873046874997
3.0357421875
3.0325195312499997
3.0325195312499997
3.034130859375
3.0349365234374996
3.0333251953125
2.7755126953125
2.077001953125
1.5436523437499998
1.0787841796875
0.7669921875
0.4471435546875
0.2344482421875
0.143408203125
0.030615234374999998
0.0314208984375
0.16032714843749998
0.22075195312499998
0.2908447265625
0.410888671875
0.456005859375
0.0298095703125
0.026586914062499998
0.0298095703125
0.0314208984375
0.0298095703125
0.0298095703125
0.48662109374999996
1.456640625
1.7877685546875
2.03994140625
2.07861328125
2.263916015625
2.28486328125
2.4049072265625
2.4081298828124997
2.4290771484375
2.437939453125
2.384765625
2.3082275390625
2.325146484375
2.2171875
3.0309082031249996
3.034130859375
3.0365478515624997
3.0333251953125
3.0317138671875
3.0317138671875
2.8641357421875
2.3783203125
1.848193359375
1.316455078125
1.02158203125
0.8483642578124999
0.620361328125
0.45439453124999996
0.3681884765625
0.356103515625
0.42216796874999996
0.3359619140625
0.4125
0.5220703125
0.6090820312499999
0.0298095703125
0.0249755859375
0.030615234374999998
0.0281982421875
0.026586914062499998
0.02578125
0.330322265625
1.1859374999999999
1.5533203125
2.0085205078125
2.215576171875
2.2663330078125
2.29453125
2.4403564453124997
2.4274658203125
2.5031982421874996
2.42666015625
2.302587890625
2.2631103515624997
2.22041015625
2.1954345703125
2.4234375
3.0325195312499997
3.0325195312499997
3.0325195312499997
3.0317138671875
3.0325195312499997
3.0333251953125
2.5595947265624996
1.9601806640625
1.5194824218749998
1.2511962890625
1.1029541015625
0.8854248046875
0.578466796875
0.581689453125
0.5067626953125
0.5132080078125
0.46647949218749996
0.44230957031249996
0.4487548828125
0.51884765625
0.1957763671875
0.02900390625
0.030615234374999998
0.030615234374999998
0.030615234374999998
0.030615234374999998
0.0298095703125
0.9716308593749999
1.5476806640624998
1.89169921875
2.07861328125
2.27197265625
2.354150390625
2.2631103515624997
2.26552734375
2.3420654296875
2.3066162109375
2.3178955078125
2.3146728515625
2.2953369140624997
2.141455078125
2.135009765625
3.0325195312499997
3.0333251953125
3.0325195312499997
3.034130859375
3.0301025390625
3.0333251953125
2.7062255859374997
2.167236328125
1.7611816406249998
1.3204833984375
0.968408203125
0.8024414062499999
0.533349609375
0.38510742187499997
0.34160156249999996
0.31904296875
0.4004150390625
0.475341796875
0.49870605468749996
0.559130859375
0.5035400390625
0.030615234374999998
0.02900390625
0.02578125
0.02900390625
0.033032226562499996
0.0298095703125
0.710595703125
1.2995361328125
1.6967285156249998
2.0085205078125
2.125341796875
2.1454833984375
2.302587890625
2.32998046875
2.312255859375
2.333203125
2.3050048828125
2.27197265625
2.1785156249999997
2.0737792968749997
2.0165771484375
3.0268798828124996
3.0325195312499997
3.0301025390625
3.0325195312499997
3.0357421875
3.0333251953125
2.7126708984374996
2.2115478515625
1.6701416015625
1.2576416015624998
0.8765624999999999
0.588134765625
0.47050781249999996
0.4125
0.36093749999999997
0.3665771484375
0.4036376953125
0.42539062499999997
0.546240234375
0.6324462890625
0.69609375
0.0298095703125
0.0298095703125
0.0298095703125
0.0322265625
0.0298095703125
0.0298095703125
0.476953125
1.3551269531249999
1.8248291015625
1.996435546875
2.13984375
2.2880859375
2.2405517578125
2.273583984375
2.3146728515625
2.3396484374999997
2.399267578125
2.3396484374999997
2.3775146484375
2.2236328125
2.2832519531249997
3.0268798828124996
3.0284912109374997
3.0325195312499997
3.0317138671875
3.0317138671875
3.0381591796875
2.785986328125
2.4282714843749997
1.9875732421874999
1.6185791015625
1.229443359375
0.9812988281249999
0.775048828125
0.5849121093749999
0.5212646484375
0.476953125
0.5091796875
0.523681640625
0.5937744140625
0.671923828125
0.7500732421874999
0.02900390625
0.0298095703125
0.026586914062499998
0.0322265625
0.0298095703125
0.0298095703125
0.3391845703125
1.1698242187499999
1.606494140625
2.002880859375
2.225244140625
2.260693359375
2.3477050781249997
2.4991699218749996
2.521728515625
2.5305908203125
2.4927246093749997
2.44921875
2.43310546875
2.34287109375
2.2751953124999997
2.6216308593749997
3.0357421875
3.029296875
3.0333251953125
3.034130859375
3.029296875
3.0317138671875
2.4870849609374996
1.7692382812499998
1.3510986328124999
1.0256103515625
0.8104980468749999
0.4326416015625
0.29970703125
0.34482421874999997
0.291650390625
0.27634277343749997
0.3262939453125
0.46245117187499996
0.5953857421875
0.578466796875
0.0990966796875
0.030615234374999998
0.02900390625
0.026586914062499998
0.0298095703125
0.030615234374999998
0.0298095703125
0.6735351562499999
1.397021484375
1.8103271484374999
1.928759765625
2.1583740234374997
2.244580078125
2.3340087890625
2.2824462890625
2.3823486328125
2.3887939453125
2.289697265625
2.2236328125
2.147900390625
2.165625
2.3227294921875
3.0325195312499997
3.029296875
3.0325195312499997
3.0317138671875
3.034130859375
3.0325195312499997
2.6788330078125
2.0294677734374997
1.5492919921875
1.219775390625
0.8999267578125
0.700927734375
0.4004150390625
0.35771484374999996
0.26022949218749997
0.23525390624999998
0.23283691406249998
0.356103515625
0.42941894531249997
0.410888671875
0.3158203125
0.0298095703125
0.033032226562499996
0.033837890625
0.033032226562499996
0.0281982421875
0.027392578124999997
0.807275390625
1.3011474609375
1.7740722656249999
2.1132568359375
2.2494140625
2.3823486328125
2.5652343749999997
2.5064208984375
2.495947265625
2.4596923828125
2.39765625
2.39443359375
2.4596923828125
2.441162109375
2.3807373046875
3.0309082031249996
3.0301025390625
3.0309082031249996
3.0317138671875
3.0309082031249996
3.034130859375
2.7593994140625
2.280029296875
1.64677734375
1.3672119140624999
0.9740478515625
0.6421142578125
0.43505859375
0.38510742187499997
0.33193359375
0.31662597656249997
0.3101806640625
0.31259765624999997
0.375439453125
0.4487548828125
0.5341552734375
0.0298095703125
0.030615234374999998
0.026586914062499998
0.033837890625
0.02900390625
0.030615234374999998
0.38913574218749997
1.164990234375
1.6612792968749999
1.9795166015624999
2.244580078125
2.408935546875
2.4596923828125
2.5225341796875
2.47822265625
2.5402587890625
2.4854736328125
2.389599609375
2.41376953125
2.3759033203124997
2.3477050781249997
3.0333251953125
3.0317138671875
3.0317138671875
3.027685546875
3.0357421875
3.0365478515624997
2.908447265625
2.415380859375
1.941650390625
1.6129394531249999
1.1939941406249999
0.9240966796875
0.72509765625
0.555908203125
0.44794921875
0.5035400390625
0.6276123046875
0.5196533203125
0.5285156249999999
0.5857177734375
0.501123046875
0.02578125
0.0298095703125
0.0322265625
0.0314208984375
0.02900390625
0.02900390625
0.024169921875
1.0288330078124999
1.542041015625
1.85625
2.0979492187499997
2.2389404296874997
2.3557617187499997
2.4355224609375
2.51044921875
2.5724853515625
2.5354248046874996
2.4322998046874997
2.3235351562499997
2.32998046875
2.257470703125
2.7005859374999996
3.0365478515624997
3.0309082031249996
3.0268798828124996
3.034130859375
3.0301025390625
3.0244628906249997
2.4838623046875
1.9835449218749999
1.3631835937499999
1.0489746093749999
0.8096923828125
0.5132080078125
0.3262939453125
0.2860107421875
0.2989013671875
0.33193359375
0.4310302734375
0.39316406249999997
0.48581542968749997
0.5406005859374999
0.1007080078125
0.030615234374999998
0.0298095703125
0.030615234374999998
0.0298095703125
0.03544921875
0.0281982421875
0.93779296875
1.5911865234375
1.8328857421875
2.126953125
2.2743896484375
2.3694580078125
2.3694580078125
2.37509765625
2.3920166015624997
2.3477050781249997
2.341259765625
2.1487060546875
2.157568359375
2.11728515625
2.1245361328125
3.037353515625
3.02607421875
3.0357421875
3.0317138671875
3.0325195312499997
3.0268798828124996
2.52978515625
1.9295654296875
1.529150390625
1.1802978515625
0.7798828124999999
0.55751953125
0.38349609375
0.39396972656249996
0.34965820312499996
0.298095703125
0.3714111328125
0.420556640625
0.41008300781249996
0.47453613281249996
0.21914062499999998
0.026586914062499998
0.033032226562499996
0.027392578124999997
0.033032226562499996
0.0298095703125
0.0298095703125
0.7645751953125
1.2463623046874999
1.6483886718749998
1.8908935546874999
2.0181884765625
2.1785156249999997
2.2776123046875
2.3654296875
2.3783203125
2.3162841796875
2.3340087890625
2.3235351562499997
2.2937255859375
2.2598876953125
2.193017578125
3.0301025390625
3.029296875
3.034130859375
3.0333251953125
3.0317138671875
3.034130859375
2.7046142578124996
2.1696533203125
1.6266357421875
1.313232421875
1.0610595703124999
0.7943847656249999
0.4713134765625
0.3955810546875
0.3544921875
0.2860107421875
0.2940673828125
0.301318359375
0.38107910156249997
0.49467773437499996
0.44956054687499997
0.02578125
0.02900390625
0.0298095703125
0.0322265625
0.027392578124999997
0.02578125
0.3843017578125
1.0570312499999999
1.56943359375
1.7934082031249998
1.9521240234375
2.05927734375
2.255859375
2.34287109375
2.4041015624999997
2.4427734375
2.43955078125
2.3404541015625
2.392822265625
2.2663330078125
2.2187988281249997
3.0309082031249996
3.0284912109374997
3.027685546875
3.0325195312499997
3.027685546875
3.0309082031249996
2.9608154296875
2.4097412109375
1.9440673828125
1.545263671875
1.0981201171875
0.8080810546874999
0.5502685546875
0.4406982421875
0.410888671875
0.31743164062499996
0.3021240234375
0.2956787109375
0.3875244140625
0.4390869140625
0.5148193359375
0.0298095703125
0.03544921875
0.027392578124999997
0.027392578124999997
0.0322265625
0.027392578124999997
0.3359619140625
1.0320556640625
1.4622802734375
1.7611816406249998
1.972265625
2.196240234375
2.2832519531249997
2.3098388671875
2.3517333984374997
2.4226318359375
2.4999755859375
2.4935302734375
2.4242431640624997
2.3203125
2.36220703125
2.66513671875
3.027685546875
3.0389648437499996
3.0309082031249996
3.0333251953125
3.0309082031249996
3.0325195312499997
2.57490234375
2.022216796875
1.493701171875
1.1835205078125
1.0006347656249999
0.7637695312499999
0.6630615234374999
0.6574218749999999
0.5478515625
0.48662109374999996
0.5744384765625
0.5325439453124999
0.6163330078125
0.7476562499999999
0.18369140625
0.033837890625
0.0249755859375
0.026586914062499998
0.0298095703125
0.02900390625
0.02900390625
0.7798828124999999
1.4348876953124998
1.869140625
2.0665283203125
2.24619140625
2.29775390625
2.4306884765625
2.473388671875
2.4661376953125
2.4065185546875
2.3517333984374997
2.2018798828125
2.1978515625
2.176904296875
2.389599609375
3.029296875
3.029296875
3.0317138671875
3.0301025390625
3.0381591796875
3.0309082031249996
2.682861328125
2.0423583984375
1.6306640625
1.219775390625
0.9418212890625
0.6348632812499999
0.3714111328125
0.25620117187499997
0.23525390624999998
0.378662109375
0.554296875
0.523681640625
0.6243896484375
0.5526855468749999
0.18449707031249998
0.0298095703125
0.02578125
0.030615234374999998
0.024169921875
0.026586914062499998
0.02900390625
0.7871337890625
1.3075927734375
1.8377197265624998
2.09150390625
2.17529296875
2.334814453125
2.4363281249999997
2.47177734375
2.3775146484375
2.36865234375
2.3759033203124997
2.1519287109375
2.1390380859375
2.1922119140625
2.0262451171875
3.0317138671875
3.02607421875
3.027685546875
3.0333251953125
3.0309082031249996
3.0317138671875
2.72314453125
2.2888916015625
1.6024658203125
1.2568359375
0.87978515625
0.662255859375
0.472119140625
0.4068603515625
0.36174316406249996
0.275537109375
0.33676757812499997
0.3472412109375
0.4125
0.485009765625
0.5937744140625
0.033032226562499996
0.02900390625
0.0281982421875
0.030615234374999998
0.030615234374999998
0.0298095703125
0.5285156249999999
1.181103515625
1.6717529296875
1.8659179687499998
2.047998046875
2.173681640625
2.2260498046875
2.244580078125
2.3597900390624997
2.421826171875
2.3839599609374997
2.3742919921875
2.3130615234375
2.2365234375
2.2107421874999997
3.02607421875
3.0349365234374996
3.027685546875
3.029296875
3.0333251953125
3.0333251953125
2.8625244140625
2.3517333984374997
1.8626953124999999
1.5122314453124999
1.213330078125
0.95390625
0.829833984375
0.5663818359375
0.5212646484375
0.510791015625
0.54140625
0.523681640625
0.4648681640625
0.555908203125
0.60263671875
0.033837890625
0.0362548828125
0.0281982421875
0.0314208984375
0.030615234374999998
0.030615234374999998
0.23122558593749998
1.0594482421875
1.6137451171875
1.8385253906249999
2.0697509765624997
2.1261474609374997
2.1293701171875
2.2590820312499997
2.238134765625
2.289697265625
2.292919921875
2.24619140625
2.2308837890624997
2.1873779296875
2.20107421875
2.8206298828125
3.0301025390625
3.0325195312499997
3.0317138671875
3.0333251953125
3.0325195312499997
2.914892578125
2.68125
2.1309814453125
1.533984375
1.3156494140625
1.152099609375
0.720263671875
0.58330078125
0.46567382812499997
0.31904296875
0.34079589843749997
0.4439208984375
0.50595703125
0.5760498046875
0.6260009765625
0.033032226562499996
0.0298095703125
0.02578125
0.02900390625
0.026586914062499998
0.0322265625
0.02900390625
0.978076171875
1.6330810546874999
1.8522216796875
2.002880859375
2.1712646484375
2.2921142578125
2.415380859375
2.40732421875
2.3614013671875
2.4661376953125
2.4387451171875
2.43955078125
2.3452880859375
2.273583984375
2.5531494140624997
3.0325195312499997
3.0325195312499997
3.037353515625
3.0309082031249996
3.0333251953125
3.0317138671875
2.6216308593749997
1.90458984375
1.5380126953125
1.1545166015625
0.966796875
0.7774658203125
0.6034423828125
0.5228759765625
0.43425292968749996
0.436669921875
0.3585205078125
0.5003173828124999
0.472119140625
0.5551025390625
0.1039306640625
0.02900390625
0.0281982421875
0.0298095703125
0.033032226562499996
0.030615234374999998
0.0298095703125
0.8515869140625
1.348681640625
1.7015624999999999
1.9634033203124999
2.19140625
2.2341064453125
2.3557617187499997
2.386376953125
2.383154296875
2.38154296875
2.357373046875
2.3195068359374997
2.2663330078125
2.1728759765625
2.0874755859375
3.0333251953125
3.0325195312499997
3.0301025390625
3.0309082031249996
3.0470214843749996
3.0333251953125
2.8721923828125
2.3565673828125
1.7297607421874999
1.4139404296875
1.04736328125
0.829833984375
0.62197265625
0.47050781249999996
0.472119140625
0.45842285156249996
0.5551025390625
0.671923828125
0.6985107421875
0.9031494140624999
0.894287109375
0.0322265625
0.02578125
0.0298095703125
0.966796875
3.0309082031249996
3.0325195312499997
3.0325195312499997
3.0325195312499997
3.0325195312499997
3.0333251953125
3.029296875
3.027685546875
3.0333251953125
3.027685546875
3.0309082031249996
3.0325195312499997
3.0357421875
3.0365478515624997
3.029296875
3.0301025390625
3.034130859375
3.0317138671875
3.0325195312499997
3.0357421875
3.0309082031249996
3.0349365234374996
3.0325195312499997
3.0317138671875
3.0268798828124996
3.0325195312499997
3.0325195312499997
3.0325195312499997
3.0268798828124996
3.0333251953125
3.0333251953125
3.037353515625
3.0325195312499997
3.0284912109374997
3.0301025390625
3.0284912109374997
2.9382568359374996
3.029296875
3.0317138671875
3.0301025390625
3.0317138671875
2.7303955078124997
2.4556640625
1.9674316406249999
1.980322265625
1.6250244140624999
1.1851318359375
0.7178466796874999
0.639697265625
0.5196533203125
0.3633544921875
0.2747314453125
0.27634277343749997
0.30937499999999996
0.27634277343749997
0.2892333984375
0.36496582031249997
0.356103515625
0.40122070312499997
0.5647705078124999
0.7420166015624999
0.6251953124999999
0.5857177734375
0.562353515625
0.5196533203125
0.45036621093749996
0.5309326171875
0.5937744140625
0.5857177734375
0.6260009765625
0.7025390625
0.8483642578124999
0.8483642578124999
0.8523925781249999
0.8709228515624999
0.8870361328124999
0.903955078125
0.952294921875
0.9289306640624999
0.9756591796874999
0.9128173828124999
0.8548095703124999
0.9603515625
1.0062744140625
1.0570312499999999
1.1351806640625
1.158544921875
1.3921875
1.2890625
1.252001953125
1.2423339843749999
1.2076904296875
1.2374999999999998
1.2463623046874999
1.2656982421874998
1.284228515625
1.287451171875
1.268115234375
1.3027587890624999
1.3124267578125
1.300341796875
1.361572265625
1.5041748046874999
1.3881591796875
1.3704345703124998
1.38896484375
1.3261230468749998
1.3156494140625
1.2576416015624998
1.235888671875
1.2979248046874998
1.3583496093749998
1.3905761718749998
1.3744628906249998
1.353515625
1.3478759765625
1.3825195312499998
1.4091064453125
1.3817138671875
1.4010498046875
1.405078125
1.4348876953124998
1.4477783203124999
1.2850341796875
1.44052734375
1.44052734375
1.4679199218749999
1.4800048828124999
1.5122314453124999
1.658056640625
1.6427490234375
1.55009765625
1.5355957031249998
1.496923828125
1.5299560546875
1.52109375
1.522705078125
1.5073974609374998
1.50498046875
1.5025634765625
1.496923828125
1.51787109375
1.509814453125
1.5073974609374998
1.7088134765624998
1.6169677734374999
1.525927734375
1.5122314453124999
1.5017578125
1.464697265625
1.429248046875
1.393798828125
1.4300537109375
1.461474609375
1.477587890625
1.4953124999999998
1.5106201171875
1.5033691406249998
1.5057861328125
1.5033691406249998
1.5146484375
1.4896728515625
1.4888671875
1.5041748046874999
1.4888671875
1.364794921875
1.4542236328125
1.4590576171874998
1.4542236328125
1.5106201171875
1.5525146484374999
1.6814208984374999
1.6483886718749998
1.5839355468749998
1.561376953125
1.5114257812499998
1.5194824218749998
1.5323730468749999
1.5541259765625
1.5347900390625
1.513037109375
1.509814453125
1.5275390624999998
1.5267333984375
1.5218994140625
1.5170654296875
1.6371093749999999
1.61455078125
1.5557373046874998
1.5621826171875
1.5299560546875
1.4977294921875
1.47275390625
1.448583984375
1.47275390625
1.4719482421874999
1.4791992187499998
1.5041748046874999
1.5138427734375
1.5355957031249998
1.5299560546875
1.533984375
1.5533203125
1.5194824218749998
1.5275390624999998
1.525927734375
1.542041015625
1.4381103515625
1.46953125
1.529150390625
1.513037109375
1.5484863281249999
1.5831298828125
1.6266357421875
1.6572509765624999
1.5960205078124998
1.5750732421875
1.5517089843749998
1.5565429687499999
1.5662109375
1.5782958984375
1.5323730468749999
1.546875
1.5218994140625
1.5428466796875
1.538818359375
1.5267333984375
1.5347900390625
1.61455078125
1.585546875
1.5573486328125
1.5492919921875
1.546875
1.5090087890625
1.461474609375
1.4550292968749998
1.4671142578124998
1.4679199218749999
1.490478515625
1.4791992187499998
1.51787109375
1.5073974609374998
1.5033691406249998
1.5073974609374998
1.546875
1.5412353515625
1.522705078125
1.5170654296875
1.5275390624999998
1.4219970703125
1.4598632812499999
1.50498046875
1.4953124999999998
1.5146484375
1.5573486328125
1.6024658203125
1.6532226562499999
1.5879638671874998
1.558154296875
1.5645996093749999
1.554931640625
1.5364013671874999
1.533984375
1.5412353515625
1.5396240234374998
1.5355957031249998
1.5404296874999999
1.5267333984375
1.5275390624999998
1.5444580078124999
1.5460693359375
1.5992431640625
1.5573486328125
1.53720703125
1.53720703125
1.5082031249999999
1.4961181640624999
1.4800048828124999
1.4622802734375
1.4767822265625
1.4888671875
1.509814453125
1.5154541015624998
1.5162597656249999
1.5235107421874998
1.5299560546875
1.522705078125
1.542041015625
1.5315673828124998
1.5404296874999999
1.5460693359375
1.4493896484375
1.4469726562499998
1.5057861328125
1.506591796875
1.5218994140625
1.5484863281249999
1.5605712890624999
1.64677734375
1.5927978515624999
1.5815185546875
1.5299560546875
1.55009765625
1.5678222656249998
1.55009765625
1.5589599609375
1.5460693359375
1.51787109375
1.5162597656249999
1.5315673828124998
1.5235107421874998
1.5154541015624998
1.5404296874999999
1.6379150390625
1.5476806640624998
1.5670166015625
1.5517089843749998
1.5396240234374998
1.509814453125
1.477587890625
1.4655029296875
1.4719482421874999
1.48564453125
1.4993408203124998
1.496923828125
1.5267333984375
1.5106201171875
1.5315673828124998
1.5202880859374999
1.5412353515625
1.53076171875
1.542041015625
1.5170654296875
1.5033691406249998
1.4606689453125
1.493701171875
1.513037109375
1.5347900390625
1.5436523437499998
1.5565429687499999
1.6411376953124999
1.6121337890624998
1.5718505859374998
1.5637939453124998
1.5541259765625
1.5573486328125
1.5525146484374999
1.5299560546875
1.5315673828124998
1.5492919921875
1.538818359375
1.5460693359375
1.5323730468749999
1.53076171875
1.52109375
1.6209960937499999
1.5670166015625
1.5509033203125
1.5533203125
1.538818359375
1.5122314453124999
1.4800048828124999
1.456640625
1.4703369140625
1.4896728515625
1.5082031249999999
1.49853515625
1.5106201171875
1.5146484375
1.525927734375
1.52109375
1.5428466796875
1.5347900390625
1.5283447265624999
1.5364013671874999
1.5267333984375
1.416357421875
1.4832275390624998
1.506591796875
1.5218994140625
1.5484863281249999
1.5734619140625
1.6379150390625
1.6024658203125
1.5807128906249999
1.5605712890624999
1.5654052734375
1.561376953125
1.5517089843749998
1.5436523437499998
1.5428466796875
1.5323730468749999
1.5331787109375
1.538818359375
1.5404296874999999
1.5251220703125
1.53076171875
1.6282470703124998
1.5799072265624998
1.5517089843749998
1.5380126953125
1.529150390625
1.48564453125
1.477587890625
1.4735595703125
1.4630859374999998
1.480810546875
1.4928955078125
1.5001464843749999
1.4961181640624999
1.5275390624999998
1.522705078125
1.5267333984375
1.525927734375
1.5460693359375
1.5412353515625
1.545263671875
1.5162597656249999
1.4155517578124999
1.4920898437499999
1.5106201171875
1.5243164062499999
1.5275390624999998
1.571044921875
1.6403320312499998
1.6209960937499999
1.5839355468749998
1.5815185546875
1.5533203125
1.5621826171875
1.5476806640624998
1.542041015625
1.5412353515625
1.5380126953125
1.5396240234374998
1.5444580078124999
1.53720703125
1.5380126953125
1.542041015625
1.5863525390625
1.5831298828125
1.5476806640624998
1.5597656249999998
1.5412353515625
1.5106201171875
1.4759765624999999
1.474365234375
1.4735595703125
1.493701171875
1.496923828125
1.529150390625
1.513037109375
1.5283447265624999
1.5025634765625
1.5146484375
1.5243164062499999
1.5090087890625
1.5202880859374999
1.5283447265624999
1.5533203125
1.4429443359374998
1.4735595703125
1.5146484375
1.5106201171875
1.5202880859374999
1.5670166015625
1.5750732421875
1.6379150390625
1.5863525390625
1.5895751953125
1.5637939453124998
1.56298828125
1.56298828125
1.5484863281249999
1.53720703125
1.5444580078124999
1.538818359375
1.5380126953125
1.5380126953125
1.5347900390625
1.5202880859374999
1.5895751953125
1.611328125
1.56943359375
1.5492919921875
1.5396240234374998
1.5218994140625
1.480810546875
1.4735595703125
1.4759765624999999
1.4864501953125
1.5017578125
1.4945068359375
1.4993408203124998
1.522705078125
1.5243164062499999
1.5090087890625
1.5243164062499999
1.5347900390625
1.5267333984375
1.5364013671874999
1.5428466796875
1.46630859375
1.4389160156249998
1.5235107421874998
1.5106201171875
1.5146484375
1.542041015625
1.58232421875
1.6443603515624998
1.5992431640625
1.5686279296874999
1.5565429687499999
1.5605712890624999
1.5573486328125
1.546875
1.545263671875
1.538818359375
1.5444580078124999
1.5412353515625
1.5243164062499999
1.5509033203125
1.5364013671874999
1.5428466796875
1.6129394531249999
1.5654052734375
1.5517089843749998
1.5541259765625
1.5154541015624998
1.490478515625
1.4638916015624999
1.46630859375
1.4840332031249999
1.493701171875
1.4928955078125
1.509814453125
1.509814453125
1.5082031249999999
1.52109375
1.5380126953125
1.5428466796875
1.5331787109375
1.5476806640624998
1.5235107421874998
1.4896728515625
1.42119140625
1.5154541015624998
1.5082031249999999
1.5283447265624999
1.542041015625
1.542041015625
1.654833984375
1.6024658203125
1.5839355468749998
1.5533203125
1.5476806640624998
1.5476806640624998
1.5347900390625
1.5557373046874998
1.554931640625
1.5404296874999999
1.5275390624999998
1.545263671875
1.5299560546875
1.5299560546875
1.53076171875
1.6290527343749999
1.590380859375
1.5533203125
1.5347900390625
1.5323730468749999
1.5033691406249998
1.4896728515625
1.4719482421874999
1.4880615234374999
1.482421875
1.5001464843749999
1.5114257812499998
1.5106201171875
1.5073974609374998
1.5323730468749999
1.5323730468749999
1.53076171875
1.5347900390625
1.5114257812499998
1.5235107421874998
1.533984375
1.4445556640625
1.496923828125
1.4953124999999998
1.5106201171875
1.55009765625
1.5662109375
1.603271484375
1.6048828124999999
1.5839355468749998
1.5654052734375
1.5605712890624999
1.5396240234374998
1.5517089843749998
1.538818359375
1.5557373046874998
1.5476806640624998
1.5323730468749999
1.5436523437499998
1.5347900390625
1.538818359375
1.5476806640624998
1.6290527343749999
1.5702392578125
1.5565429687499999
1.5492919921875
1.5267333984375
1.5122314453124999
1.4840332031249999
1.4751708984374998
1.4888671875
1.4953124999999998
1.4800048828124999
1.4961181640624999
1.5162597656249999
1.5275390624999998
1.5073974609374998
1.538818359375
1.5428466796875
1.5299560546875
1.5331787109375
1.525927734375
1.5331787109375
1.442138671875
1.4953124999999998
1.5154541015624998
1.5114257812499998
1.5396240234374998
1.561376953125
1.6242187499999998
1.6234130859375
1.5944091796875
1.5533203125
1.5621826171875
1.5589599609375
1.5573486328125
1.5444580078124999
1.5331787109375
1.5283447265624999
1.5436523437499998
1.5484863281249999
1.5323730468749999
1.5275390624999998
1.5347900390625
1.5944091796875
1.5887695312499999
1.5412353515625
1.5283447265624999
1.538818359375
1.5218994140625
1.5025634765625
1.4751708984374998
1.46630859375
1.4832275390624998
1.493701171875
1.525927734375
1.4953124999999998
1.5194824218749998
1.5355957031249998
1.5170654296875
1.53720703125
1.542041015625
1.525927734375
1.538818359375
1.513037109375
1.4389160156249998
1.4630859374999998
1.52109375
1.5243164062499999
1.525927734375
1.545263671875
1.5702392578125
1.6403320312499998
1.5791015625
1.593603515625
1.5533203125
1.538818359375
1.545263671875
1.5396240234374998
1.5428466796875
1.545263671875
1.5444580078124999
1.522705078125
1.5275390624999998
1.5380126953125
1.5565429687499999
1.5605712890624999
1.606494140625
1.545263671875
1.5476806640624998
1.5509033203125
1.5162597656249999
1.496923828125
1.4622802734375
1.4832275390624998
1.490478515625
1.4953124999999998
1.5001464843749999
1.5017578125
1.5122314453124999
1.52109375
1.5315673828124998
1.5235107421874998
1.5525146484374999
1.5267333984375
1.5315673828124998
1.5299560546875
1.4759765624999999
1.458251953125
1.5114257812499998
1.5186767578125
1.5299560546875
1.5621826171875
1.5605712890624999
1.6250244140624999
1.5992431640625
1.5734619140625
1.5597656249999998
1.5605712890624999
1.554931640625
1.5509033203125
1.6000488281249998
1.554931640625
1.5267333984375
1.525927734375
1.5396240234374998
1.5444580078124999
1.5299560546875
1.554931640625
1.61455078125
1.55009765625
1.542041015625
1.5275390624999998
1.5082031249999999
1.506591796875
1.480810546875
1.4679199218749999
1.4783935546875
1.5114257812499998
1.5154541015624998
1.509814453125
1.5001464843749999
1.5162597656249999
1.5057861328125
1.5106201171875
1.529150390625
1.5525146484374999
1.538818359375
1.5355957031249998
1.5009521484375
1.4413330078125
1.5090087890625
1.5315673828124998
1.5251220703125
1.5460693359375
1.5670166015625
1.6371093749999999
1.6048828124999999
1.561376953125
1.56943359375
1.5597656249999998
1.5412353515625
1.554931640625
1.5476806640624998
1.5436523437499998
1.53720703125
1.525927734375
1.525927734375
1.5146484375
1.546875
1.5404296874999999
1.6346923828125
1.5621826171875
1.5404296874999999
1.5444580078124999
1.5436523437499998
1.5122314453124999
1.496923828125
1.4598632812499999
1.4848388671875
1.4912841796874998
1.4840332031249999
1.4953124999999998
1.4993408203124998
1.506591796875
1.5114257812499998
1.5267333984375
1.5106201171875
1.5299560546875
1.5323730468749999
1.5218994140625
1.5323730468749999
1.4300537109375
1.4993408203124998
1.5299560546875
1.5364013671874999
1.5331787109375
1.5734619140625
1.6089111328124999
1.6137451171875
1.5887695312499999
1.5589599609375
1.5492919921875
1.5557373046874998
1.529150390625
1.55009765625
1.5533203125
1.529150390625
1.5331787109375
1.52109375
1.5380126953125
1.5444580078124999
1.5460693359375
1.6209960937499999
1.587158203125
1.554931640625
1.53076171875
1.5428466796875
1.522705078125
1.4598632812499999
1.4783935546875
1.4783935546875
1.4880615234374999
1.5154541015624998
1.51787109375
1.5001464843749999
1.5243164062499999
1.5194824218749998
1.5315673828124998
1.5380126953125
1.5404296874999999
1.5275390624999998
1.5347900390625
1.5412353515625
1.448583984375
1.5041748046874999
1.529150390625
1.522705078125
1.5364013671874999
1.558154296875
1.6089111328124999
1.6153564453125
1.5782958984375
1.5444580078124999
1.5565429687499999
1.5573486328125
1.5428466796875
1.5444580078124999
1.5444580078124999
1.522705078125
1.5355957031249998
1.5347900390625
1.5396240234374998
1.5404296874999999
1.5355957031249998
1.6379150390625
1.590380859375
1.5396240234374998
1.533984375
1.5541259765625
1.5243164062499999
1.4526123046875
1.477587890625
1.4558349609374999
1.4896728515625
1.5154541015624998
1.52109375
1.5082031249999999
1.5057861328125
1.5331787109375
1.5267333984375
1.53720703125
1.5243164062499999
1.5218994140625
1.5251220703125
1.5533203125
1.4397216796874999
1.4711425781249998
1.5162597656249999
1.509814453125
1.5283447265624999
1.5484863281249999
1.6105224609375
1.6209960937499999
1.5718505859374998
1.5831298828125
1.5678222656249998
1.545263671875
1.558154296875
1.5541259765625
1.542041015625
1.5202880859374999
1.5355957031249998
1.5428466796875
1.554931640625
1.52109375
1.5396240234374998
1.5726562499999999
1.5992431640625
1.546875
1.5525146484374999
1.53720703125
1.522705078125
1.50498046875
1.4800048828124999
1.4719482421874999
1.5017578125
1.4945068359375
1.4961181640624999
1.506591796875
1.5041748046874999
1.5138427734375
1.5251220703125
1.5323730468749999
1.522705078125
1.52109375
1.5517089843749998
1.538818359375
1.448583984375
1.4679199218749999
1.5057861328125
1.5235107421874998
1.5299560546875
1.5597656249999998
1.554931640625
1.619384765625
1.6169677734374999
1.5887695312499999
1.5726562499999999
1.5645996093749999
1.5484863281249999
1.542041015625
1.5364013671874999
1.529150390625
1.554931640625
1.5267333984375
1.5404296874999999
1.533984375
1.5218994140625
1.5533203125
1.6161621093749998
1.5533203125
1.5492919921875
1.5412353515625
1.5315673828124998
1.5073974609374998
1.4993408203124998
1.4606689453125
1.48564453125
1.4872558593749998
1.51787109375
1.5025634765625
1.5138427734375
1.5162597656249999
1.5331787109375
1.5355957031249998
1.53720703125
1.5315673828124998
1.5251220703125
1.5396240234374998
1.5001464843749999
1.4373046875
1.5170654296875
1.5090087890625
1.5243164062499999
1.5380126953125
1.56298828125
1.6363037109374998
1.5927978515624999
1.5718505859374998
1.558154296875
1.5597656249999998
1.5380126953125
1.5476806640624998
1.545263671875
1.558154296875
1.5275390624999998
1.5355957031249998
1.5364013671874999
1.538818359375
1.5492919921875
1.5364013671874999
1.6290527343749999
1.5637939453124998
1.5476806640624998
1.5347900390625
1.5218994140625
1.5194824218749998
1.4751708984374998
1.4759765624999999
1.4783935546875
1.4953124999999998
1.5009521484375
1.5154541015624998
1.5138427734375
1.5380126953125
1.5275390624999998
1.5082031249999999
1.5267333984375
1.5396240234374998
1.5347900390625
1.5218994140625
1.5267333984375
1.4389160156249998
1.5001464843749999
1.5017578125
1.5251220703125
1.5476806640624998
1.5662109375
1.6306640625
1.6169677734374999
1.5702392578125
1.558154296875
1.5484863281249999
1.5460693359375
1.5605712890624999
1.542041015625
1.5283447265624999
1.533984375
1.538818359375
1.554931640625
1.5355957031249998
1.5235107421874998
1.5299560546875
1.6177734375
1.5517089843749998
1.5436523437499998
1.5412353515625
1.5412353515625
1.5114257812499998
1.4783935546875
1.4719482421874999
1.4888671875
1.496923828125
1.5025634765625
1.5170654296875
1.5235107421874998
1.5235107421874998
1.522705078125
1.52109375
1.522705078125
1.5428466796875
1.525927734375
1.53720703125
1.53720703125
1.4276367187499999
1.4888671875
1.5194824218749998
1.525927734375
1.525927734375
1.5436523437499998
1.58232421875
1.6306640625
1.5960205078124998
1.5678222656249998
1.55009765625
1.5380126953125
1.5605712890624999
1.5476806640624998
1.53720703125
1.545263671875
1.5323730468749999
1.5299560546875
1.5283447265624999
1.525927734375
1.5533203125
1.6137451171875
1.590380859375
1.533984375
1.533984375
1.5460693359375
1.5251220703125
1.482421875
1.4848388671875
1.46953125
1.4961181640624999
1.482421875
1.5082031249999999
1.5138427734375
1.513037109375
1.529150390625
1.5194824218749998
1.5355957031249998
1.5323730468749999
1.5347900390625
1.522705078125
1.522705078125
1.4413330078125
1.490478515625
1.5146484375
1.529150390625
1.52109375
1.5541259765625
1.5919921874999998
1.6129394531249999
1.5944091796875
1.5670166015625
1.5670166015625
1.5323730468749999
1.5525146484374999
1.5380126953125
1.545263671875
1.538818359375
1.5380126953125
1.5436523437499998
1.5404296874999999
1.5186767578125
1.5243164062499999
1.5831298828125
1.6024658203125
1.5460693359375
1.5412353515625
1.53720703125
1.52109375
1.4953124999999998
1.4864501953125
1.4920898437499999
1.4848388671875
1.5138427734375
1.5017578125
1.513037109375
1.522705078125
1.5299560546875
1.5162597656249999
1.5275390624999998
1.5283447265624999
1.529150390625
1.5323730468749999
1.5218994140625
1.4606689453125
1.4630859374999998
1.5106201171875
1.5106201171875
1.53076171875
1.546875
1.587158203125
1.6330810546874999
1.587158203125
1.5565429687499999
1.5670166015625
1.5597656249999998
1.5597656249999998
1.5517089843749998
1.5517089843749998
1.53720703125
1.5323730468749999
1.5436523437499998
1.545263671875
1.5283447265624999
1.5267333984375
1.5347900390625
1.6177734375
1.5509033203125
1.55009765625
1.5509033203125
1.5323730468749999
1.4953124999999998
1.4961181640624999
1.46630859375
1.4735595703125
1.49853515625
1.5106201171875
1.5194824218749998
1.5122314453124999
1.5138427734375
1.5082031249999999
1.545263671875
1.542041015625
1.522705078125
1.538818359375
1.5299560546875
1.5146484375
1.4510009765624998
1.5122314453124999
1.51787109375
1.5331787109375
1.5444580078124999
1.554931640625
1.622607421875
1.6040771484374998
1.5799072265624998
1.561376953125
1.56298828125
1.5557373046874998
1.5509033203125
1.5565429687499999
1.533984375
1.5355957031249998
1.5283447265624999
1.5235107421874998
1.5412353515625
1.5186767578125
1.5436523437499998
1.6218017578125
1.5758789062499998
1.5331787109375
1.5484863281249999
1.5355957031249998
1.5194824218749998
1.4711425781249998
1.4687255859375
1.46630859375
1.4872558593749998
1.4953124999999998
1.5106201171875
1.506591796875
1.5194824218749998
1.5202880859374999
1.525927734375
1.5235107421874998
1.5355957031249998
1.538818359375
1.5412353515625
1.5331787109375
1.4252197265625
1.5001464843749999
1.5154541015624998
1.5154541015624998
1.546875
1.5492919921875
1.6298583984375
1.60166015625
1.5799072265624998
1.5573486328125
1.56943359375
1.56298828125
1.5444580078124999
1.55009765625
1.5436523437499998
1.5315673828124998
1.5541259765625
1.5275390624999998
1.5275390624999998
1.53076171875
1.5347900390625
1.635498046875
1.5637939453124998
1.5364013671874999
1.5235107421874998
1.5476806640624998
1.5267333984375
1.4703369140625
1.477587890625
1.4888671875
1.50498046875
1.496923828125
1.513037109375
1.5009521484375
1.5267333984375
1.5162597656249999
1.5114257812499998
1.5364013671874999
1.5106201171875
1.5509033203125
1.542041015625
1.52109375
1.448583984375
1.482421875
1.5186767578125
1.5243164062499999
1.529150390625
1.5597656249999998
1.609716796875
1.635498046875
1.5702392578125
1.5702392578125
1.5484863281249999
1.5517089843749998
1.5428466796875
1.5460693359375
1.5492919921875
1.542041015625
1.5565429687499999
1.5460693359375
1.5364013671874999
1.53720703125
1.542041015625
1.611328125
1.5750732421875
1.5533203125
1.538818359375
1.5267333984375
1.509814453125
1.4864501953125
1.4719482421874999
1.4832275390624998
1.4896728515625
1.5106201171875
1.50498046875
1.50498046875
1.542041015625
1.5323730468749999
1.5138427734375
1.533984375
1.542041015625
1.5299560546875
1.529150390625
1.5412353515625
1.4300537109375
1.4791992187499998
1.5154541015624998
1.5090087890625
1.5364013671874999
1.5589599609375
1.574267578125
1.6282470703124998
1.5750732421875
1.5734619140625
1.5597656249999998
1.538818359375
1.5476806640624998
1.5476806640624998
1.53720703125
1.546875
1.53720703125
1.5444580078124999
1.5404296874999999
1.522705078125
1.5299560546875
1.5895751953125
1.6089111328124999
1.5492919921875
1.5517089843749998
1.53720703125
1.53076171875
1.4719482421874999
1.4848388671875
1.4783935546875
1.4888671875
1.4945068359375
1.4896728515625
1.496923828125
1.52109375
1.5323730468749999
1.5299560546875
1.52109375
1.5380126953125
1.5275390624999998
1.5275390624999998
1.525927734375
1.477587890625
1.397021484375
1.5267333984375
1.52109375
1.5331787109375
1.5444580078124999
1.5654052734375
1.622607421875
1.5927978515624999
1.554931640625
1.5637939453124998
1.558154296875
1.5573486328125
1.56943359375
1.5299560546875
1.5315673828124998
1.5476806640624998
1.53720703125
1.5355957031249998
1.5428466796875
1.5283447265624999
1.5766845703124999
1.61455078125
1.5597656249999998
1.5428466796875
1.5404296874999999
1.5194824218749998
1.496923828125
1.4848388671875
1.4711425781249998
1.4872558593749998
1.4920898437499999
1.5073974609374998
1.5138427734375
1.5114257812499998
1.51787109375
1.525927734375
1.52109375
1.533984375
1.5275390624999998
1.52109375
1.5364013671874999
1.496923828125
1.4501953125
1.509814453125
1.522705078125
1.5154541015624998
1.5589599609375
1.5645996093749999
1.61455078125
1.6024658203125
1.5726562499999999
1.5557373046874998
1.5589599609375
1.55009765625
1.5509033203125
1.542041015625
1.5404296874999999
1.5283447265624999
1.542041015625
1.5315673828124998
1.5412353515625
1.5275390624999998
1.5323730468749999
1.6153564453125
1.5597656249999998
1.5557373046874998
1.542041015625
1.522705078125
1.51787109375
1.48564453125
1.47275390625
1.4888671875
1.52109375
1.4864501953125
1.5114257812499998
1.5057861328125
1.522705078125
1.5323730468749999
1.513037109375
1.5412353515625
1.529150390625
1.5299560546875
1.5267333984375
1.5355957031249998
1.4550292968749998
1.5090087890625
1.52109375
1.5355957031249998
1.5509033203125
1.5589599609375
1.611328125
1.5807128906249999
1.5726562499999999
1.5654052734375
1.546875
1.5573486328125
1.5355957031249998
1.5380126953125
1.5299560546875
1.5412353515625
1.5315673828124998
1.538818359375
1.5380126953125
1.5364013671874999
1.5243164062499999
1.6201904296874998
1.5645996093749999
1.5645996093749999
1.5444580078124999
1.5541259765625
1.5090087890625
1.48564453125
1.4687255859375
1.4912841796874998
1.496923828125
1.49853515625
1.52109375
1.496923828125
1.5364013671874999
1.5380126953125
1.529150390625
1.5323730468749999
1.538818359375
1.5235107421874998
1.5275390624999998
1.5275390624999998
1.4284423828125
1.5057861328125
1.5218994140625
1.5243164062499999
1.5484863281249999
1.5492919921875
1.6137451171875
1.60166015625
1.5654052734375
1.5605712890624999
1.5621826171875
1.5484863281249999
1.5541259765625
1.5444580078124999
1.533984375
1.546875
1.53720703125
1.5396240234374998
1.53076171875
1.5146484375
1.5355957031249998
1.619384765625
1.5678222656249998
1.5355957031249998
1.5557373046874998
1.5364013671874999
1.529150390625
1.4896728515625
1.4719482421874999
1.4832275390624998
1.4945068359375
1.5033691406249998
1.5106201171875
1.5154541015624998
1.5090087890625
1.5114257812499998
1.53076171875
1.5243164062499999
1.546875
1.5412353515625
1.5364013671874999
1.5299560546875
1.445361328125
1.4783935546875
1.5404296874999999
1.5114257812499998
1.5243164062499999
1.53720703125
1.6008544921874999
1.619384765625
1.577490234375
1.5645996093749999
1.5565429687499999
1.5509033203125
1.5396240234374998
1.5460693359375
1.529150390625
1.5283447265624999
1.53720703125
1.5444580078124999
1.5275390624999998
1.5404296874999999
1.5267333984375
1.5750732421875
1.587158203125
1.5533203125
1.55009765625
1.513037109375
1.49853515625
1.4993408203124998
1.4735595703125
1.4791992187499998
1.5114257812499998
1.506591796875
1.522705078125
1.5218994140625
1.51787109375
1.5243164062499999
1.5186767578125
1.5460693359375
1.525927734375
1.5267333984375
1.53076171875
1.51787109375
1.480810546875
1.482421875
1.513037109375
1.5162597656249999
1.542041015625
1.554931640625
1.571044921875
1.6048828124999999
1.5863525390625
1.5678222656249998
1.5686279296874999
1.5509033203125
1.538818359375
1.546875
1.542041015625
1.5436523437499998
1.5267333984375
1.5436523437499998
1.5323730468749999
1.5436523437499998
1.5194824218749998
1.571044921875
1.6105224609375
1.5525146484374999
1.5396240234374998
1.53076171875
1.5235107421874998
1.4993408203124998
1.5017578125
1.4800048828124999
1.474365234375
1.5057861328125
1.5017578125
1.5218994140625
1.5073974609374998
1.4993408203124998
1.5243164062499999
1.5364013671874999
1.5323730468749999
1.5275390624999998
1.525927734375
1.5412353515625
1.4993408203124998
1.4518066406249999
1.5186767578125
1.5122314453124999
1.5251220703125
1.558154296875
1.5678222656249998
1.63388671875
1.5847412109374999
1.5476806640624998
1.5565429687499999
1.561376953125
1.561376953125
1.545263671875
1.5460693359375
1.5412353515625
1.545263671875
1.529150390625
1.5251220703125
1.533984375
1.5355957031249998
1.5355957031249998
1.622607421875
1.546875
1.5509033203125
1.538818359375
1.5315673828124998
1.5162597656249999
1.4888671875
1.4767822265625
1.4816162109375
1.4888671875
1.4953124999999998
1.525927734375
1.5146484375
1.5194824218749998
1.5315673828124998
1.5243164062499999
1.533984375
1.5299560546875
1.5202880859374999
1.5146484375
1.509814453125
1.4469726562499998
1.506591796875
1.5202880859374999
1.5146484375
1.554931640625
1.55009765625
1.6129394531249999
1.5919921874999998
1.574267578125
1.5565429687499999
1.5573486328125
1.5654052734375
1.554931640625
1.5380126953125
1.5380126953125
1.5355957031249998
1.5380126953125
1.546875
1.5323730468749999
1.538818359375
1.5484863281249999
1.6105224609375
1.5670166015625
1.554931640625
1.5323730468749999
1.529150390625
1.4945068359375
1.4920898437499999
1.4816162109375
1.4920898437499999
1.5025634765625
1.49853515625
1.5057861328125
1.5090087890625
1.5315673828124998
1.5090087890625
1.525927734375
1.522705078125
1.5404296874999999
1.5355957031249998
1.5299560546875
1.542041015625
1.4429443359374998
1.4977294921875
1.5170654296875
1.5146484375
1.5315673828124998
1.558154296875
1.6177734375
1.5831298828125
1.574267578125
1.5726562499999999
1.5484863281249999
1.5533203125
1.5557373046874998
1.545263671875
1.545263671875
1.533984375
1.5315673828124998
1.5396240234374998
1.5347900390625
1.538818359375
1.5299560546875
1.6209960937499999
1.5887695312499999
1.6081054687499998
1.53720703125
1.53720703125
1.51787109375
1.5033691406249998
1.4896728515625
1.496923828125
1.5025634765625
1.4767822265625
1.496923828125
1.5090087890625
1.51787109375
1.5323730468749999
1.5436523437499998
1.5364013671874999
1.5170654296875
1.52109375
1.525927734375
1.5347900390625
1.445361328125
1.5082031249999999
1.5218994140625
1.5283447265624999
1.525927734375
1.5492919921875
1.609716796875
1.6242187499999998
1.5758789062499998
1.5637939453124998
1.53720703125
1.5541259765625
1.5299560546875
1.538818359375
1.5484863281249999
1.545263671875
1.53720703125
1.5347900390625
1.5412353515625
1.5533203125
1.5460693359375
1.603271484375
1.5887695312499999
1.5509033203125
1.5565429687499999
1.53720703125
1.506591796875
1.4977294921875
1.4872558593749998
1.4767822265625
1.4880615234374999
1.5082031249999999
1.49853515625
1.4912841796874998
1.525927734375
1.529150390625
1.5194824218749998
1.5243164062499999
1.529150390625
1.5444580078124999
1.5347900390625
1.546875
1.461474609375
1.4864501953125
1.509814453125
1.522705078125
1.55009765625
1.5323730468749999
1.5815185546875
1.6218017578125
1.5968261718749999
1.5726562499999999
1.55009765625
1.5444580078124999
1.5573486328125
1.5517089843749998
1.53720703125
1.545263671875
1.542041015625
1.5186767578125
1.5267333984375
1.5355957031249998
1.5323730468749999
1.554931640625
1.61455078125
1.5517089843749998
1.5492919921875
1.5396240234374998
1.5082031249999999
1.5057861328125
1.5122314453124999
1.474365234375
1.4864501953125
1.496923828125
1.5017578125
1.5154541015624998
1.5186767578125
1.513037109375
1.51787109375
1.53076171875
1.53720703125
1.5484863281249999
1.52109375
1.5218994140625
1.5001464843749999
1.4703369140625
1.5154541015624998
1.50498046875
1.5396240234374998
1.5557373046874998
1.5589599609375
1.6403320312499998
1.5895751953125
1.561376953125
1.5597656249999998
1.5621826171875
1.5662109375
1.5428466796875
1.5347900390625
1.5364013671874999
1.522705078125
1.5323730468749999
1.5283447265624999
1.5235107421874998
1.5444580078124999
1.5525146484374999
1.6048828124999999
1.554931640625
1.55009765625
1.5484863281249999
1.522705078125
1.5114257812499998
1.4920898437499999
1.4638916015624999
1.4912841796874998
1.5041748046874999
1.522705078125
1.513037109375
1.506591796875
1.5170654296875
1.5186767578125
1.53076171875
1.538818359375
1.529150390625
1.5380126953125
1.545263671875
1.52109375
1.4332763671875
1.5162597656249999
1.50498046875
1.5243164062499999
1.538818359375
1.5654052734375
1.6177734375
1.606494140625
1.5686279296874999
1.5573486328125
1.5492919921875
1.5436523437499998
1.56298828125
1.545263671875
1.5492919921875
1.542041015625
1.538818359375
1.529150390625
1.52109375
1.5283447265624999
1.5283447265624999
1.6161621093749998
1.5605712890624999
1.546875
1.5492919921875
1.5299560546875
1.5243164062499999
1.4848388671875
1.4791992187499998
1.480810546875
1.5017578125
1.5057861328125
1.52109375
1.522705078125
1.5194824218749998
1.5243164062499999
1.5162597656249999
1.5251220703125
1.5364013671874999
1.5315673828124998
1.546875
1.5146484375
1.4469726562499998
1.4912841796874998
1.545263671875
1.5154541015624998
1.5267333984375
1.5573486328125
1.6363037109374998
1.611328125
1.5750732421875
1.5492919921875
1.5541259765625
1.546875
1.5533203125
1.5428466796875
1.5364013671874999
1.5364013671874999
1.5428466796875
1.5364013671874999
1.538818359375
1.5323730468749999
1.52109375
1.593603515625
1.585546875
1.5315673828124998
1.5428466796875
1.542041015625
1.5138427734375
1.4832275390624998
1.4848388671875
