1.4767822265625
1.4590576171874998
1.4759765624999999
1.4840332031249999
1.5033691406249998
1.5267333984375
1.5057861328125
1.53076171875
1.5218994140625
1.5218994140625
1.5194824218749998
1.5267333984375
1.546875
1.5267333984375
1.546875
1.44052734375
1.4679199218749999
1.4945068359375
1.4945068359375
1.513037109375
1.5492919921875
1.6072998046875
1.658056640625
1.5984375
1.5686279296874999
1.5791015625
1.5605712890624999
1.5476806640624998
1.5573486328125
1.5557373046874998
1.5170654296875
1.5146484375
1.5476806640624998
1.5299560546875
1.5243164062499999
1.5186767578125
1.5484863281249999
1.6330810546874999
1.5734619140625
1.5315673828124998
1.5436523437499998
1.506591796875
1.50498046875
1.490478515625
1.464697265625
1.48564453125
1.5122314453124999
1.5162597656249999
1.5073974609374998
1.522705078125
1.5404296874999999
1.5251220703125
1.525927734375
1.5275390624999998
1.5323730468749999
1.5202880859374999
1.53076171875
1.4429443359374998
1.4364990234375
1.4912841796874998
1.506591796875
1.5460693359375
1.53076171875
1.5718505859374998
1.635498046875
1.6218017578125
1.5573486328125
1.577490234375
1.5404296874999999
1.542041015625
1.5355957031249998
1.529150390625
1.5186767578125
1.571044921875
1.5509033203125
1.53076171875
1.538818359375
1.5186767578125
1.5541259765625
1.6483886718749998
1.561376953125
1.5557373046874998
1.5404296874999999
1.533984375
1.5025634765625
1.4896728515625
1.4518066406249999
1.482421875
1.4880615234374999
1.4928955078125
1.5057861328125
1.5090087890625
1.5235107421874998
1.5355957031249998
1.5283447265624999
1.5154541015624998
1.5275390624999998
1.522705078125
1.5436523437499998
1.5082031249999999
1.45341796875
1.4993408203124998
1.5090087890625
1.522705078125
1.5484863281249999
1.5589599609375
1.6306640625
1.6048828124999999
1.5750732421875
1.5573486328125
1.5565429687499999
1.5637939453124998
1.5380126953125
1.533984375
1.5396240234374998
1.545263671875
1.545263671875
1.533984375
1.522705078125
1.5323730468749999
1.5315673828124998
1.6395263671875
1.56943359375
1.5525146484374999
1.5444580078124999
1.542041015625
1.5146484375
1.4872558593749998
1.4759765624999999
1.4912841796874998
1.5001464843749999
1.509814453125
1.5057861328125
1.4993408203124998
1.5517089843749998
1.5082031249999999
1.5146484375
1.5355957031249998
1.525927734375
1.5170654296875
1.5460693359375
1.5170654296875
1.4147460937499998
1.4945068359375
1.5146484375
1.5218994140625
1.5275390624999998
1.554931640625
1.6411376953124999
1.5968261718749999
1.5815185546875
1.5718505859374998
1.5436523437499998
1.5476806640624998
1.5476806640624998
1.542041015625
1.5315673828124998
1.558154296875
1.5541259765625
1.5275390624999998
1.546875
1.52109375
1.5476806640624998
1.658056640625
1.5766845703124999
1.55009765625
1.5476806640624998
1.533984375
1.4953124999999998
1.4791992187499998
1.47275390625
1.474365234375
1.477587890625
1.474365234375
1.496923828125
1.5154541015624998
1.5243164062499999
1.5162597656249999
1.5251220703125
1.5396240234374998
1.5347900390625
1.5380126953125
1.53076171875
1.525927734375
1.4074951171874999
1.4920898437499999
1.5218994140625
1.5218994140625
1.5218994140625
1.5589599609375
1.6072998046875
1.5887695312499999
1.5799072265624998
1.58232421875
1.5726562499999999
1.5718505859374998
1.5444580078124999
1.5460693359375
1.5605712890624999
1.5396240234374998
1.5702392578125
1.5218994140625
1.52109375
1.513037109375
1.5404296874999999
1.619384765625
1.6218017578125
1.5460693359375
1.5460693359375
1.5557373046874998
1.5202880859374999
1.4590576171874998
1.4759765624999999
1.4783935546875
1.4848388671875
1.4840332031249999
1.5057861328125
1.506591796875
1.5235107421874998
1.53076171875
1.5347900390625
1.5218994140625
1.53720703125
1.529150390625
1.525927734375
1.53076171875
1.4461669921875
1.46953125
1.5162597656249999
1.4864501953125
1.52109375
1.5235107421874998
1.5686279296874999
1.6459716796875
1.611328125
1.5758789062499998
1.5589599609375
1.5484863281249999
1.525927734375
1.5355957031249998
1.55009765625
1.5605712890624999
1.542041015625
1.5146484375
1.5364013671874999
1.5194824218749998
1.5557373046874998
1.6048828124999999
1.6459716796875
1.5944091796875
1.5525146484374999
1.5202880859374999
1.5138427734375
1.4993408203124998
1.456640625
1.4687255859375
1.490478515625
1.4888671875
1.4993408203124998
1.51787109375
1.5235107421874998
1.5251220703125
1.5283447265624999
1.5299560546875
1.5299560546875
1.5315673828124998
1.53720703125
1.5218994140625
1.4767822265625
1.464697265625
1.4800048828124999
1.4945068359375
1.51787109375
1.5605712890624999
1.56943359375
1.651611328125
1.5887695312499999
1.5621826171875
1.574267578125
1.55009765625
1.5404296874999999
1.5533203125
1.5509033203125
1.529150390625
1.5364013671874999
1.5347900390625
1.5396240234374998
1.5476806640624998
1.53076171875
1.55009765625
1.5976318359375
1.56298828125
1.545263671875
1.5476806640624998
1.5347900390625
1.4977294921875
1.4848388671875
1.4719482421874999
1.48564453125
1.482421875
1.5194824218749998
1.5162597656249999
1.5033691406249998
1.5283447265624999
1.51787109375
1.51787109375
1.5396240234374998
1.5380126953125
1.5299560546875
1.5315673828124998
1.4783935546875
1.4542236328125
1.493701171875
1.4711425781249998
1.5146484375
1.5347900390625
1.5541259765625
1.635498046875
1.5992431640625
1.5686279296874999
1.56298828125
1.5525146484374999
1.561376953125
1.5525146484374999
1.5412353515625
1.5484863281249999
1.5517089843749998
1.5235107421874998
1.5436523437499998
1.5476806640624998
1.5218994140625
1.5380126953125
1.619384765625
1.5605712890624999
1.5605712890624999
1.5637939453124998
1.5670166015625
1.5162597656249999
1.4832275390624998
1.4630859374999998
1.480810546875
1.4953124999999998
1.493701171875
1.5090087890625
1.509814453125
1.529150390625
1.53720703125
1.52109375
1.538818359375
1.5323730468749999
1.5243164062499999
1.533984375
1.5283447265624999
1.4123291015625
1.4671142578124998
1.4993408203124998
1.5380126953125
1.5460693359375
1.53720703125
1.6137451171875
1.609716796875
1.5750732421875
1.5766845703124999
1.545263671875
1.5525146484374999
1.5589599609375
1.5686279296874999
1.5412353515625
1.533984375
1.5517089843749998
1.5283447265624999
1.533984375
1.546875
1.5436523437499998
1.6435546875
1.58232421875
1.5525146484374999
1.5404296874999999
1.5476806640624998
1.5218994140625
1.493701171875
1.4558349609374999
1.4687255859375
1.4864501953125
1.4912841796874998
1.5090087890625
1.513037109375
1.5154541015624998
1.5194824218749998
1.5114257812499998
1.5267333984375
1.5525146484374999
1.5331787109375
1.5186767578125
1.5235107421874998
1.409912109375
1.456640625
1.513037109375
1.52109375
1.5283447265624999
1.55009765625
1.6137451171875
1.6403320312499998
1.6024658203125
1.5887695312499999
1.554931640625
1.5686279296874999
1.561376953125
1.5355957031249998
1.5444580078124999
1.55009765625
1.5122314453124999
1.5186767578125
1.5114257812499998
1.5364013671874999
1.55009765625
1.60166015625
1.6121337890624998
1.5565429687499999
1.5404296874999999
1.529150390625
1.5218994140625
1.48564453125
1.4437499999999999
1.4759765624999999
1.4848388671875
1.490478515625
1.5122314453124999
1.49853515625
1.5323730468749999
1.5267333984375
1.5001464843749999
1.5251220703125
1.5533203125
1.5492919921875
1.546875
1.5251220703125
1.4115234374999999
1.456640625
1.5283447265624999
1.4832275390624998
1.522705078125
1.5444580078124999
1.571044921875
1.6314697265625
1.5911865234375
1.574267578125
1.5702392578125
1.56298828125
1.5517089843749998
1.55009765625
1.5557373046874998
1.55009765625
1.529150390625
1.525927734375
1.561376953125
1.5404296874999999
1.5533203125
1.6008544921874999
1.609716796875
1.5605712890624999
1.5460693359375
1.5533203125
1.533984375
1.47275390625
1.4622802734375
1.464697265625
1.493701171875
1.4920898437499999
1.49853515625
1.50498046875
1.5186767578125
1.5090087890625
1.5251220703125
1.5364013671874999
1.50498046875
1.5315673828124998
1.55009765625
1.5533203125
1.4783935546875
1.4638916015624999
1.5001464843749999
1.496923828125
1.4977294921875
1.5404296874999999
1.5557373046874998
1.6532226562499999
1.6089111328124999
1.56298828125
1.5670166015625
1.5597656249999998
1.5428466796875
1.53076171875
1.5517089843749998
1.5283447265624999
1.5380126953125
1.5315673828124998
1.5436523437499998
1.5331787109375
1.545263671875
1.5533203125
1.6242187499999998
1.5766845703124999
1.5847412109374999
1.5436523437499998
1.5138427734375
1.5025634765625
1.4848388671875
1.4783935546875
1.4687255859375
1.48564453125
1.5154541015624998
1.50498046875
1.5041748046874999
1.5299560546875
1.5235107421874998
1.52109375
1.53720703125
1.5202880859374999
1.5364013671874999
1.5331787109375
1.4848388671875
1.432470703125
1.506591796875
1.53076171875
1.5355957031249998
1.5589599609375
1.5533203125
1.6403320312499998
1.6121337890624998
1.5557373046874998
1.5597656249999998
1.5533203125
1.5364013671874999
1.5396240234374998
1.5331787109375
1.5525146484374999
1.546875
1.5194824218749998
1.538818359375
1.53720703125
1.5331787109375
1.5476806640624998
1.625830078125
1.558154296875
1.571044921875
1.5702392578125
1.5299560546875
1.5009521484375
1.4477783203124999
1.4518066406249999
1.4840332031249999
1.4912841796874998
1.4832275390624998
1.5041748046874999
1.5106201171875
1.53720703125
1.529150390625
1.52109375
1.5218994140625
1.5299560546875
1.5517089843749998
1.5138427734375
1.5186767578125
1.4316650390624999
1.4928955078125
1.4953124999999998
1.5162597656249999
1.5251220703125
1.5517089843749998
1.6298583984375
1.64677734375
1.6177734375
1.56943359375
1.5678222656249998
1.5517089843749998
1.5146484375
1.5605712890624999
1.55009765625
1.5605712890624999
1.5396240234374998
1.538818359375
1.538818359375
1.5315673828124998
1.53720703125
1.6306640625
1.5879638671874998
1.5541259765625
1.5517089843749998
1.533984375
1.5001464843749999
1.4759765624999999
1.47275390625
1.4912841796874998
1.5057861328125
1.5170654296875
1.4920898437499999
1.4920898437499999
1.5275390624999998
1.5243164062499999
1.51787109375
1.5283447265624999
1.5436523437499998
1.5492919921875
1.5275390624999998
1.5138427734375
1.426025390625
1.464697265625
1.5025634765625
1.52109375
1.533984375
1.55009765625
1.60166015625
1.6322753906249998
1.5799072265624998
1.5678222656249998
1.5662109375
1.5476806640624998
1.5645996093749999
1.5275390624999998
1.545263671875
1.56298828125
1.5605712890624999
1.5484863281249999
1.55009765625
1.5202880859374999
1.53720703125
1.6371093749999999
1.5815185546875
1.5436523437499998
1.5734619140625
1.5364013671874999
1.55009765625
1.5025634765625
1.474365234375
1.4767822265625
1.4840332031249999
1.4912841796874998
1.496923828125
1.4888671875
1.5170654296875
1.5114257812499998
1.5323730468749999
1.5428466796875
1.5412353515625
1.5267333984375
1.5565429687499999
1.538818359375
1.42119140625
1.44052734375
1.5218994140625
1.52109375
1.5202880859374999
1.53076171875
1.5944091796875
1.6451660156249999
1.585546875
1.5670166015625
1.5589599609375
1.5541259765625
1.53720703125
1.55009765625
1.5662109375
1.5299560546875
1.5476806640624998
1.55009765625
1.522705078125
1.546875
1.5186767578125
1.5662109375
1.593603515625
1.5718505859374998
1.533984375
1.538818359375
1.4872558593749998
1.4977294921875
1.4703369140625
1.480810546875
1.4928955078125
1.496923828125
1.5033691406249998
1.5041748046874999
1.4880615234374999
1.5090087890625
1.5082031249999999
1.5412353515625
1.5404296874999999
1.5299560546875
1.5331787109375
1.5476806640624998
1.4284423828125
1.4381103515625
1.5114257812499998
1.5009521484375
1.5315673828124998
1.5509033203125
1.5702392578125
1.622607421875
1.6000488281249998
1.5662109375
1.542041015625
1.5678222656249998
1.5364013671874999
1.5380126953125
1.5444580078124999
1.5645996093749999
1.5927978515624999
1.5525146484374999
1.5557373046874998
1.5492919921875
1.525927734375
1.5533203125
1.6250244140624999
1.5484863281249999
1.53720703125
1.5347900390625
1.5380126953125
1.5001464843749999
1.4493896484375
1.458251953125
1.4961181640624999
1.493701171875
1.5082031249999999
1.4945068359375
1.5146484375
1.5275390624999998
1.522705078125
1.5122314453124999
1.5041748046874999
1.49853515625
1.5283447265624999
1.51787109375
1.493701171875
1.4034667968749999
1.5170654296875
1.4864501953125
1.4703369140625
1.5492919921875
1.593603515625
1.6604736328124998
1.6427490234375
1.6177734375
1.5815185546875
1.5557373046874998
1.5718505859374998
1.558154296875
1.55009765625
1.5525146484374999
1.5154541015624998
1.5154541015624998
1.5186767578125
1.4961181640624999
1.5347900390625
1.561376953125
1.6862548828125
1.5831298828125
1.5807128906249999
1.577490234375
1.5299560546875
1.5492919921875
1.4832275390624998
1.4920898437499999
1.4912841796874998
1.4598632812499999
1.4501953125
1.4501953125
1.4703369140625
1.5243164062499999
1.509814453125
1.525927734375
1.5597656249999998
1.5597656249999998
1.5509033203125
1.545263671875
1.542041015625
1.368017578125
1.4590576171874998
1.4791992187499998
1.4759765624999999
1.4993408203124998
1.538818359375
1.63388671875
1.6169677734374999
1.6089111328124999
1.619384765625
1.5831298828125
1.5428466796875
1.5678222656249998
1.571044921875
1.554931640625
1.585546875
1.5597656249999998
1.538818359375
1.5194824218749998
1.513037109375
1.51787109375
1.6435546875
1.593603515625
1.5984375
1.59521484375
1.522705078125
1.506591796875
1.4671142578124998
1.4542236328125
1.4477783203124999
1.4759765624999999
1.456640625
1.5017578125
1.5218994140625
1.5202880859374999
1.4953124999999998
1.5025634765625
1.4993408203124998
1.5202880859374999
1.5436523437499998
1.542041015625
1.5492919921875
1.319677734375
1.4236083984374999
1.4953124999999998
1.4800048828124999
1.5073974609374998
1.5597656249999998
1.5879638671874998
1.69833984375
1.5791015625
1.5927978515624999
1.542041015625
1.574267578125
1.529150390625
1.5380126953125
1.529150390625
1.5565429687499999
1.55009765625
1.5565429687499999
1.5347900390625
1.5573486328125
1.554931640625
1.7313720703125
1.6935058593749999
1.585546875
1.5525146484374999
1.5734619140625
1.506591796875
1.3382080078124998
1.3309570312499999
1.3672119140624999
1.3962158203125
1.400244140625
1.4759765624999999
1.4872558593749998
1.5436523437499998
1.4961181640624999
1.46953125
1.442138671875
1.5041748046874999
1.5082031249999999
1.4791992187499998
1.4912841796874998
1.0965087890625
1.1512939453125
1.2624755859374999
1.3833251953124999
1.4300537109375
1.5106201171875
1.7055908203124999
1.9682373046875
2.0278564453125
1.90458984375
1.7200927734375
1.674169921875
1.6105224609375
1.5114257812499998
1.5476806640624998
1.4590576171874998
1.5017578125
1.5138427734375
1.609716796875
1.56943359375
1.5927978515624999
2.1567626953125
2.34287109375
2.286474609375
2.2824462890625
2.1374267578125
1.9247314453125
1.6830322265625
1.281005859375
1.026416015625
0.9160400390625
0.816943359375
0.7114013671874999
0.6550048828124999
0.451171875
0.42539062499999997
0.47856445312499996
0.607470703125
0.8499755859375
0.862060546875
0.920068359375
0.9676025390624999
0.2054443359375
0.0298095703125
0.0281982421875
0.024169921875
0.030615234374999998
0.0298095703125
0.0314208984375
0.791162109375
1.2342773437499999
1.6314697265625
1.9303710937499998
2.070556640625
2.2187988281249997
2.23974609375
2.255859375
2.321923828125
2.2663330078125
2.1978515625
2.2824462890625
2.3267578125
2.3203125
2.512060546875
3.029296875
3.0309082031249996
3.0325195312499997
3.0325195312499997
3.0268798828124996
2.898779296875
2.5475097656249996
2.13984375
1.6927001953124998
1.4373046875
1.3043701171875
1.0973144531249999
0.9160400390625
0.7927734375
0.6888427734375
0.6163330078125
0.5776611328125
0.631640625
0.646142578125
0.734765625
0.49467773437499996
0.0281982421875
0.0298095703125
0.02578125
0.02900390625
0.0322265625
0.026586914062499998
0.55751953125
1.1980224609374999
1.4598632812499999
1.6781982421875
1.82724609375
2.0246337890625
2.2196044921875
2.27197265625
2.3557617187499997
2.2727783203125
2.2421630859375
2.2792236328124997
2.1720703125
2.212353515625
2.0826416015625
3.0317138671875
3.0309082031249996
3.0349365234374996
3.037353515625
3.0309082031249996
3.0325195312499997
2.6844726562499996
2.3799316406249997
2.022216796875
1.7289550781249998
1.361572265625
1.168212890625
0.936181640625
0.8677001953125
0.7702148437499999
0.8080810546874999
0.8725341796874999
0.9240966796875
0.9369873046874999
0.9031494140624999
0.6598388671875
0.0322265625
0.02900390625
0.0298095703125
0.026586914062499998
0.030615234374999998
0.033032226562499996
0.5446289062499999
1.0119140625
1.3583496093749998
1.65
1.732177734375
1.941650390625
2.054443359375
1.9360107421875
2.01416015625
2.0423583984375
2.1438720703125
2.20107421875
2.2598876953125
2.1849609375
2.07216796875
2.8472167968749997
3.0325195312499997
3.0317138671875
3.027685546875
3.0333251953125
3.0357421875
2.771484375
2.53623046875
2.0294677734374997
1.7378173828124999
1.4066894531249998
1.0973144531249999
0.8910644531249999
0.7822998046874999
0.7718261718749999
0.7049560546875
0.6985107421875
0.6823974609375
0.688037109375
0.742822265625
0.734765625
0.0298095703125
0.0298095703125
0.030615234374999998
0.0346435546875
0.030615234374999998
0.0298095703125
0.25458984375
0.8805908203124999
1.3712402343749999
1.6072998046875
1.7555419921875
1.848193359375
2.0520263671875
2.0600830078125
2.11728515625
2.12373046875
2.077001953125
2.1164794921875
2.0600830078125
2.022216796875
2.0334960937499997
2.8230468749999997
3.0309082031249996
3.0317138671875
3.0325195312499997
3.0309082031249996
3.0325195312499997
2.9817626953125
2.4886962890624997
2.08828125
1.861083984375
1.46630859375
1.313232421875
1.0143310546875
0.9176513671875
0.7621582031249999
0.72509765625
0.7154296874999999
0.7283203125
0.758935546875
0.825
0.8225830078124999
0.02900390625
0.03544921875
0.0298095703125
0.0322265625
0.0298095703125
0.02900390625
0.0281982421875
0.7629638671875
1.2342773437499999
1.46953125
1.699951171875
1.770849609375
1.9988525390624998
2.09150390625
2.1422607421874997
2.05927734375
2.14306640625
2.0254394531249997
2.012548828125
1.9996582031249999
1.8796142578125
2.054443359375
2.8657470703124996
3.0333251953125
3.0333251953125
3.0333251953125
3.0284912109374997
3.0317138671875
2.6047119140625
2.176904296875
1.7289550781249998
1.42119140625
1.1770751953125
0.9345703125
0.7822998046874999
0.7234863281249999
0.64775390625
0.7162353515625
0.655810546875
0.7291259765625
0.6751464843749999
0.75087890625
0.44150390624999997
0.0298095703125
0.02900390625
0.033837890625
0.02900390625
0.0298095703125
0.0298095703125
0.7081787109375
1.2536132812499998
1.5589599609375
1.7507080078125
1.9634033203124999
2.115673828125
2.1374267578125
2.0520263671875
2.0246337890625
2.035107421875
2.0818359374999997
2.02705078125
2.0334960937499997
1.9779052734375
2.0117431640625
3.0325195312499997
3.0317138671875
3.0325195312499997
3.034130859375
3.02607421875
3.0325195312499997
2.6683593749999996
2.204296875
1.8546386718749999
1.609716796875
1.2995361328125
1.1190673828125
1.0320556640625
0.98291015625
0.9273193359374999
0.833056640625
0.8161376953124999
0.8572265625
0.9498779296875
0.9708251953125
0.878173828125
0.030615234374999998
0.0314208984375
0.02578125
0.0281982421875
0.02900390625
0.0298095703125
0.476953125
0.9329589843749999
1.17626953125
1.545263671875
1.767626953125
1.791796875
1.960986328125
2.1615966796875
2.2196044921875
2.215576171875
2.2115478515625
2.2357177734375
2.1841552734375
2.1632080078125
2.11728515625
2.905224609375
3.0309082031249996
3.034130859375
3.0365478515624997
3.0317138671875
3.0309082031249996
2.7747070312499997
2.3984619140625
1.8369140625
1.5678222656249998
1.3543212890624998
1.2125244140625
1.0650878906249999
0.9305419921875
0.7395996093749999
0.6727294921875
0.7025390625
0.6348632812499999
0.6598388671875
0.6807861328125
0.597802734375
0.027392578124999997
0.02900390625
0.026586914062499998
0.020947265625
0.033032226562499996
0.0249755859375
0.07009277343749999
0.7790771484375
1.27294921875
1.5162597656249999
1.6653076171874999
1.8393310546875
1.972265625
1.980322265625
1.9231201171874999
2.0343017578125
1.9593749999999999
2.044775390625
2.03671875
1.9754882812499999
1.915869140625
2.6111572265625
3.0317138671875
3.037353515625
3.0317138671875
3.0317138671875
3.027685546875
3.0325195312499997
2.5152832031249996
2.03994140625
1.6862548828125
1.3398193359375
1.14404296875
1.0046630859374999
0.968408203125
0.8983154296875
0.7855224609375
0.8604492187499999
0.855615234375
0.8749511718749999
0.9224853515625
0.8548095703124999
0.08137207031249999
0.0346435546875
0.0298095703125
0.033032226562499996
0.030615234374999998
0.02900390625
0.193359375
0.9087890624999999
1.248779296875
1.5033691406249998
1.72412109375
2.0149658203125
1.98515625
2.0745849609375
2.051220703125
2.1728759765625
2.2905029296875
2.2115478515625
2.19140625
2.1696533203125
2.0254394531249997
2.2236328125
3.0325195312499997
3.034130859375
3.0317138671875
3.029296875
3.0325195312499997
3.02607421875
2.6594970703125
2.3066162109375
1.8119384765625
1.5887695312499999
1.364794921875
1.1408203125
1.08603515625
0.9232910156249999
0.8588378906249999
0.800830078125
0.8274169921875
0.765380859375
0.825
0.6936767578124999
0.43505859375
0.030615234374999998
0.0314208984375
0.030615234374999998
0.0281982421875
0.026586914062499998
0.0298095703125
0.5132080078125
1.0948974609375
1.3712402343749999
1.6435546875
1.8248291015625
1.8788085937499999
1.9762939453125
2.167236328125
2.225244140625
2.3017822265625
2.1277587890625
2.157568359375
2.165625
2.1140624999999997
2.1180908203124997
3.0325195312499997
3.0301025390625
3.0333251953125
3.0309082031249996
3.0325195312499997
3.0325195312499997
2.6619140624999997
2.2308837890624997
1.9343994140624998
1.654833984375
1.3349853515624999
1.2624755859374999
0.9394042968749999
0.8773681640625
0.7863281249999999
0.7073730468749999
0.6292236328124999
0.58974609375
0.6380859375
0.6388916015624999
0.54140625
0.02900390625
0.0314208984375
0.030615234374999998
0.0298095703125
0.0298095703125
0.033032226562499996
0.517236328125
0.9772705078124999
1.36962890625
1.6967285156249998
1.799853515625
1.8344970703124999
1.9569580078125
2.031884765625
2.0343017578125
2.0069091796875
1.9569580078125
2.023828125
1.9859619140625
1.9956298828124999
1.9706542968749998
2.7658447265625
3.034130859375
3.0309082031249996
3.0325195312499997
3.0309082031249996
3.0325195312499997
2.6522460937499996
2.286474609375
1.7466796875
1.46630859375
1.2383056640624999
0.984521484375
0.825
0.7468505859375
0.6767578125
0.7178466796874999
0.6920654296875
0.6807861328125
0.6453369140624999
0.6429199218749999
0.6662841796875
0.02900390625
0.022558593749999998
0.0281982421875
0.0298095703125
0.02900390625
0.0298095703125
0.1619384765625
1.0546142578125
1.3865478515624998
1.5766845703124999
1.7635986328125
1.896533203125
2.0052978515624997
2.04638671875
2.2179931640625
2.254248046875
2.2711669921874997
2.0576660156249997
2.022216796875
2.0044921875
1.9223144531249998
2.6748046875
3.0333251953125
3.0325195312499997
3.0333251953125
3.0325195312499997
3.0284912109374997
2.8778320312499996
2.6562744140624996
2.2373291015625
1.8844482421875
1.50498046875
1.3736572265625
1.2020507812499999
0.9998291015624999
0.829833984375
0.7919677734374999
0.7194580078124999
0.7468505859375
0.7065673828125
0.742822265625
0.78955078125
0.0620361328125
0.0314208984375
0.030615234374999998
0.033032226562499996
0.0298095703125
0.033837890625
0.0298095703125
0.7968017578125
1.20849609375
1.50498046875
1.7450683593749998
1.848193359375
1.9601806640625
2.0173828124999997
2.047998046875
2.115673828125
2.1422607421874997
2.0745849609375
2.0761962890625
2.0069091796875
1.9505126953124998
2.086669921875
3.0349365234374996
3.0325195312499997
3.0333251953125
3.0333251953125
3.037353515625
3.0333251953125
2.6458007812499997
2.07216796875
1.7418457031249999
1.3639892578125
1.271337890625
1.01513671875
0.9232910156249999
0.7460449218749999
0.742822265625
0.7927734375
0.7387939453125
0.6767578125
0.75732421875
0.768603515625
0.0580078125
0.033837890625
0.033837890625
0.02900390625
0.0281982421875
0.0346435546875
0.0322265625
0.48984374999999997
1.19560546875
1.44052734375
1.6137451171875
1.861083984375
2.08505859375
2.1333984375
2.14951171875
2.1325927734375
2.13984375
2.1922119140625
2.1906005859374997
2.0818359374999997
2.144677734375
2.144677734375
3.0268798828124996
3.034130859375
3.029296875
3.0357421875
3.0317138671875
3.0333251953125
2.7481201171875
2.3235351562499997
1.8328857421875
1.5146484375
1.26005859375
1.074755859375
0.936181640625
0.9079833984375
0.775048828125
0.655810546875
0.7259033203124999
0.7291259765625
0.837890625
0.7951904296875
0.7669921875
0.03544921875
0.02900390625
0.02578125
0.0322265625
0.0298095703125
0.024169921875
0.4245849609375
0.8910644531249999
1.1964111328125
1.50498046875
1.674169921875
1.73056640625
1.9247314453125
1.9779052734375
2.05283203125
2.083447265625
2.0713623046875
2.083447265625
2.1003662109375
2.1052001953125
2.1342041015624997
2.8528564453125
3.0309082031249996
3.02607421875
3.0325195312499997
3.0309082031249996
3.027685546875
2.8794433593749997
2.5805419921875
2.0898925781249997
1.8264404296874999
1.6121337890624998
1.284228515625
1.094091796875
0.929736328125
0.813720703125
0.8354736328125
0.825
0.8080810546874999
0.7959960937499999
0.8161376953124999
0.8435302734375
0.033032226562499996
0.030615234374999998
0.033032226562499996
0.02900390625
0.030615234374999998
0.0298095703125
0.027392578124999997
0.9305419921875
1.2963134765625
1.43408203125
1.706396484375
1.7660156249999999
1.912646484375
2.023828125
2.0471923828125
2.1301757812499997
2.08505859375
2.04638671875
2.0359130859375
2.018994140625
1.9489013671875
2.5394531249999996
3.0309082031249996
3.0309082031249996
3.037353515625
3.0301025390625
3.029296875
2.8206298828125
2.4758056640625
1.9529296875
1.5976318359375
1.4888671875
1.184326171875
1.077978515625
0.9982177734375
0.8523925781249999
0.7758544921874999
0.7919677734374999
0.7734375
0.8121093749999999
0.8983154296875
0.7629638671875
0.0298095703125
0.033032226562499996
0.0314208984375
0.030615234374999998
0.0322265625
0.027392578124999997
0.0249755859375
0.8274169921875
1.15048828125
1.4735595703125
1.6886718749999998
1.7877685546875
1.8876708984375
1.9118408203125
1.9940185546875
1.88525390625
2.0036865234375
2.0625
2.0697509765624997
2.1406494140625
2.0246337890625
2.0987548828125
3.034130859375
3.0317138671875
3.043798828125
3.0325195312499997
3.0325195312499997
3.0317138671875
2.7328124999999996
2.1825439453124997
1.9215087890625
1.593603515625
1.364794921875
1.103759765625
1.0626708984375
0.95068359375
0.8370849609375
0.7669921875
0.7355712890624999
0.7863281249999999
0.7734375
0.7927734375
0.0958740234375
0.02900390625
0.0281982421875
0.030615234374999998
0.0298095703125
0.033032226562499996
0.0298095703125
0.6082763671875
1.0078857421875
1.2592529296875
1.4268310546874998
1.5605712890624999
1.8046875
1.8981445312499998
1.9086181640625
1.9472900390624999
2.044775390625
1.993212890625
1.8981445312499998
2.0262451171875
2.05283203125
2.0488037109375
3.0325195312499997
3.029296875
3.0333251953125
3.0325195312499997
3.037353515625
3.034130859375
2.8141845703125
2.334814453125
1.9472900390624999
1.5412353515625
1.3100097656249998
1.1319580078125
0.9692138671874999
0.871728515625
0.7959960937499999
0.8113037109375
0.797607421875
0.752490234375
0.7806884765625
0.8918701171875
0.8354736328125
0.026586914062499998
0.030615234374999998
0.0298095703125
0.0298095703125
0.0281982421875
0.0281982421875
0.3359619140625
0.903955078125
1.26328125
1.5025634765625
1.6588623046875
1.6290527343749999
1.8908935546874999
1.9053955078125
2.0697509765624997
2.1205078125
2.0818359374999997
2.0810302734375
2.1100341796874997
2.109228515625
2.0858642578124997
2.7650390624999996
3.027685546875
3.034130859375
3.034130859375
3.0325195312499997
3.0309082031249996
2.719921875
2.2623046875
1.8489990234375
1.55009765625
1.2995361328125
1.0675048828125
0.9418212890625
0.8258056640625
0.760546875
0.7742431640624999
0.84755859375
0.7597412109374999
0.7541015624999999
0.829833984375
0.855615234375
0.030615234374999998
0.0314208984375
0.02900390625
0.0298095703125
0.0314208984375
0.0298095703125
0.103125
0.9772705078124999
1.2753662109375
1.3720458984375
1.6306640625
1.80791015625
2.023828125
2.0488037109375
2.1116455078125
2.1744873046874997
2.14306640625
2.0939208984374997
2.0536376953124997
1.9867675781249998
2.067333984375
2.6997802734375
3.0317138671875
3.0365478515624997
3.0325195312499997
3.0317138671875
3.0357421875
2.9028076171875
2.624853515625
2.22041015625
1.7265380859375
1.4791992187499998
1.2858398437499998
0.9877441406249999
0.8499755859375
0.7927734375
0.813720703125
0.8580322265625
0.9611572265624999
0.903955078125
0.865283203125
0.9418212890625
0.217529296875
0.026586914062499998
0.0298095703125
0.030615234374999998
0.0281982421875
0.027392578124999997
0.02900390625
0.7629638671875
1.147265625
1.5992431640625
1.7603759765625
1.8755859375
2.083447265625
2.1543457031249997
2.2614990234375
2.230078125
2.2171875
2.17529296875
2.0947265625
2.0415527343749997
1.9698486328125
1.8393310546875
2.9930419921875
3.0317138671875
3.0309082031249996
3.0284912109374997
3.0317138671875
3.0333251953125
2.9076416015624997
2.4298828125
2.0536376953124997
1.7893798828124998
1.538818359375
1.2930908203125
1.0916748046875
1.0401123046875
0.90556640625
0.8048583984375
0.760546875
0.7822998046874999
0.768603515625
0.7532958984375
0.0314208984375
0.0281982421875
0.0322265625
0.033032226562499996
0.02578125
0.02900390625
0.02900390625
0.6711181640624999
1.0256103515625
1.3954101562499999
1.609716796875
1.7426513671875
1.7861572265624999
1.880419921875
1.944873046875
1.909423828125
1.977099609375
1.89169921875
1.941650390625
1.9601806640625
1.8538330078124998
1.8828369140624999
2.8915283203124997
3.0309082031249996
3.0317138671875
3.0317138671875
3.0349365234374996
3.0325195312499997
2.6860839843749997
2.338037109375
1.98193359375
1.62744140625
1.4590576171874998
1.34384765625
1.1142333984375
0.952294921875
0.8902587890625
0.8145263671874999
0.9329589843749999
0.9337646484375
0.9337646484375
0.9128173828124999
0.8507812499999999
0.0298095703125
0.027392578124999997
0.0322265625
0.030615234374999998
0.0281982421875
0.02900390625
0.391552734375
0.8870361328124999
1.2141357421874999
1.5355957031249998
1.6459716796875
1.7531249999999998
1.9408447265625
2.0657226562499997
2.0262451171875
2.051220703125
2.1342041015624997
2.1624023437499997
2.0794189453125
2.08505859375
2.0576660156249997
2.824658203125
3.0349365234374996
3.0325195312499997
3.029296875
3.0301025390625
3.0317138671875
2.7424804687499997
2.1986572265624997
1.915869140625
1.5404296874999999
1.3229003906249999
1.0481689453125
0.9627685546875
0.9603515625
0.87333984375
0.8048583984375
0.7919677734374999
0.7742431640624999
0.839501953125
0.8515869140625
0.8588378906249999
0.02900390625
0.0281982421875
0.0249755859375
0.030615234374999998
0.02900390625
0.0298095703125
0.0314208984375
0.8225830078124999
1.1980224609374999
1.3897705078125
1.65966796875
1.7692382812499998
1.786962890625
1.77890625
1.95615234375
2.0689453125
2.0810302734375
2.0826416015625
2.0455810546874997
1.9553466796874999
1.9150634765624999
2.6530517578125
3.0309082031249996
3.0309082031249996
3.0317138671875
3.0325195312499997
3.0325195312499997
2.956787109375
2.6603027343749996
2.3211181640625
1.9988525390624998
1.77568359375
1.5734619140625
1.3639892578125
1.2302490234374999
1.1150390625
1.0570312499999999
0.95068359375
0.897509765625
0.95390625
0.9659912109375
0.9982177734375
0.28439941406249997
0.024169921875
0.033837890625
0.0314208984375
0.02578125
0.0298095703125
0.02900390625
0.7532958984375
1.0481689453125
1.4010498046875
1.533984375
1.6991455078125
1.9182861328124998
1.9634033203124999
2.044775390625
2.0947265625
2.0012695312499997
1.9327880859375
1.9271484374999999
1.8900878906249998
1.832080078125
1.7982421874999999
3.0252685546875
3.0325195312499997
3.0349365234374996
3.0349365234374996
3.0325195312499997
3.0309082031249996
2.78759765625
2.27197265625
1.9400390625
1.6653076171874999
1.3059814453124998
1.1222900390625
1.01513671875
0.9990234375
0.80888671875
0.7516845703124999
0.7661865234374999
0.7863281249999999
0.79921875
0.8225830078124999
0.7049560546875
0.023364257812499997
0.02900390625
0.030615234374999998
0.0298095703125
0.02900390625
0.0298095703125
0.5486572265624999
1.147265625
1.3067871093749999
1.509814453125
1.719287109375
1.73056640625
1.8393310546875
1.7926025390625
1.9489013671875
2.051220703125
2.0633056640625
1.9392333984374999
1.8820312499999998
1.8796142578125
1.78857421875
2.8778320312499996
3.0301025390625
3.0357421875
3.0309082031249996
3.0325195312499997
3.034130859375
2.905224609375
2.4830566406249996
2.08505859375
1.7901855468749999
1.6024658203125
1.3656005859375
1.084423828125
1.0223876953125
0.958740234375
0.8386962890624999
0.862060546875
0.7959960937499999
0.7879394531249999
0.8177490234375
0.8274169921875
0.026586914062499998
0.033837890625
0.0298095703125
0.0298095703125
0.0298095703125
0.0346435546875
0.3150146484375
0.8693115234375
1.24716796875
1.4832275390624998
1.683837890625
1.8981445312499998
2.0657226562499997
2.1100341796874997
2.13662109375
2.244580078125
2.1543457031249997
2.1245361328125
2.1680419921875
2.1454833984375
2.118896484375
2.792431640625
3.0309082031249996
3.0317138671875
3.0268798828124996
3.0301025390625
3.0309082031249996
2.7505371093749997
2.4532470703125
1.9013671875
1.6234130859375
1.4630859374999998
1.3285400390625
1.1754638671875
1.00224609375
0.9498779296875
0.8032470703125
0.7927734375
0.7436279296874999
0.7839111328124999
0.8902587890625
0.9869384765625
0.033837890625
0.0249755859375
0.0281982421875
0.0298095703125
0.026586914062499998
0.027392578124999997
0.0314208984375
0.88623046875
1.3728515625
1.6282470703124998
1.7370117187499998
1.8884765625
1.93359375
2.03671875
2.0906982421875
2.0415527343749997
2.018994140625
2.0600830078125
2.128564453125
2.2486083984375
2.1696533203125
2.7755126953125
3.0357421875
3.0333251953125
3.029296875
3.0309082031249996
3.0309082031249996
2.977734375
2.5450927734374997
2.141455078125
1.7499023437499999
1.3954101562499999
1.164990234375
0.97001953125
0.8580322265625
0.7637695312499999
0.8056640625
0.6509765624999999
0.6260009765625
0.6276123046875
0.5365722656249999
0.6002197265625
0.033032226562499996
0.02900390625
0.02900390625
0.02900390625
0.0298095703125
0.02900390625
0.0314208984375
0.7500732421874999
1.1134277343749999
1.345458984375
1.5605712890624999
1.6532226562499999
1.8111328125
1.7692382812499998
1.8731689453125
1.9787109374999998
1.9625976562499998
2.02060546875
2.0890869140625
2.0625
2.0520263671875
2.07216796875
3.029296875
3.0309082031249996
3.0333251953125
3.0284912109374997
3.0317138671875
3.0268798828124996
2.695751953125
2.1696533203125
1.7499023437499999
1.5138427734375
1.2592529296875
1.0368896484374999
0.8870361328124999
0.7718261718749999
0.8121093749999999
0.768603515625
0.837890625
0.8967041015624999
0.9796874999999999
0.8846191406249999
0.32548828124999996
0.0298095703125
0.0298095703125
0.027392578124999997
0.030615234374999998
0.0314208984375
0.0298095703125
0.5204589843749999
1.0248046874999999
1.3825195312499998
1.5484863281249999
1.6435546875
1.7692382812499998
2.02060546875
2.1470947265625
2.26552734375
2.222021484375
2.1720703125
2.093115234375
2.165625
2.1583740234374997
2.2051025390625
3.0317138671875
3.0325195312499997
3.0309082031249996
3.0301025390625
3.0317138671875
3.0309082031249996
2.6449951171875
2.2494140625
1.972265625
1.606494140625
1.4348876953124998
1.2060791015624999
1.05380859375
0.91845703125
0.8596435546875
0.77666015625
0.8580322265625
0.8958984375
0.9611572265624999
1.0006347656249999
1.0481689453125
0.0346435546875
0.02900390625
0.0298095703125
0.02578125
0.0314208984375
0.024169921875
0.5841064453125
1.1561279296875
1.6371093749999999
1.8618896484374998
1.998046875
2.196240234375
2.3799316406249997
2.7384521484374997
3.0268798828124996
3.0325195312499997
3.0317138671875
3.0317138671875
3.0325195312499997
3.0333251953125
3.027685546875
3.0333251953125
3.0228515624999996
3.0325195312499997
3.0357421875
3.0365478515624997
3.0357421875
3.0325195312499997
3.0357421875
3.0325195312499997
3.0309082031249996
3.034130859375
3.034130859375
3.027685546875
3.0325195312499997
3.0317138671875
3.0325195312499997
3.0325195312499997
3.0357421875
3.0317138671875
3.0357421875
3.027685546875
3.0309082031249996
3.0333251953125
3.0309082031249996
3.0325195312499997
3.029296875
3.0309082031249996
3.037353515625
3.0325195312499997
3.0252685546875
3.0325195312499997
3.0357421875
3.0317138671875
3.0317138671875
3.0317138671875
3.0325195312499997
2.940673828125
2.66513671875
2.273583984375
1.996435546875
1.6242187499999998
1.4622802734375
1.5645996093749999
1.6693359374999999
1.461474609375
1.2979248046874998
1.198828125
0.8507812499999999
0.6501708984375
0.6082763671875
0.6082763671875
0.5615478515625
0.5180419921875
0.45439453124999996
0.549462890625
0.6227783203124999
0.7299316406249999
0.87333984375
0.81533203125
0.8572265625
0.865283203125
0.8282226562499999
0.8725341796874999
0.742822265625
0.5526855468749999
0.6703125
0.7919677734374999
0.8338623046875
0.9595458984374999
0.97646484375
1.0965087890625
1.1480712890625
1.106982421875
1.168212890625
1.0675048828125
0.9635742187499999
0.9112060546874999
0.8991210937499999
0.9804931640625
0.9708251953125
0.9732421874999999
0.9796874999999999
1.026416015625
1.0336669921875
1.106982421875
1.22138671875
1.1351806640625
1.148876953125
1.1408203125
1.09248046875
1.0449462890624999
1.0119140625
1.00546875
1.0320556640625
1.1021484375
1.1271240234375
1.1819091796874999
1.1786865234375
1.1786865234375
1.2173583984375
1.21171875
1.2511962890625
1.2254150390625
1.276171875
1.2745605468749999
1.2447509765625
1.134375
1.2141357421874999
1.2721435546875
1.2802001953125
1.3019531249999998
1.3801025390625
1.5364013671874999
1.44052734375
1.4364990234375
1.4091064453125
1.4276367187499999
1.4026611328124998
1.4284423828125
1.4228027343749998
1.4155517578124999
1.4155517578124999
1.4042724609375
1.4461669921875
1.429248046875
1.4284423828125
1.4445556640625
1.5670166015625
1.4872558593749998
1.4735595703125
1.49853515625
1.5041748046874999
1.4364990234375
1.3744628906249998
1.380908203125
1.400244140625
1.4300537109375
1.4091064453125
1.4550292968749998
1.458251953125
1.4671142578124998
1.4759765624999999
1.48564453125
1.4816162109375
1.496923828125
1.49853515625
1.4783935546875
1.4816162109375
1.3672119140624999
1.4461669921875
1.426025390625
1.456640625
1.5323730468749999
1.5283447265624999
1.5750732421875
1.6137451171875
1.5726562499999999
1.5355957031249998
1.5396240234374998
1.5396240234374998
1.5106201171875
1.509814453125
1.5315673828124998
1.5057861328125
1.4896728515625
1.5355957031249998
1.5186767578125
1.522705078125
1.4759765624999999
1.6371093749999999
1.6008544921874999
1.5565429687499999
1.5645996093749999
1.5355957031249998
1.50498046875
1.4195800781249999
1.4687255859375
1.4397216796874999
1.461474609375
1.5146484375
1.4961181640624999
1.474365234375
1.49853515625
1.5364013671874999
1.4791992187499998
1.4945068359375
1.5090087890625
1.5380126953125
1.5299560546875
1.5251220703125
1.3881591796875
1.4477783203124999
1.4791992187499998
1.5154541015624998
1.5082031249999999
1.5541259765625
1.6105224609375
1.641943359375
1.5734619140625
1.5654052734375
1.546875
1.5525146484374999
1.5484863281249999
1.5347900390625
1.5541259765625
1.5404296874999999
1.5251220703125
1.5412353515625
1.5662109375
1.5460693359375
1.5162597656249999
1.5782958984375
1.60166015625
1.5662109375
1.5492919921875
1.5492919921875
1.522705078125
1.477587890625
1.456640625
1.477587890625
1.474365234375
1.5122314453124999
1.4920898437499999
1.477587890625
1.5073974609374998
1.529150390625
1.5202880859374999
1.5194824218749998
1.5251220703125
1.533984375
1.5283447265624999
1.5122314453124999
1.4171630859375
1.4381103515625
1.4840332031249999
1.5355957031249998
1.51787109375
1.5404296874999999
1.6298583984375
1.6459716796875
1.5831298828125
1.58232421875
1.5460693359375
1.5347900390625
1.542041015625
1.53720703125
1.5436523437499998
1.5243164062499999
1.533984375
1.5492919921875
1.5355957031249998
1.538818359375
1.5484863281249999
1.554931640625
1.6250244140624999
1.5686279296874999
1.554931640625
1.5621826171875
1.52109375
1.4783935546875
1.4703369140625
1.4510009765624998
1.4800048828124999
1.496923828125
1.5033691406249998
1.4961181640624999
1.50498046875
1.5380126953125
1.525927734375
1.51787109375
1.506591796875
1.52109375
1.525927734375
1.5138427734375
1.525927734375
1.4244140625
1.5025634765625
1.5090087890625
1.5154541015624998
1.55009765625
1.5541259765625
1.6451660156249999
1.6121337890624998
1.5726562499999999
1.554931640625
1.5404296874999999
1.55009765625
1.5460693359375
1.5525146484374999
1.5202880859374999
1.5380126953125
1.5412353515625
1.5331787109375
1.525927734375
1.52109375
1.5605712890624999
1.63388671875
1.5831298828125
1.5444580078124999
1.5122314453124999
1.55009765625
1.493701171875
1.4888671875
1.474365234375
1.4751708984374998
1.5057861328125
1.5033691406249998
1.48564453125
1.5162597656249999
1.533984375
1.525927734375
1.5235107421874998
1.5218994140625
1.5162597656249999
1.533984375
1.5645996093749999
1.506591796875
1.3881591796875
1.5017578125
1.5460693359375
1.5299560546875
1.5283447265624999
1.529150390625
1.6379150390625
1.6081054687499998
1.606494140625
1.561376953125
1.5758789062499998
1.5275390624999998
1.538818359375
1.5525146484374999
1.5404296874999999
1.5533203125
1.5492919921875
1.5041748046874999
1.5186767578125
1.5355957031249998
1.538818359375
1.6540283203125
1.5557373046874998
1.5267333984375
1.558154296875
1.5517089843749998
1.5267333984375
1.474365234375
1.474365234375
1.46953125
1.4888671875
1.4953124999999998
1.5082031249999999
1.5073974609374998
1.5162597656249999
1.5146484375
1.5404296874999999
1.538818359375
1.5331787109375
1.5146484375
1.496923828125
1.5460693359375
1.4115234374999999
1.4896728515625
1.5275390624999998
1.5251220703125
1.5194824218749998
1.546875
1.6209960937499999
1.6121337890624998
1.5839355468749998
1.5911865234375
1.606494140625
1.5444580078124999
1.5412353515625
1.5428466796875
1.5275390624999998
1.53076171875
1.55009765625
1.5565429687499999
1.5082031249999999
1.558154296875
1.538818359375
1.60166015625
1.60166015625
1.5670166015625
1.5396240234374998
1.5476806640624998
1.5146484375
1.4711425781249998
1.4687255859375
1.482421875
1.4993408203124998
1.4912841796874998
1.490478515625
1.5186767578125
1.5162597656249999
1.5283447265624999
1.525927734375
1.5323730468749999
1.522705078125
1.5299560546875
1.5275390624999998
1.5235107421874998
1.4316650390624999
1.4638916015624999
1.509814453125
1.5218994140625
1.5364013671874999
1.5517089843749998
1.5839355468749998
1.6242187499999998
1.5815185546875
1.5597656249999998
1.56298828125
1.56298828125
1.5404296874999999
1.538818359375
1.5533203125
1.53076171875
1.5243164062499999
1.52109375
1.5186767578125
1.554931640625
1.558154296875
1.590380859375
1.5944091796875
1.5476806640624998
1.5436523437499998
1.5734619140625
1.5275390624999998
1.4920898437499999
1.4711425781249998
1.4655029296875
1.4872558593749998
1.5057861328125
1.5090087890625
1.4928955078125
1.545263671875
1.5355957031249998
1.5170654296875
1.5509033203125
1.5194824218749998
1.5267333984375
1.51787109375
1.522705078125
1.47275390625
1.445361328125
1.4864501953125
1.5275390624999998
1.5331787109375
1.5573486328125
1.5686279296874999
1.6540283203125
1.619384765625
1.558154296875
1.5621826171875
1.5396240234374998
1.5758789062499998
1.5557373046874998
1.5251220703125
1.5541259765625
1.5436523437499998
1.5484863281249999
1.53720703125
1.5315673828124998
1.5202880859374999
1.5396240234374998
1.611328125
1.5557373046874998
1.5565429687499999
1.53076171875
1.529150390625
1.509814453125
1.4767822265625
1.45341796875
1.4945068359375
1.5073974609374998
1.4928955078125
1.5009521484375
1.5082031249999999
1.5122314453124999
1.538818359375
1.5162597656249999
1.5251220703125
1.52109375
1.5331787109375
1.533984375
1.4687255859375
1.429248046875
1.4993408203124998
1.52109375
1.5299560546875
1.522705078125
1.5412353515625
1.641943359375
1.6201904296874998
1.5766845703124999
1.587158203125
1.5299560546875
1.545263671875
1.5436523437499998
1.5533203125
1.561376953125
1.56298828125
1.5533203125
1.55009765625
1.5235107421874998
1.5251220703125
1.5186767578125
1.6363037109374998
1.571044921875
1.5557373046874998
1.5645996093749999
1.5484863281249999
1.509814453125
1.490478515625
1.4493896484375
1.482421875
1.5033691406249998
1.49853515625
1.506591796875
1.5073974609374998
1.50498046875
1.5364013671874999
1.5323730468749999
1.5235107421874998
1.5323730468749999
1.5235107421874998
1.529150390625
1.4961181640624999
1.426025390625
1.5202880859374999
1.5033691406249998
1.5057861328125
1.5404296874999999
1.5492919921875
1.6105224609375
1.61455078125
1.5758789062499998
1.5750732421875
1.5597656249999998
1.5718505859374998
1.5533203125
1.5355957031249998
1.5492919921875
1.5565429687499999
1.538818359375
1.542041015625
1.5355957031249998
1.525927734375
1.546875
1.6443603515624998
1.5831298828125
1.5654052734375
1.5492919921875
1.5170654296875
1.5243164062499999
1.46630859375
1.4848388671875
1.45341796875
1.4961181640624999
1.5073974609374998
1.4896728515625
1.5025634765625
1.525927734375
1.5299560546875
1.5251220703125
1.5275390624999998
1.546875
1.5436523437499998
1.5283447265624999
1.5396240234374998
1.42119140625
1.48564453125
1.5073974609374998
1.5138427734375
1.522705078125
1.5509033203125
1.6105224609375
1.6379150390625
1.59521484375
1.5533203125
1.5517089843749998
1.585546875
1.56943359375
1.5484863281249999
1.5114257812499998
1.5146484375
1.5396240234374998
1.5106201171875
1.5412353515625
1.5428466796875
1.5154541015624998
1.561376953125
1.5879638671874998
1.5637939453124998
1.5525146484374999
1.5380126953125
1.5154541015624998
1.5114257812499998
1.4630859374999998
1.4510009765624998
1.5154541015624998
1.5009521484375
1.5364013671874999
1.4920898437499999
1.5009521484375
1.51787109375
1.5323730468749999
1.5186767578125
1.5412353515625
1.5283447265624999
1.522705078125
1.5251220703125
1.4147460937499998
1.4518066406249999
1.5017578125
1.4977294921875
1.5194824218749998
1.5662109375
1.611328125
1.641943359375
1.5847412109374999
1.5807128906249999
1.554931640625
1.5758789062499998
1.5428466796875
1.5404296874999999
1.542041015625
1.5605712890624999
1.52109375
1.538818359375
1.5533203125
1.53076171875
1.5315673828124998
1.6000488281249998
1.6290527343749999
1.571044921875
1.5444580078124999
1.5484863281249999
1.5170654296875
1.5041748046874999
1.4550292968749998
1.4791992187499998
1.4888671875
1.5057861328125
1.5009521484375
1.49853515625
1.5235107421874998
1.5194824218749998
1.5267333984375
1.533984375
1.5122314453124999
1.5347900390625
1.5194824218749998
1.538818359375
1.4598632812499999
1.445361328125
1.506591796875
1.5275390624999998
1.5202880859374999
1.554931640625
1.5662109375
1.6234130859375
1.6177734375
1.5815185546875
1.554931640625
1.5404296874999999
1.5517089843749998
1.5557373046874998
1.5533203125
1.545263671875
1.5347900390625
1.5331787109375
1.5299560546875
1.5082031249999999
1.522705078125
1.58232421875
1.63388671875
1.5460693359375
1.554931640625
1.5573486328125
1.5267333984375
1.509814453125
1.4687255859375
1.4703369140625
1.4816162109375
1.5138427734375
1.4977294921875
1.5122314453124999
1.5106201171875
1.529150390625
1.522705078125
1.5154541015624998
1.529150390625
1.5146484375
1.5275390624999998
1.5509033203125
1.4880615234374999
1.4300537109375
1.5315673828124998
1.513037109375
1.5146484375
1.5283447265624999
1.5662109375
1.651611328125
1.6218017578125
1.5863525390625
1.5597656249999998
1.5444580078124999
1.5396240234374998
1.554931640625
1.5557373046874998
1.5557373046874998
1.5283447265624999
1.5243164062499999
1.52109375
1.5114257812499998
1.5557373046874998
1.5541259765625
1.6242187499999998
1.5686279296874999
1.5645996093749999
1.5484863281249999
1.5243164062499999
1.5114257812499998
1.4840332031249999
1.4759765624999999
1.4840332031249999
1.5090087890625
1.5154541015624998
1.49853515625
1.5122314453124999
1.5170654296875
1.5202880859374999
1.5082031249999999
1.5323730468749999
1.5355957031249998
1.5323730468749999
1.5243164062499999
1.5057861328125
1.4147460937499998
1.4928955078125
1.4920898437499999
1.5251220703125
1.5243164062499999
1.5476806640624998
1.6201904296874998
1.625830078125
1.59521484375
1.5654052734375
1.5509033203125
1.5509033203125
1.5541259765625
1.5597656249999998
1.55009765625
1.533984375
1.546875
1.5396240234374998
1.5364013671874999
1.5218994140625
1.5162597656249999
1.6451660156249999
1.593603515625
1.55009765625
1.5533203125
1.546875
1.5412353515625
1.4912841796874998
1.4711425781249998
1.45341796875
1.4945068359375
1.496923828125
1.5082031249999999
1.5001464843749999
1.4928955078125
1.5202880859374999
1.525927734375
1.5517089843749998
1.5275390624999998
1.5138427734375
1.5404296874999999
1.522705078125
1.4252197265625
1.5009521484375
1.5283447265624999
1.5001464843749999
1.5283447265624999
1.529150390625
1.6137451171875
1.6363037109374998
1.5726562499999999
1.5597656249999998
1.5637939453124998
1.545263671875
1.5573486328125
1.5541259765625
1.545263671875
1.5412353515625
1.5347900390625
1.5436523437499998
1.5275390624999998
1.5347900390625
1.5194824218749998
1.6282470703124998
1.56298828125
1.533984375
1.5597656249999998
1.538818359375
1.5299560546875
1.4840332031249999
1.4912841796874998
1.464697265625
1.4832275390624998
1.5194824218749998
1.4912841796874998
1.5073974609374998
1.5235107421874998
1.5404296874999999
1.5267333984375
1.4961181640624999
1.53720703125
1.5283447265624999
1.5509033203125
1.5444580078124999
1.4300537109375
1.4356933593749999
1.49853515625
1.509814453125
1.5202880859374999
1.5557373046874998
1.611328125
1.622607421875
1.574267578125
1.561376953125
1.5589599609375
1.5412353515625
1.5670166015625
1.546875
1.5525146484374999
1.51787109375
1.5396240234374998
1.5541259765625
1.5436523437499998
1.5283447265624999
1.5396240234374998
1.56943359375
1.6089111328124999
1.5412353515625
1.5565429687499999
1.5525146484374999
1.5194824218749998
1.493701171875
1.4961181640624999
1.4928955078125
1.4888671875
1.48564453125
1.5001464843749999
1.49853515625
1.5154541015624998
1.5122314453124999
1.51787109375
1.5428466796875
1.5202880859374999
1.525927734375
1.5146484375
1.5331787109375
1.4518066406249999
1.4469726562499998
1.5162597656249999
1.5146484375
1.5009521484375
1.5509033203125
1.5807128906249999
1.6314697265625
1.5799072265624998
1.5718505859374998
1.58232421875
1.5436523437499998
1.55009765625
1.5251220703125
1.5476806640624998
1.5162597656249999
1.5404296874999999
1.5484863281249999
1.5355957031249998
1.5364013671874999
1.5315673828124998
1.5533203125
1.6435546875
1.561376953125
1.5436523437499998
1.5758789062499998
1.5323730468749999
1.48564453125
1.47275390625
1.4759765624999999
1.4630859374999998
1.4993408203124998
1.5283447265624999
1.5041748046874999
1.496923828125
1.5017578125
1.5073974609374998
1.5275390624999998
1.5484863281249999
1.53076171875
1.55009765625
1.5355957031249998
1.5114257812499998
1.41796875
1.4928955078125
1.5106201171875
1.538818359375
1.5380126953125
1.5517089843749998
1.6201904296874998
1.61455078125
1.5927978515624999
1.574267578125
1.5573486328125
1.5718505859374998
1.5662109375
1.5331787109375
1.51787109375
1.5299560546875
1.5525146484374999
1.522705078125
1.5380126953125
1.55009765625
1.5404296874999999
1.625830078125
1.5807128906249999
1.5605712890624999
1.5541259765625
1.5202880859374999
1.5275390624999998
1.4872558593749998
1.46953125
1.4518066406249999
1.5138427734375
1.4977294921875
1.5138427734375
1.5025634765625
1.5283447265624999
1.5033691406249998
1.5235107421874998
1.5380126953125
1.5444580078124999
1.5315673828124998
1.5444580078124999
1.5146484375
1.4284423828125
1.5090087890625
1.4961181640624999
1.4993408203124998
1.53076171875
1.5380126953125
1.6137451171875
1.6169677734374999
1.5718505859374998
1.5750732421875
1.5654052734375
1.5509033203125
1.5557373046874998
1.5404296874999999
1.53076171875
1.5428466796875
1.5412353515625
1.5605712890624999
1.5404296874999999
1.5299560546875
1.5202880859374999
1.641943359375
1.5863525390625
1.5476806640624998
1.5533203125
1.533984375
1.4832275390624998
1.4840332031249999
1.48564453125
1.4888671875
1.4759765624999999
1.4912841796874998
1.5251220703125
1.5315673828124998
1.5267333984375
1.5283447265624999
1.5299560546875
1.5082031249999999
1.5364013671874999
1.5154541015624998
1.5323730468749999
1.5380126953125
1.4010498046875
1.477587890625
1.506591796875
1.4993408203124998
1.5146484375
1.55009765625
1.6137451171875
1.6290527343749999
1.6161621093749998
1.5847412109374999
1.5492919921875
1.5428466796875
1.56943359375
1.56298828125
1.5517089843749998
1.5299560546875
1.5509033203125
1.5275390624999998
1.538818359375
1.5331787109375
1.5460693359375
1.6201904296874998
1.5807128906249999
1.5412353515625
1.5323730468749999
1.5323730468749999
1.5484863281249999
1.5057861328125
1.4759765624999999
1.474365234375
1.4993408203124998
1.48564453125
1.4896728515625
1.5073974609374998
1.529150390625
1.533984375
1.533984375
1.5122314453124999
1.5243164062499999
1.529150390625
1.51787109375
1.525927734375
1.4687255859375
1.474365234375
1.5017578125
1.50498046875
1.533984375
1.5517089843749998
1.5839355468749998
1.6403320312499998
1.577490234375
1.561376953125
1.593603515625
1.5509033203125
1.5726562499999999
1.5509033203125
1.5082031249999999
1.5243164062499999
1.533984375
1.5299560546875
1.5267333984375
1.5162597656249999
1.545263671875
1.6048828124999999
1.6201904296874998
1.5637939453124998
1.5662109375
1.5396240234374998
1.5057861328125
1.4920898437499999
1.4993408203124998
1.4791992187499998
1.49853515625
1.4961181640624999
1.5404296874999999
1.5243164062499999
1.5114257812499998
1.5380126953125
1.4928955078125
1.522705078125
1.53076171875
1.53720703125
1.5162597656249999
1.5460693359375
1.4622802734375
1.4276367187499999
1.5138427734375
1.5243164062499999
1.513037109375
1.5476806640624998
1.554931640625
1.6411376953124999
1.6105224609375
1.5436523437499998
1.558154296875
1.5428466796875
1.5597656249999998
1.5476806640624998
1.5436523437499998
1.5533203125
1.5275390624999998
1.5235107421874998
1.5404296874999999
1.5525146484374999
1.5355957031249998
1.53076171875
1.638720703125
1.5750732421875
1.5517089843749998
1.5541259765625
1.5428466796875
1.5025634765625
1.480810546875
1.4759765624999999
1.4800048828124999
1.496923828125
1.4864501953125
1.5041748046874999
1.525927734375
1.53076171875
1.5041748046874999
1.5283447265624999
1.5243164062499999
1.5170654296875
1.5323730468749999
1.5412353515625
1.4840332031249999
1.4381103515625
1.5017578125
1.5323730468749999
1.4888671875
1.5565429687499999
1.545263671875
1.6508056640625
1.6177734375
1.5807128906249999
1.5517089843749998
1.5621826171875
1.558154296875
1.558154296875
1.5186767578125
1.5299560546875
1.5492919921875
1.5331787109375
1.5444580078124999
1.538818359375
1.5396240234374998
1.5267333984375
1.6612792968749999
1.585546875
1.5557373046874998
1.5412353515625
1.52109375
1.5033691406249998
1.5001464843749999
1.4671142578124998
1.4735595703125
1.4711425781249998
1.5025634765625
1.542041015625
1.48564453125
1.5138427734375
1.5275390624999998
1.5186767578125
1.5218994140625
1.5146484375
1.5436523437499998
1.5444580078124999
1.5517089843749998
1.4155517578124999
1.4840332031249999
1.4953124999999998
1.4945068359375
1.546875
1.5565429687499999
1.6346923828125
1.590380859375
1.587158203125
1.5815185546875
1.5758789062499998
1.554931640625
1.5364013671874999
1.5557373046874998
1.5484863281249999
1.5299560546875
1.5573486328125
1.545263671875
1.51787109375
1.50498046875
1.545263671875
1.6218017578125
1.590380859375
1.56298828125
1.5621826171875
1.53076171875
1.5194824218749998
1.4880615234374999
1.4880615234374999
1.458251953125
1.49853515625
1.5009521484375
1.5122314453124999
1.5146484375
1.5170654296875
1.52109375
1.5315673828124998
1.5146484375
1.529150390625
1.533984375
1.5275390624999998
1.5331787109375
1.4147460937499998
1.461474609375
1.5082031249999999
1.5009521484375
1.5299560546875
1.542041015625
1.5944091796875
1.65
1.577490234375
1.5662109375
1.574267578125
1.5460693359375
1.5436523437499998
1.533984375
1.5597656249999998
1.5476806640624998
1.509814453125
1.5243164062499999
1.5218994140625
1.5460693359375
1.5275390624999998
1.603271484375
1.5879638671874998
1.5758789062499998
1.5573486328125
1.5444580078124999
1.525927734375
1.4848388671875
1.4791992187499998
1.480810546875
1.4840332031249999
1.4953124999999998
1.5194824218749998
1.5122314453124999
1.5202880859374999
1.533984375
1.52109375
1.5162597656249999
1.5428466796875
1.529150390625
1.53720703125
1.5323730468749999
1.4236083984374999
1.4477783203124999
1.4920898437499999
1.51787109375
1.51787109375
1.5597656249999998
1.5533203125
1.6072998046875
1.593603515625
1.571044921875
1.5525146484374999
1.56298828125
1.5517089843749998
1.5662109375
1.5364013671874999
1.5428466796875
1.538818359375
1.5323730468749999
1.5267333984375
1.5194824218749998
1.5162597656249999
1.5662109375
1.611328125
1.5678222656249998
1.5726562499999999
1.5662109375
1.5057861328125
1.496923828125
1.4679199218749999
1.47275390625
1.4896728515625
1.5017578125
1.49853515625
1.5162597656249999
1.5170654296875
1.513037109375
1.5476806640624998
1.5194824218749998
1.5283447265624999
1.5041748046874999
1.5235107421874998
1.5565429687499999
1.4800048828124999
1.4574462890625
1.5283447265624999
1.509814453125
1.4574462890625
1.542041015625
1.561376953125
1.6363037109374998
1.5887695312499999
1.5637939453124998
1.56298828125
1.5444580078124999
1.5412353515625
1.55009765625
1.538818359375
1.5444580078124999
1.529150390625
1.542041015625
1.5355957031249998
1.5299560546875
1.5509033203125
1.5662109375
1.6508056640625
1.56298828125
1.5484863281249999
1.5364013671874999
1.5364013671874999
1.5122314453124999
1.4920898437499999
1.4711425781249998
1.46630859375
1.49853515625
1.5082031249999999
1.5106201171875
1.4896728515625
1.5243164062499999
1.5194824218749998
1.4928955078125
1.5323730468749999
1.5364013671874999
1.5331787109375
1.5404296874999999
1.4912841796874998
1.397021484375
1.5033691406249998
1.4888671875
1.542041015625
1.554931640625
1.558154296875
1.6121337890624998
1.6072998046875
1.5791015625
1.5557373046874998
1.5645996093749999
1.5525146484374999
1.5573486328125
1.525927734375
1.5718505859374998
1.5517089843749998
1.5404296874999999
1.5412353515625
1.52109375
1.5404296874999999
1.5355957031249998
1.6371093749999999
1.5718505859374998
1.546875
1.5355957031249998
1.5484863281249999
1.525927734375
1.4872558593749998
1.4832275390624998
1.477587890625
1.4896728515625
1.5090087890625
1.5073974609374998
1.5154541015624998
1.5082031249999999
1.5235107421874998
1.5267333984375
1.5299560546875
1.5138427734375
1.5170654296875
1.5436523437499998
1.5122314453124999
1.4195800781249999
1.4864501953125
1.5009521484375
1.5162597656249999
1.52109375
1.561376953125
1.6282470703124998
1.6129394531249999
1.59521484375
1.5750732421875
1.5766845703124999
1.554931640625
1.546875
1.538818359375
1.5509033203125
1.5380126953125
1.5355957031249998
1.5645996093749999
1.5235107421874998
1.546875
1.5251220703125
1.6185791015625
1.5887695312499999
1.5396240234374998
1.542041015625
1.5396240234374998
1.5194824218749998
1.4800048828124999
1.4630859374999998
1.47275390625
1.5009521484375
1.482421875
1.5017578125
1.5138427734375
1.5154541015624998
1.5170654296875
1.5017578125
1.522705078125
1.5315673828124998
1.5364013671874999
1.4993408203124998
1.5525146484374999
1.456640625
1.509814453125
1.5218994140625
1.5162597656249999
1.5331787109375
1.5597656249999998
1.587158203125
1.6234130859375
1.5702392578125
1.5662109375
1.55009765625
1.5597656249999998
1.5533203125
1.5355957031249998
1.5662109375
1.5315673828124998
1.5235107421874998
1.5509033203125
1.5355957031249998
1.5380126953125
1.561376953125
1.6201904296874998
1.5750732421875
1.5541259765625
1.5541259765625
1.5243164062499999
1.5218994140625
1.4912841796874998
1.4590576171874998
1.4671142578124998
1.4920898437499999
1.4872558593749998
1.5114257812499998
1.5009521484375
1.49853515625
1.5162597656249999
1.5170654296875
1.5251220703125
1.5460693359375
1.545263671875
1.5589599609375
1.55009765625
1.4276367187499999
1.4413330078125
1.5218994140625
1.5146484375
1.5243164062499999
1.546875
1.56943359375
1.6266357421875
1.6153564453125
1.5968261718749999
1.5621826171875
1.5436523437499998
1.55009765625
1.5525146484374999
1.5194824218749998
1.5662109375
1.5355957031249998
1.533984375
1.538818359375
1.5428466796875
1.5492919921875
1.5718505859374998
1.6000488281249998
1.5509033203125
1.5541259765625
1.5517089843749998
1.5106201171875
1.5057861328125
1.4816162109375
1.482421875
1.4606689453125
1.4848388671875
1.5267333984375
1.5162597656249999
1.513037109375
1.5283447265624999
1.5138427734375
1.5146484375
1.5218994140625
1.5235107421874998
1.53720703125
1.53720703125
1.4510009765624998
1.4526123046875
1.5251220703125
1.5122314453124999
1.522705078125
1.5396240234374998
1.5444580078124999
1.6282470703124998
1.5807128906249999
1.5976318359375
1.5541259765625
1.5484863281249999
1.5645996093749999
1.5573486328125
1.5412353515625
1.5404296874999999
1.5283447265624999
1.5364013671874999
1.5283447265624999
1.52109375
1.5573486328125
1.5541259765625
1.6234130859375
1.5686279296874999
1.5565429687499999
1.5702392578125
1.5235107421874998
1.5267333984375
1.496923828125
1.4888671875
1.4864501953125
1.4864501953125
1.480810546875
1.4977294921875
1.5251220703125
1.5202880859374999
1.5283447265624999
1.5235107421874998
1.55009765625
1.5364013671874999
1.5235107421874998
1.5146484375
1.5202880859374999
1.3833251953124999
1.5041748046874999
1.4977294921875
1.52109375
1.5525146484374999
1.5533203125
1.638720703125
1.6081054687499998
1.5799072265624998
1.545263671875
1.5734619140625
1.5654052734375
1.5517089843749998
1.5412353515625
1.50498046875
1.53720703125
1.5186767578125
1.5565429687499999
1.5315673828124998
1.525927734375
1.538818359375
1.641943359375
1.574267578125
1.558154296875
1.5396240234374998
1.5355957031249998
1.5218994140625
1.4880615234374999
1.4848388671875
1.4711425781249998
1.4848388671875
1.4993408203124998
1.5122314453124999
1.5275390624999998
1.5412353515625
1.5162597656249999
1.50498046875
1.5364013671874999
1.5509033203125
1.53720703125
1.5251220703125
1.5275390624999998
1.4252197265625
1.4848388671875
1.5194824218749998
1.4912841796874998
1.5251220703125
1.5686279296874999
1.5887695312499999
1.622607421875
1.5863525390625
1.56943359375
1.5436523437499998
1.5509033203125
1.5686279296874999
1.5517089843749998
1.5347900390625
1.5355957031249998
1.5436523437499998
1.5444580078124999
1.5243164062499999
1.5243164062499999
1.5267333984375
1.63388671875
1.571044921875
1.5428466796875
1.5396240234374998
1.538818359375
1.5275390624999998
1.477587890625
1.4703369140625
1.4501953125
1.4928955078125
1.49853515625
1.5194824218749998
1.5114257812499998
1.50498046875
1.5162597656249999
1.5114257812499998
1.5331787109375
1.5251220703125
1.5218994140625
1.5444580078124999
1.5412353515625
1.4147460937499998
1.4791992187499998
1.5073974609374998
1.5194824218749998
1.5235107421874998
1.5396240234374998
1.58232421875
1.6266357421875
1.5911865234375
1.577490234375
1.561376953125
1.55009765625
1.545263671875
1.546875
1.5396240234374998
1.5380126953125
1.5331787109375
1.5323730468749999
1.538818359375
1.5517089843749998
1.545263671875
1.6129394531249999
1.6105224609375
1.56943359375
1.5476806640624998
1.525927734375
1.5162597656249999
1.4832275390624998
1.4735595703125
1.4711425781249998
1.4920898437499999
1.525927734375
1.4783935546875
1.5162597656249999
1.51787109375
1.5082031249999999
1.5154541015624998
1.509814453125
1.5194824218749998
1.5428466796875
1.55009765625
1.5428466796875
1.4598632812499999
1.4703369140625
1.5082031249999999
1.5106201171875
1.5267333984375
1.538818359375
1.5678222656249998
1.63388671875
1.593603515625
1.5718505859374998
1.5605712890624999
1.561376953125
1.546875
1.538818359375
1.5364013671874999
1.5347900390625
1.554931640625
1.5645996093749999
1.533984375
1.5283447265624999
1.5404296874999999
1.5863525390625
1.6177734375
1.5541259765625
1.558154296875
1.5444580078124999
1.5267333984375
1.5017578125
1.4840332031249999
1.4735595703125
1.4800048828124999
1.5017578125
1.50498046875
1.5082031249999999
1.5428466796875
1.5146484375
1.5323730468749999
1.5138427734375
1.5235107421874998
1.5251220703125
1.5267333984375
1.5202880859374999
1.4703369140625
1.4268310546874998
1.513037109375
1.4977294921875
1.513037109375
1.5355957031249998
1.5847412109374999
1.6242187499999998
1.6008544921874999
1.574267578125
1.5557373046874998
1.5557373046874998
1.5621826171875
1.53076171875
1.538818359375
1.5460693359375
1.5275390624999998
1.5380126953125
1.5194824218749998
1.5267333984375
1.5146484375
1.5444580078124999
1.6298583984375
1.5839355468749998
1.546875
1.5533203125
1.5412353515625
1.51787109375
1.4783935546875
1.4638916015624999
1.5090087890625
1.5138427734375
1.49853515625
1.5017578125
1.5202880859374999
1.5114257812499998
1.529150390625
1.5235107421874998
1.5476806640624998
1.5460693359375
1.5444580078124999
1.5235107421874998
1.5202880859374999
1.4139404296875
1.4896728515625
1.5041748046874999
1.525927734375
1.5364013671874999
1.55009765625
1.638720703125
1.62744140625
1.5678222656249998
1.5355957031249998
1.554931640625
1.5541259765625
1.5597656249999998
1.5444580078124999
1.5412353515625
1.5364013671874999
1.5347900390625
1.533984375
1.5315673828124998
1.525927734375
1.5331787109375
1.638720703125
1.60166015625
1.5645996093749999
1.5557373046874998
1.5154541015624998
1.5073974609374998
1.45341796875
1.4864501953125
1.48564453125
1.4880615234374999
1.5025634765625
1.5090087890625
1.5106201171875
1.5355957031249998
1.5114257812499998
1.5243164062499999
1.533984375
1.5299560546875
1.5106201171875
1.542041015625
1.5380126953125
1.4139404296875
1.4896728515625
1.5009521484375
1.52109375
1.5444580078124999
1.53720703125
1.5992431640625
1.6153564453125
1.5726562499999999
1.5597656249999998
1.5645996093749999
1.5509033203125
1.5364013671874999
1.5726562499999999
1.5621826171875
1.5404296874999999
1.5331787109375
1.554931640625
1.53720703125
1.5436523437499998
1.53720703125
1.6363037109374998
1.56298828125
1.533984375
1.561376953125
1.533984375
1.5138427734375
1.4872558593749998
1.46953125
1.4864501953125
1.496923828125
1.4864501953125
1.4800048828124999
1.4920898437499999
1.51787109375
1.522705078125
1.5331787109375
1.5404296874999999
1.53720703125
1.5299560546875
1.5057861328125
1.53076171875
1.4284423828125
1.4671142578124998
1.506591796875
1.5073974609374998
1.5484863281249999
1.5654052734375
1.6153564453125
1.6411376953124999
1.5919921874999998
1.5517089843749998
1.5517089843749998
1.558154296875
1.5509033203125
1.5589599609375
1.5243164062499999
1.5315673828124998
1.554931640625
1.53720703125
1.5355957031249998
1.5299560546875
1.5355957031249998
1.587158203125
1.571044921875
1.5686279296874999
1.5791015625
1.5202880859374999
1.50498046875
1.4945068359375
1.5033691406249998
1.4848388671875
1.4880615234374999
1.4783935546875
1.5114257812499998
1.5162597656249999
1.5275390624999998
1.5299560546875
1.522705078125
1.5299560546875
1.5323730468749999
1.51787109375
1.525927734375
1.5299560546875
1.4139404296875
1.4719482421874999
1.4977294921875
1.509814453125
1.5364013671874999
1.5509033203125
1.6266357421875
1.61455078125
1.574267578125
1.5621826171875
1.5355957031249998
1.5645996093749999
1.5484863281249999
1.5412353515625
1.5492919921875
1.5573486328125
1.5492919921875
1.5194824218749998
1.5275390624999998
1.5444580078124999
1.545263671875
1.587158203125
1.625830078125
1.5702392578125
1.5565429687499999
1.542041015625
1.5033691406249998
1.4945068359375
1.4840332031249999
1.4751708984374998
1.4896728515625
1.5090087890625
