1.4679199218749999
1.46630859375
1.4791992187499998
1.5243164062499999
1.4719482421874999
1.50498046875
1.533984375
1.525927734375
1.5114257812499998
1.5146484375
1.5460693359375
1.529150390625
1.5057861328125
1.5235107421874998
1.509814453125
1.4389160156249998
1.48564453125
1.4945068359375
1.506591796875
1.5355957031249998
1.5476806640624998
1.6314697265625
1.611328125
1.5863525390625
1.5565429687499999
1.5509033203125
1.5597656249999998
1.5557373046874998
1.5380126953125
1.5347900390625
1.558154296875
1.53076171875
1.5106201171875
1.522705078125
1.5404296874999999
1.53076171875
1.6483886718749998
1.5791015625
1.5662109375
1.5565429687499999
1.542041015625
1.5106201171875
1.4719482421874999
1.47275390625
1.482421875
1.4896728515625
1.490478515625
1.5009521484375
1.5235107421874998
1.5170654296875
1.5138427734375
1.525927734375
1.538818359375
1.506591796875
1.5396240234374998
1.5404296874999999
1.53720703125
1.416357421875
1.482421875
1.4945068359375
1.49853515625
1.5267333984375
1.5396240234374998
1.5492919921875
1.6411376953124999
1.5847412109374999
1.5782958984375
1.5758789062499998
1.554931640625
1.522705078125
1.5557373046874998
1.56298828125
1.5492919921875
1.5275390624999998
1.5267333984375
1.5347900390625
1.5484863281249999
1.52109375
1.6403320312499998
1.6056884765625
1.558154296875
1.5589599609375
1.5541259765625
1.509814453125
1.4437499999999999
1.4638916015624999
1.464697265625
1.5001464843749999
1.509814453125
1.513037109375
1.5057861328125
1.5146484375
1.5090087890625
1.5323730468749999
1.5186767578125
1.546875
1.5565429687499999
1.5090087890625
1.53076171875
1.416357421875
1.4711425781249998
1.5090087890625
1.5073974609374998
1.53076171875
1.5541259765625
1.590380859375
1.641943359375
1.5815185546875
1.554931640625
1.5718505859374998
1.558154296875
1.561376953125
1.5299560546875
1.53720703125
1.561376953125
1.538818359375
1.5267333984375
1.525927734375
1.5404296874999999
1.5364013671874999
1.6008544921874999
1.6048828124999999
1.5565429687499999
1.5509033203125
1.5589599609375
1.5275390624999998
1.5009521484375
1.4477783203124999
1.4671142578124998
1.480810546875
1.493701171875
1.50498046875
1.4767822265625
1.5146484375
1.5460693359375
1.5218994140625
1.5275390624999998
1.51787109375
1.5202880859374999
1.5162597656249999
1.5347900390625
1.4711425781249998
1.42119140625
1.49853515625
1.5122314453124999
1.5082031249999999
1.5323730468749999
1.5686279296874999
1.6508056640625
1.5960205078124998
1.5734619140625
1.5621826171875
1.5750732421875
1.55009765625
1.5364013671874999
1.5525146484374999
1.53720703125
1.5315673828124998
1.5251220703125
1.525927734375
1.538818359375
1.53720703125
1.5517089843749998
1.6459716796875
1.5702392578125
1.5517089843749998
1.5460693359375
1.5267333984375
1.5025634765625
1.4896728515625
1.4711425781249998
1.4832275390624998
1.4888671875
1.4977294921875
1.5146484375
1.5243164062499999
1.5082031249999999
1.5170654296875
1.5146484375
1.5090087890625
1.5235107421874998
1.5412353515625
1.56298828125
1.5267333984375
1.4219970703125
1.4832275390624998
1.5025634765625
1.5017578125
1.5364013671874999
1.5492919921875
1.6177734375
1.5968261718749999
1.5831298828125
1.5887695312499999
1.546875
1.5509033203125
1.5476806640624998
1.5283447265624999
1.5251220703125
1.5251220703125
1.5412353515625
1.522705078125
1.545263671875
1.5283447265624999
1.542041015625
1.65966796875
1.5815185546875
1.558154296875
1.5533203125
1.5315673828124998
1.5090087890625
1.4920898437499999
1.4816162109375
1.4848388671875
1.4961181640624999
1.49853515625
1.5154541015624998
1.4920898437499999
1.522705078125
1.50498046875
1.5251220703125
1.5283447265624999
1.509814453125
1.5331787109375
1.545263671875
1.5444580078124999
1.4091064453125
1.4840332031249999
1.52109375
1.4840332031249999
1.55009765625
1.55009765625
1.6371093749999999
1.6137451171875
1.5782958984375
1.5645996093749999
1.558154296875
1.5533203125
1.5509033203125
1.5218994140625
1.5412353515625
1.5460693359375
1.5541259765625
1.542041015625
1.538818359375
1.5364013671874999
1.5202880859374999
1.6306640625
1.5887695312499999
1.5678222656249998
1.5404296874999999
1.53720703125
1.4953124999999998
1.4711425781249998
1.46953125
1.4800048828124999
1.490478515625
1.4928955078125
1.4832275390624998
1.4993408203124998
1.522705078125
1.5283447265624999
1.5283447265624999
1.5323730468749999
1.5436523437499998
1.5436523437499998
1.5122314453124999
1.5404296874999999
1.4026611328124998
1.4679199218749999
1.509814453125
1.509814453125
1.5154541015624998
1.5621826171875
1.59521484375
1.64677734375
1.5839355468749998
1.5565429687499999
1.5541259765625
1.5573486328125
1.558154296875
1.5533203125
1.5605712890624999
1.533984375
1.5170654296875
1.506591796875
1.5355957031249998
1.554931640625
1.522705078125
1.5911865234375
1.6089111328124999
1.546875
1.5718505859374998
1.546875
1.4912841796874998
1.490478515625
1.474365234375
1.4928955078125
1.493701171875
1.4671142578124998
1.4872558593749998
1.509814453125
1.5202880859374999
1.53720703125
1.51787109375
1.5275390624999998
1.5380126953125
1.5202880859374999
1.522705078125
1.5573486328125
1.416357421875
1.4550292968749998
1.5025634765625
1.5186767578125
1.509814453125
1.5243164062499999
1.5758789062499998
1.6089111328124999
1.5887695312499999
1.587158203125
1.558154296875
1.5565429687499999
1.525927734375
1.5283447265624999
1.533984375
1.5355957031249998
1.5146484375
1.5275390624999998
1.5517089843749998
1.542041015625
1.554931640625
1.5944091796875
1.6322753906249998
1.5750732421875
1.554931640625
1.5654052734375
1.5154541015624998
1.4961181640624999
1.4751708984374998
1.458251953125
1.4767822265625
1.5009521484375
1.50498046875
1.5347900390625
1.5025634765625
1.509814453125
1.5082031249999999
1.5315673828124998
1.5267333984375
1.5299560546875
1.5154541015624998
1.5323730468749999
1.46953125
1.4332763671875
1.5154541015624998
1.4848388671875
1.538818359375
1.5235107421874998
1.5380126953125
1.6483886718749998
1.6129394531249999
1.5670166015625
1.542041015625
1.5476806640624998
1.5573486328125
1.5380126953125
1.5267333984375
1.5541259765625
1.5283447265624999
1.5460693359375
1.5251220703125
1.5315673828124998
1.5243164062499999
1.5428466796875
1.6250244140624999
1.5734619140625
1.5662109375
1.5412353515625
1.522705078125
1.509814453125
1.4888671875
1.4912841796874998
1.4896728515625
1.4880615234374999
1.4832275390624998
1.5194824218749998
1.5138427734375
1.522705078125
1.52109375
1.5202880859374999
1.5170654296875
1.525927734375
1.52109375
1.5323730468749999
1.5017578125
1.416357421875
1.5057861328125
1.5073974609374998
1.5146484375
1.5412353515625
1.561376953125
1.6371093749999999
1.6218017578125
1.56298828125
1.5718505859374998
1.5347900390625
1.5315673828124998
1.55009765625
1.5484863281249999
1.5525146484374999
1.5509033203125
1.5404296874999999
1.5460693359375
1.5194824218749998
1.5186767578125
1.529150390625
1.6588623046875
1.5766845703124999
1.5428466796875
1.5436523437499998
1.5476806640624998
1.493701171875
1.46953125
1.4832275390624998
1.49853515625
1.5017578125
1.4928955078125
1.4848388671875
1.4961181640624999
1.5057861328125
1.51787109375
1.5218994140625
1.53720703125
1.5444580078124999
1.538818359375
1.53720703125
1.5331787109375
1.41796875
1.4928955078125
1.4993408203124998
1.5243164062499999
1.5218994140625
1.5444580078124999
1.5887695312499999
1.6056884765625
1.577490234375
1.5726562499999999
1.5637939453124998
1.5355957031249998
1.561376953125
1.55009765625
1.5645996093749999
1.5396240234374998
1.5267333984375
1.538818359375
1.5218994140625
1.5428466796875
1.5380126953125
1.6209960937499999
1.5968261718749999
1.5533203125
1.577490234375
1.5533203125
1.5396240234374998
1.49853515625
1.4679199218749999
1.46953125
1.5001464843749999
1.4800048828124999
1.4961181640624999
1.5090087890625
1.5154541015624998
1.5202880859374999
1.5138427734375
1.5396240234374998
1.5275390624999998
1.5106201171875
1.5396240234374998
1.5106201171875
1.4074951171874999
1.482421875
1.5073974609374998
1.50498046875
1.5605712890624999
1.5484863281249999
1.6040771484374998
1.6451660156249999
1.5557373046874998
1.5766845703124999
1.5718505859374998
1.53720703125
1.52109375
1.5114257812499998
1.5412353515625
1.5726562499999999
1.5484863281249999
1.546875
1.53720703125
1.5412353515625
1.5323730468749999
1.622607421875
1.6218017578125
1.5492919921875
1.571044921875
1.5565429687499999
1.5218994140625
1.50498046875
1.4518066406249999
1.432470703125
1.4598632812499999
1.5001464843749999
1.5025634765625
1.5090087890625
1.5162597656249999
1.5251220703125
1.5396240234374998
1.5347900390625
1.5404296874999999
1.513037109375
1.5347900390625
1.513037109375
1.4373046875
1.442138671875
1.5162597656249999
1.49853515625
1.51787109375
1.5299560546875
1.574267578125
1.6218017578125
1.593603515625
1.5726562499999999
1.5654052734375
1.5589599609375
1.5589599609375
1.5573486328125
1.53720703125
1.53720703125
1.5404296874999999
1.5283447265624999
1.533984375
1.5565429687499999
1.5057861328125
1.5444580078124999
1.6403320312499998
1.5412353515625
1.5428466796875
1.56298828125
1.5525146484374999
1.5025634765625
1.46630859375
1.493701171875
1.47275390625
1.50498046875
1.5194824218749998
1.506591796875
1.4928955078125
1.546875
1.5106201171875
1.5218994140625
1.5315673828124998
1.5331787109375
1.5186767578125
1.525927734375
1.5243164062499999
1.4348876953124998
1.506591796875
1.4953124999999998
1.5267333984375
1.546875
1.5589599609375
1.6564453124999998
1.6000488281249998
1.5799072265624998
1.5444580078124999
1.546875
1.5444580078124999
1.5347900390625
1.542041015625
1.55009765625
1.5404296874999999
1.533984375
1.525927734375
1.5436523437499998
1.529150390625
1.53720703125
1.6451660156249999
1.577490234375
1.5533203125
1.5839355468749998
1.545263671875
1.513037109375
1.4816162109375
1.4791992187499998
1.456640625
1.4920898437499999
1.4953124999999998
1.4977294921875
1.4880615234374999
1.5033691406249998
1.545263671875
1.5267333984375
1.5484863281249999
1.5331787109375
1.5170654296875
1.5299560546875
1.5202880859374999
1.3905761718749998
1.4928955078125
1.5082031249999999
1.5009521484375
1.5404296874999999
1.5678222656249998
1.6129394531249999
1.6411376953124999
1.5984375
1.5509033203125
1.5492919921875
1.5565429687499999
1.5484863281249999
1.5517089843749998
1.5275390624999998
1.53076171875
1.49853515625
1.52109375
1.546875
1.5533203125
1.5364013671874999
1.65966796875
1.5919921874999998
1.5702392578125
1.5404296874999999
1.5146484375
1.5170654296875
1.4872558593749998
1.4816162109375
1.46953125
1.493701171875
1.5106201171875
1.5162597656249999
1.5162597656249999
1.5331787109375
1.509814453125
1.509814453125
1.529150390625
1.529150390625
1.5283447265624999
1.5396240234374998
1.5251220703125
1.4107177734374998
1.4759765624999999
1.5017578125
1.5154541015624998
1.5347900390625
1.56298828125
1.6185791015625
1.625830078125
1.5670166015625
1.5645996093749999
1.561376953125
1.5589599609375
1.5186767578125
1.533984375
1.5517089843749998
1.5476806640624998
1.53076171875
1.5299560546875
1.5347900390625
1.5444580078124999
1.5170654296875
1.6234130859375
1.5976318359375
1.5686279296874999
1.5637939453124998
1.5275390624999998
1.5428466796875
1.4840332031249999
1.456640625
1.4735595703125
1.5001464843749999
1.4928955078125
1.5114257812499998
1.5170654296875
1.509814453125
1.546875
1.533984375
1.4953124999999998
1.50498046875
1.5476806640624998
1.55009765625
1.50498046875
1.400244140625
1.464697265625
1.5114257812499998
1.50498046875
1.5323730468749999
1.529150390625
1.58232421875
1.6161621093749998
1.59521484375
1.5702392578125
1.5404296874999999
1.5597656249999998
1.5428466796875
1.5621826171875
1.5557373046874998
1.53720703125
1.538818359375
1.5323730468749999
1.5243164062499999
1.5404296874999999
1.5355957031249998
1.619384765625
1.6379150390625
1.5605712890624999
1.5355957031249998
1.5412353515625
1.5073974609374998
1.4993408203124998
1.480810546875
1.4655029296875
1.4888671875
1.4953124999999998
1.5033691406249998
1.5170654296875
1.5090087890625
1.5154541015624998
1.5057861328125
1.529150390625
1.546875
1.5436523437499998
1.529150390625
1.53076171875
1.4638916015624999
1.45341796875
1.493701171875
1.50498046875
1.5243164062499999
1.5492919921875
1.5621826171875
1.6282470703124998
1.6008544921874999
1.5734619140625
1.5492919921875
1.5412353515625
1.5315673828124998
1.5114257812499998
1.5162597656249999
1.5122314453124999
1.53076171875
1.5331787109375
1.5428466796875
1.5662109375
1.55009765625
1.5573486328125
1.6314697265625
1.55009765625
1.5557373046874998
1.5355957031249998
1.493701171875
1.49853515625
1.5009521484375
1.490478515625
1.477587890625
1.496923828125
1.482421875
1.5017578125
1.538818359375
1.4912841796874998
1.52109375
1.5460693359375
1.5323730468749999
1.5170654296875
1.5025634765625
1.52109375
1.4518066406249999
1.4171630859375
1.5154541015624998
1.4920898437499999
1.51787109375
1.5509033203125
1.5718505859374998
1.66611328125
1.6121337890624998
1.5863525390625
1.561376953125
1.5718505859374998
1.5678222656249998
1.5428466796875
1.5517089843749998
1.5347900390625
1.533984375
1.542041015625
1.542041015625
1.4993408203124998
1.5251220703125
1.5218994140625
1.6612792968749999
1.5484863281249999
1.52109375
1.53720703125
1.5428466796875
1.5218994140625
1.5017578125
1.4800048828124999
1.490478515625
1.5122314453124999
1.5041748046874999
1.5090087890625
1.522705078125
1.5412353515625
1.5186767578125
1.5396240234374998
1.5428466796875
1.5073974609374998
1.5235107421874998
1.4783935546875
1.53720703125
1.3946044921874998
1.47275390625
1.4679199218749999
1.5428466796875
1.56298828125
1.545263671875
1.619384765625
1.6250244140624999
1.5879638671874998
1.5750732421875
1.5750732421875
1.5380126953125
1.529150390625
1.5404296874999999
1.5509033203125
1.5605712890624999
1.5517089843749998
1.5750732421875
1.5589599609375
1.529150390625
1.561376953125
1.6693359374999999
1.58232421875
1.542041015625
1.52109375
1.5202880859374999
1.4896728515625
1.4276367187499999
1.4187744140624998
1.4091064453125
1.4751708984374998
1.4953124999999998
1.477587890625
1.5275390624999998
1.5557373046874998
1.5678222656249998
1.5323730468749999
1.5114257812499998
1.5573486328125
1.5605712890624999
1.5404296874999999
1.5412353515625
1.4236083984374999
1.4501953125
1.5243164062499999
1.5436523437499998
1.525927734375
1.5662109375
1.6105224609375
1.6475830078125
1.60166015625
1.5597656249999998
1.53076171875
1.5170654296875
1.5315673828124998
1.5396240234374998
1.53720703125
1.5170654296875
1.525927734375
1.5517089843749998
1.53076171875
1.5541259765625
1.56298828125
1.67578125
1.6177734375
1.5428466796875
1.5960205078124998
1.6000488281249998
1.5275390624999998
1.4518066406249999
1.3929931640625
1.416357421875
1.48564453125
1.506591796875
1.542041015625
1.5138427734375
1.5017578125
1.5267333984375
1.4920898437499999
1.5017578125
1.5299560546875
1.5267333984375
1.5315673828124998
1.506591796875
1.3623779296874998
1.384130859375
1.4800048828124999
1.4888671875
1.545263671875
1.5726562499999999
1.6306640625
1.7007568359374998
1.6701416015625
1.6081054687499998
1.5090087890625
1.4783935546875
1.482421875
1.5122314453124999
1.5347900390625
1.5162597656249999
1.5090087890625
1.4896728515625
1.529150390625
1.5831298828125
1.53076171875
1.5718505859374998
1.635498046875
1.5355957031249998
1.533984375
1.525927734375
1.5001464843749999
1.46953125
1.4187744140624998
1.47275390625
1.4622802734375
1.533984375
1.5686279296874999
1.4896728515625
1.4848388671875
1.522705078125
1.5082031249999999
1.5162597656249999
1.5412353515625
1.5670166015625
1.5847412109374999
1.522705078125
1.448583984375
1.416357421875
1.4598632812499999
1.4719482421874999
1.46630859375
1.4928955078125
1.5162597656249999
1.714453125
1.687060546875
1.69189453125
1.6153564453125
1.5799072265624998
1.513037109375
1.4953124999999998
1.545263671875
1.5718505859374998
1.6081054687499998
1.5702392578125
1.5017578125
1.5162597656249999
1.4945068359375
1.546875
1.7265380859375
1.6322753906249998
1.5807128906249999
1.5662109375
1.533984375
1.4896728515625
1.429248046875
1.4074951171874999
1.413134765625
1.442138671875
1.4622802734375
1.4816162109375
1.48564453125
1.5235107421874998
1.5267333984375
1.5025634765625
1.4735595703125
1.5323730468749999
1.5194824218749998
1.5154541015624998
1.4735595703125
1.3075927734375
1.464697265625
1.4171630859375
1.4598632812499999
1.5194824218749998
1.5645996093749999
1.7901855468749999
1.7499023437499999
1.6773925781249999
1.5968261718749999
1.6266357421875
1.5847412109374999
1.5565429687499999
1.5758789062499998
1.5686279296874999
1.5509033203125
1.4977294921875
1.4993408203124998
1.480810546875
1.4638916015624999
1.5275390624999998
1.8489990234375
1.7088134765624998
1.654833984375
1.6218017578125
1.529150390625
1.5122314453124999
1.3414306640625
1.216552734375
1.2584472656249999
1.3551269531249999
1.3921875
1.3768798828125
1.3929931640625
1.4953124999999998
1.5702392578125
1.5315673828124998
1.61455078125
1.7039794921875
1.67578125
1.5686279296874999
1.448583984375
1.1279296875
1.2866455078124999
1.4010498046875
1.4244140625
1.4759765624999999
1.6209960937499999
1.8892822265625
1.925537109375
1.8038818359375
1.6693359374999999
1.5726562499999999
1.5017578125
1.55009765625
1.561376953125
1.5718505859374998
1.5919921874999998
1.5541259765625
1.5509033203125
1.4928955078125
1.52109375
1.59521484375
1.9907958984374998
1.7990478515625
1.6185791015625
1.5992431640625
1.6306640625
1.4840332031249999
1.2947021484374999
1.2455566406249998
1.2020507812499999
1.2656982421874998
1.3229003906249999
1.3639892578125
1.3704345703124998
1.4590576171874998
1.5082031249999999
1.5541259765625
1.6234130859375
1.5645996093749999
1.6330810546874999
1.6314697265625
1.6137451171875
1.0828125
1.1561279296875
1.335791015625
1.4687255859375
1.5009521484375
1.5758789062499998
1.8143554687499999
1.8763916015625
1.85947265625
1.6733642578124999
1.58232421875
1.6169677734374999
1.641943359375
1.5766845703124999
1.6072998046875
1.4735595703125
1.448583984375
1.513037109375
1.448583984375
1.4550292968749998
1.50498046875
1.9037841796875
1.87236328125
1.7370117187499998
1.654833984375
1.6250244140624999
1.5146484375
1.3180664062499998
1.19560546875
1.2020507812499999
1.2665039062499999
1.40185546875
1.4542236328125
1.4010498046875
1.5082031249999999
1.538818359375
1.5380126953125
1.6330810546874999
1.5984375
1.5927978515624999
1.654833984375
1.5637939453124998
1.0803955078125
1.1287353515625
1.297119140625
1.3269287109374999
1.351904296875
1.5847412109374999
1.819189453125
2.0971435546875
1.8739746093749998
1.7748779296875
1.6975341796874999
1.6282470703124998
1.6137451171875
1.5412353515625
1.6040771484374998
1.4759765624999999
1.4655029296875
1.480810546875
1.5033691406249998
1.4977294921875
1.5791015625
1.706396484375
1.9835449218749999
1.7740722656249999
1.7039794921875
1.6282470703124998
1.490478515625
1.3792968749999999
1.2374999999999998
1.2109130859375
1.2141357421874999
1.3043701171875
1.3559326171875
1.4977294921875
1.4920898437499999
1.5243164062499999
1.4840332031249999
1.4864501953125
1.545263671875
1.5605712890624999
1.6000488281249998
1.5202880859374999
1.1384033203125
1.0578369140625
1.2705322265624999
1.35673828125
1.5589599609375
1.611328125
1.7120361328125
2.022216796875
1.9271484374999999
1.7853515624999998
1.6612792968749999
1.6435546875
1.4928955078125
1.5299560546875
1.4888671875
1.4961181640624999
1.561376953125
1.5726562499999999
1.5533203125
1.5637939453124998
1.5073974609374998
1.5517089843749998
1.9682373046875
1.8103271484374999
1.7370117187499998
1.5911865234375
1.4066894531249998
1.3059814453124998
1.197216796875
1.219775390625
1.3510986328124999
1.345458984375
1.429248046875
1.38896484375
1.477587890625
1.5847412109374999
1.5807128906249999
1.6048828124999999
1.6218017578125
1.5315673828124998
1.5025634765625
1.496923828125
1.3873535156249999
1.0489746093749999
1.3188720703124999
1.4719482421874999
1.5428466796875
1.6540283203125
1.65966796875
1.9537353515625
1.9231201171874999
1.7877685546875
1.674169921875
1.6169677734374999
1.6218017578125
1.5557373046874998
1.4872558593749998
1.590380859375
1.55009765625
1.4526123046875
1.4244140625
1.4518066406249999
1.53076171875
1.5380126953125
1.998046875
1.8618896484374998
1.7531249999999998
1.5597656249999998
1.5122314453124999
1.335791015625
1.1964111328125
1.1915771484375
1.1964111328125
1.3341796874999998
1.5057861328125
1.545263671875
1.522705078125
1.5073974609374998
1.56943359375
1.59521484375
1.63388671875
1.6443603515624998
1.6129394531249999
1.5218994140625
1.4953124999999998
0.9756591796874999
1.1593505859375
1.2697265624999998
1.3857421875
1.4920898437499999
1.6749755859375
1.948095703125
2.0939208984374997
1.8522216796875
1.7797119140625
1.6894775390624999
1.5283447265624999
1.5960205078124998
1.6620849609375
1.619384765625
1.6298583984375
1.5621826171875
1.5404296874999999
1.4759765624999999
1.4373046875
1.4437499999999999
1.93359375
1.8232177734375
1.7088134765624998
1.6306640625
1.5782958984375
1.4461669921875
1.2536132812499998
1.1416259765624999
1.1529052734375
1.2511962890625
1.3470703124999999
1.4590576171874998
1.4791992187499998
1.53720703125
1.5436523437499998
1.51787109375
1.5766845703124999
1.5525146484374999
1.5758789062499998
1.651611328125
1.5251220703125
0.978076171875
1.0828125
1.1947998046875
1.3978271484375
1.5565429687499999
1.641943359375
1.93359375
1.9730712890625
1.9513183593749999
1.8659179687499998
1.748291015625
1.6572509765624999
1.587158203125
1.4316650390624999
1.4880615234374999
1.4928955078125
1.5202880859374999
1.4300537109375
1.4848388671875
1.5428466796875
1.4687255859375
1.82724609375
1.9746826171874998
1.85947265625
1.7595703125
1.754736328125
1.6201904296874998
1.380908203125
1.1657958984374999
1.1013427734374999
1.168212890625
1.1617675781249999
1.20849609375
1.264892578125
1.5283447265624999
1.474365234375
1.477587890625
1.474365234375
1.529150390625
1.490478515625
1.545263671875
1.558154296875
1.02802734375
1.0328613281249999
1.0868408203125
1.1045654296875
1.1859374999999999
1.3430419921874999
1.525927734375
2.0310791015625
2.0923095703125
2.0214111328124997
1.98837890625
1.9037841796875
1.8280517578125
1.732177734375
1.69833984375
1.6443603515624998
1.6218017578125
1.4630859374999998
1.542041015625
1.545263671875
1.4928955078125
1.8949218749999999
2.1889892578125
2.0826416015625
1.9102294921874998
1.9118408203125
1.7748779296875
1.603271484375
1.2536132812499998
1.0578369140625
1.00224609375
1.003857421875
1.0884521484375
1.1778808593749999
1.271337890625
1.3333740234375
1.405078125
1.3986328124999998
1.3543212890624998
1.5162597656249999
1.5436523437499998
1.6169677734374999
1.1923828125
0.8967041015624999
0.9232910156249999
1.0691162109374999
1.14404296875
1.2882568359375
1.5702392578125
2.075390625
2.1543457031249997
2.093115234375
2.03994140625
1.9223144531249998
1.8240234375
1.71123046875
1.7217041015624999
1.6048828124999999
1.542041015625
1.6604736328124998
1.635498046875
1.5702392578125
1.6048828124999999
1.5315673828124998
2.1906005859374997
2.1140624999999997
2.1221191406249997
2.023828125
1.8417480468749998
1.6290527343749999
1.2705322265624999
0.9732421874999999
0.91201171875
0.9176513671875
1.1045654296875
1.148876953125
1.142431640625
1.2205810546875
1.29228515625
1.348681640625
1.48564453125
1.5082031249999999
1.3978271484375
1.4123291015625
1.4026611328124998
0.7734375
0.9160400390625
0.9555175781249999
1.0642822265625
1.2447509765625
1.4598632812499999
2.1132568359375
2.18173828125
2.263916015625
2.189794921875
1.9730712890625
1.9891845703125
1.91748046875
1.8554443359375
1.7128417968749998
1.5815185546875
1.400244140625
1.4042724609375
1.4373046875
1.4638916015624999
1.5041748046874999
2.2566650390625
2.22041015625
2.193017578125
2.13984375
1.9311767578124999
1.6572509765624999
1.3873535156249999
1.11826171875
1.0481689453125
1.0320556640625
1.077978515625
1.15048828125
1.3220947265624998
1.3108154296874999
1.3237060546875
1.3575439453125
1.3656005859375
1.4364990234375
1.4542236328125
1.5847412109374999
1.5380126953125
0.8370849609375
0.6775634765624999
0.7194580078124999
0.825
1.087646484375
1.2286376953125
1.7080078125
2.14951171875
2.20751953125
2.173681640625
2.038330078125
2.0842529296875
1.9062011718749998
1.8868652343749999
1.7781005859374999
1.7531249999999998
1.7168701171874998
1.6693359374999999
1.5396240234374998
1.6177734375
1.56943359375
2.204296875
2.325146484375
2.2631103515624997
2.1599853515625
2.0254394531249997
1.832080078125
1.480810546875
1.0771728515624999
1.0167480468749999
0.9152343749999999
0.855615234375
0.8435302734375
0.936181640625
1.1134277343749999
1.2850341796875
1.2979248046874998
1.4348876953124998
1.5347900390625
1.4719482421874999
1.4896728515625
1.4066894531249998
0.6703125
0.5567138671874999
0.6453369140624999
0.6767578125
0.7581298828124999
1.0489746093749999
1.6306640625
2.144677734375
2.2582763671875
2.28486328125
2.2268554687499997
2.1180908203124997
2.1132568359375
1.9795166015624999
1.9053955078125
1.85625
1.7450683593749998
1.6749755859375
1.5791015625
1.593603515625
1.5186767578125
1.980322265625
2.399267578125
2.31064453125
2.410546875
2.376708984375
2.215576171875
1.9013671875
1.5815185546875
1.0481689453125
0.8016357421875
0.7774658203125
0.781494140625
0.6936767578124999
0.7242919921875
0.7677978515624999
0.8918701171875
0.9531005859374999
1.0828125
1.1077880859375
1.1351806640625
1.174658203125
0.6815917968749999
0.041088867187499996
0.033032226562499996
0.0314208984375
0.02900390625
0.023364257812499997
0.06767578125
0.8209716796875
1.29228515625
1.5484863281249999
1.7217041015624999
1.8465820312499999
1.9569580078125
2.0890869140625
2.0633056640625
2.0568603515625
2.015771484375
2.0012695312499997
2.0278564453125
2.0044921875
1.9271484374999999
2.3082275390625
2.8149902343749997
3.0309082031249996
3.0309082031249996
3.0317138671875
3.029296875
3.0309082031249996
2.6031005859375
2.118896484375
1.8199951171875
1.4469726562499998
1.34384765625
1.1754638671875
0.9966064453125
0.9087890624999999
0.8830078124999999
0.8282226562499999
0.8225830078124999
0.87978515625
0.8161376953124999
0.8805908203124999
0.3794677734375
0.030615234374999998
0.0281982421875
0.027392578124999997
0.0281982421875
0.033032226562499996
0.027392578124999997
0.6163330078125
1.0731445312499999
1.35673828125
1.5960205078124998
1.786962890625
1.8635009765625
1.880419921875
1.944873046875
2.00771484375
2.1019775390624997
2.0697509765624997
2.11728515625
2.1503173828124997
2.165625
2.20751953125
3.0325195312499997
3.0317138671875
3.0317138671875
3.029296875
3.0301025390625
3.0333251953125
2.602294921875
1.9972412109375
1.6669189453125
1.448583984375
1.2012451171875
1.0884521484375
0.9772705078124999
0.845947265625
0.765380859375
0.6662841796875
0.69609375
0.6574218749999999
0.7025390625
0.708984375
0.7307373046875
0.027392578124999997
0.0281982421875
0.024169921875
0.02900390625
0.0298095703125
0.0281982421875
0.459228515625
1.1061767578125
1.3229003906249999
1.5573486328125
1.654833984375
1.7821289062499999
1.893310546875
1.941650390625
2.01416015625
1.9754882812499999
1.9134521484375
1.993212890625
1.9303710937499998
1.93681640625
2.0560546875
3.0252685546875
3.0357421875
3.0381591796875
3.0309082031249996
3.0317138671875
3.0325195312499997
2.7465087890624997
2.33642578125
1.964208984375
1.5315673828124998
1.2898681640624998
1.1964111328125
1.0948974609375
0.9474609374999999
0.8644775390624999
0.8209716796875
0.8548095703124999
0.768603515625
0.7919677734374999
0.8773681640625
0.9216796875
0.027392578124999997
0.0281982421875
0.02900390625
0.02900390625
0.0281982421875
0.022558593749999998
0.2956787109375
0.9071777343749999
1.21494140625
1.529150390625
1.6346923828125
1.7732666015624998
2.0407470703125
2.0552490234375
2.1422607421874997
2.144677734375
2.20107421875
2.241357421875
2.1865722656249997
2.2469970703124997
2.165625
2.5475097656249996
3.0301025390625
3.0309082031249996
3.0301025390625
3.0333251953125
3.027685546875
2.79404296875
2.5958496093749996
2.0294677734374997
1.6749755859375
1.3551269531249999
1.036083984375
0.9144287109375
0.7879394531249999
0.6872314453124999
0.74443359375
0.6566162109375
0.7065673828125
0.7968017578125
0.7541015624999999
0.82177734375
0.02900390625
0.026586914062499998
0.0281982421875
0.0281982421875
0.0249755859375
0.0346435546875
0.0314208984375
0.78955078125
1.3575439453125
1.5791015625
1.79501953125
1.9505126953124998
2.0890869140625
2.0818359374999997
2.05927734375
2.07861328125
2.0165771484375
2.002880859375
2.0230224609375
2.0536376953124997
2.0093261718749997
2.3783203125
3.029296875
3.0309082031249996
3.0309082031249996
3.0309082031249996
3.0309082031249996
3.0317138671875
2.6965576171874996
2.3033935546874997
1.9408447265625
1.5654052734375
1.3092041015625
1.013525390625
0.8773681640625
0.8129150390625
0.7694091796875
0.7726318359375
0.7484619140625
0.694482421875
0.6711181640624999
0.65419921875
0.2876220703125
0.0249755859375
0.026586914062499998
0.030615234374999998
0.020947265625
0.0298095703125
0.024169921875
0.7194580078124999
1.0328613281249999
1.3954101562499999
1.5911865234375
1.7668212890625
1.8224121093749999
1.9827392578124998
1.9907958984374998
2.0496093749999997
1.9988525390624998
2.0987548828125
2.075390625
2.0069091796875
2.0552490234375
2.0496093749999997
3.011572265625
3.027685546875
3.029296875
3.0317138671875
3.0301025390625
3.0309082031249996
2.7013916015625
2.2550537109374997
1.8062988281249999
1.6298583984375
1.377685546875
1.084423828125
0.8902587890625
0.903955078125
0.8870361328124999
0.839501953125
0.9385986328125
0.845947265625
0.8419189453125
0.903955078125
0.7935791015625
0.0298095703125
0.0322265625
0.0281982421875
0.0281982421875
0.033032226562499996
0.027392578124999997
0.191748046875
0.9095947265625
1.229443359375
1.4687255859375
1.651611328125
1.7362060546875
1.9295654296875
2.0101318359375
2.0858642578124997
2.126953125
2.131787109375
2.101171875
2.1132568359375
2.083447265625
1.98837890625
2.88427734375
3.029296875
3.0309082031249996
3.0301025390625
3.027685546875
3.0268798828124996
2.8270751953124997
2.44599609375
2.023828125
1.6540283203125
1.368017578125
1.1287353515625
0.8741455078125
0.6888427734375
0.7033447265624999
0.6654785156249999
0.7081787109375
0.6372802734374999
0.6654785156249999
0.6437255859375
0.7154296874999999
0.0281982421875
0.02900390625
0.02900390625
0.0281982421875
0.027392578124999997
0.027392578124999997
0.1071533203125
0.784716796875
1.0578369140625
1.442138671875
1.5799072265624998
1.7724609375
1.899755859375
1.9625976562499998
2.0649169921875
2.0343017578125
1.972265625
1.9625976562499998
1.9311767578124999
1.9392333984374999
1.9859619140625
2.3501220703125
3.0317138671875
3.0309082031249996
3.0309082031249996
3.0309082031249996
3.0309082031249996
2.9519531249999997
2.5515380859374996
1.973876953125
1.7096191406249999
1.4219970703125
1.2455566406249998
1.0497802734375
0.887841796875
0.8427246093749999
0.7694091796875
0.7879394531249999
0.8290283203125
0.837890625
0.7879394531249999
0.8032470703125
0.02900390625
0.0322265625
0.0314208984375
0.0281982421875
0.027392578124999997
0.027392578124999997
0.027392578124999997
0.9394042968749999
1.3768798828125
1.651611328125
1.7450683593749998
1.8739746093749998
1.957763671875
2.0560546875
2.1019775390624997
2.023828125
1.9835449218749999
1.94970703125
1.8755859375
1.9988525390624998
1.9658203125
2.0818359374999997
2.99384765625
3.0309082031249996
3.0309082031249996
3.029296875
3.0268798828124996
3.0301025390625
2.7263671874999997
2.3525390625
1.960986328125
1.6781982421875
1.5073974609374998
1.313232421875
1.2101074218749999
1.132763671875
1.0409179687499999
1.023193359375
1.055419921875
1.06025390625
1.036083984375
0.90234375
0.6751464843749999
0.033837890625
0.030615234374999998
0.0281982421875
0.033837890625
0.026586914062499998
0.0298095703125
0.443115234375
0.97001953125
1.4268310546874998
1.60166015625
1.6822265625
1.80791015625
1.95615234375
1.85625
1.9529296875
2.0415527343749997
2.0149658203125
1.9867675781249998
2.02060546875
2.0359130859375
1.9916015624999999
2.98095703125
3.0309082031249996
3.0325195312499997
3.0325195312499997
3.029296875
3.0309082031249996
2.8641357421875
2.4298828125
2.0439697265625
1.706396484375
1.4655029296875
1.0143310546875
0.78955078125
0.7283203125
0.7154296874999999
0.7581298828124999
0.7943847656249999
0.8467529296874999
0.734765625
0.7452392578125
0.8000244140624999
0.024169921875
0.0298095703125
0.02578125
0.0281982421875
0.0281982421875
0.02900390625
0.278759765625
1.0191650390625
1.4316650390624999
1.683837890625
1.82080078125
1.9295654296875
1.861083984375
1.8892822265625
1.9972412109375
2.0665283203125
2.01416015625
2.054443359375
2.064111328125
2.054443359375
1.9432617187499999
2.7142822265624997
3.0333251953125
3.0357421875
3.0301025390625
3.0317138671875
3.034130859375
2.8029052734374997
2.4967529296874997
2.0085205078125
1.5766845703124999
1.353515625
1.1625732421875
0.8338623046875
0.7613525390625
0.7476562499999999
0.71220703125
0.678369140625
0.6872314453124999
0.7613525390625
0.7855224609375
0.7242919921875
0.020947265625
0.0281982421875
0.0298095703125
0.02900390625
0.02900390625
0.030615234374999998
0.1635498046875
0.8024414062499999
1.2020507812499999
1.6282470703124998
1.791796875
1.9166748046875
1.98515625
2.1052001953125
2.1164794921875
2.125341796875
2.2494140625
2.2324951171875
2.3396484374999997
2.24619140625
2.14306640625
2.3404541015625
3.0365478515624997
3.0309082031249996
3.029296875
3.0284912109374997
3.0309082031249996
3.0317138671875
2.6683593749999996
1.9585693359374998
1.7982421874999999
1.4953124999999998
1.2745605468749999
1.0675048828125
1.029638671875
0.8886474609374999
0.7887451171875
0.8113037109375
0.8870361328124999
0.8209716796875
0.813720703125
0.7951904296875
0.57041015625
0.0346435546875
0.02900390625
0.0322265625
0.0281982421875
0.0298095703125
0.024169921875
0.502734375
1.1375976562499999
1.400244140625
1.5960205078124998
1.72734375
1.8095214843749998
1.9247314453125
1.9029785156249999
1.9142578124999998
1.9714599609374999
2.0214111328124997
2.0101318359375
1.9948242187499998
1.931982421875
1.9859619140625
3.0325195312499997
3.0317138671875
3.034130859375
3.034130859375
3.0333251953125
3.0309082031249996
2.7448974609374996
2.4226318359375
2.0625
1.63388671875
1.3704345703124998
1.1698242187499999
0.961962890625
0.8967041015624999
0.8403076171874999
0.8040527343749999
0.7806884765625
0.7468505859375
0.8507812499999999
0.9321533203125
0.8274169921875
0.026586914062499998
0.02900390625
0.0298095703125
0.027392578124999997
0.0249755859375
0.033837890625
0.49306640625
0.9474609374999999
1.329345703125
1.593603515625
1.6081054687499998
1.6443603515624998
1.9424560546874998
2.031884765625
2.0649169921875
2.1229248046875
2.03671875
2.093115234375
2.0302734375
2.0649169921875
1.996435546875
2.82626953125
3.0317138671875
3.0301025390625
3.0333251953125
3.0301025390625
3.0317138671875
2.8077392578125
2.466943359375
1.9231201171874999
1.67900390625
1.40830078125
1.164990234375
0.9853271484374999
0.928125
0.8805908203124999
0.80888671875
0.7863281249999999
0.8725341796874999
0.929736328125
0.8967041015624999
1.0046630859374999
0.0322265625
0.027392578124999997
0.033032226562499996
0.0281982421875
0.02900390625
0.0314208984375
0.38107910156249997
1.1537109374999999
1.3801025390625
1.69833984375
2.0109375
2.4169921875
3.0325195312499997
3.0309082031249996
3.0325195312499997
3.029296875
3.0301025390625
3.0309082031249996
3.0301025390625
3.0309082031249996
3.0325195312499997
3.0309082031249996
3.0317138671875
3.0284912109374997
3.0309082031249996
3.0284912109374997
3.027685546875
3.0284912109374997
3.029296875
3.0268798828124996
3.029296875
3.0301025390625
3.0301025390625
3.0301025390625
3.027685546875
3.0268798828124996
3.037353515625
3.0236572265625
3.0309082031249996
2.8681640625
2.4032958984375
1.9505126953124998
1.22783203125
0.8830078124999999
0.9112060546874999
0.9394042968749999
0.9031494140624999
0.9595458984374999
1.0570312499999999
1.2544189453124999
1.1093994140624999
0.9933837890624999
0.974853515625
0.90556640625
0.9490722656249999
0.9313476562499999
0.88623046875
0.9152343749999999
0.9692138671874999
1.03125
1.02158203125
1.01513671875
0.9869384765625
0.9837158203124999
1.3309570312499999
1.147265625
1.084423828125
1.0433349609375
1.1142333984375
1.052197265625
0.9603515625
0.9603515625
1.0119140625
0.9990234375
1.1021484375
1.1303466796875
1.1464599609375
1.2302490234374999
1.2955078125
1.2560302734375
1.276171875
1.2673095703125
1.2995361328125
1.2592529296875
1.123095703125
1.1375976562499999
1.3027587890624999
1.2399169921875
1.2947021484374999
1.3664062499999998
1.4034667968749999
1.6306640625
1.6000488281249998
1.554931640625
1.5106201171875
1.4783935546875
1.4413330078125
1.458251953125
1.4816162109375
1.4381103515625
1.5009521484375
1.4638916015624999
1.4655029296875
1.4469726562499998
1.4912841796874998
1.4840332031249999
1.6878662109375
1.5847412109374999
1.529150390625
1.506591796875
1.490478515625
1.4091064453125
1.3478759765625
1.335791015625
1.3591552734374999
1.4373046875
1.4364990234375
1.4501953125
1.4397216796874999
1.4606689453125
1.4606689453125
1.45341796875
1.4719482421874999
1.4655029296875
1.4864501953125
1.5017578125
1.5090087890625
1.2898681640624998
1.4066894531249998
1.46630859375
1.458251953125
1.5347900390625
1.5251220703125
1.6169677734374999
1.6218017578125
1.5734619140625
1.5621826171875
1.5525146484374999
1.577490234375
1.5315673828124998
1.533984375
1.51787109375
1.5009521484375
1.525927734375
1.4945068359375
1.5202880859374999
1.5057861328125
1.5267333984375
1.6967285156249998
1.603271484375
1.5662109375
1.5605712890624999
1.5243164062499999
1.47275390625
1.4356933593749999
1.41796875
1.4606689453125
1.46953125
1.448583984375
1.5106201171875
1.5025634765625
1.4977294921875
1.5057861328125
1.5025634765625
1.509814453125
1.5186767578125
1.538818359375
1.4953124999999998
1.522705078125
1.351904296875
1.4300537109375
1.5057861328125
1.4912841796874998
1.5380126953125
1.5887695312499999
1.6089111328124999
1.651611328125
1.6330810546874999
1.5678222656249998
1.5911865234375
1.5807128906249999
1.53076171875
1.5541259765625
1.538818359375
1.50498046875
1.5122314453124999
1.509814453125
1.538818359375
1.5412353515625
1.522705078125
1.6105224609375
1.59521484375
1.587158203125
1.558154296875
1.558154296875
1.5146484375
1.4671142578124998
1.46630859375
1.4767822265625
1.4832275390624998
1.4783935546875
1.51787109375
1.5017578125
1.522705078125
1.5090087890625
1.5573486328125
1.533984375
1.5170654296875
1.533984375
1.5073974609374998
1.5396240234374998
1.3865478515624998
1.4381103515625
1.4872558593749998
1.4920898437499999
1.5041748046874999
1.529150390625
1.574267578125
1.651611328125
1.6153564453125
1.5919921874999998
1.5476806640624998
1.5557373046874998
1.5525146484374999
1.5154541015624998
1.55009765625
1.55009765625
1.5347900390625
1.506591796875
1.5267333984375
1.5186767578125
1.5404296874999999
1.5895751953125
1.6379150390625
1.5863525390625
1.5251220703125
1.5460693359375
1.5323730468749999
1.5194824218749998
1.4671142578124998
1.4655029296875
1.4953124999999998
1.5017578125
1.4961181640624999
1.4961181640624999
1.4912841796874998
1.4800048828124999
1.5460693359375
1.5194824218749998
1.5509033203125
1.538818359375
1.51787109375
1.546875
1.4542236328125
1.429248046875
1.5009521484375
1.4872558593749998
1.493701171875
1.5484863281249999
1.6153564453125
1.6604736328124998
1.622607421875
1.60166015625
1.5831298828125
1.5678222656249998
1.5364013671874999
1.53720703125
1.5436523437499998
1.55009765625
1.5138427734375
1.5436523437499998
1.5082031249999999
1.546875
1.5267333984375
1.5734619140625
1.6403320312499998
1.5726562499999999
1.577490234375
1.561376953125
1.533984375
1.4848388671875
1.4711425781249998
1.4767822265625
1.4767822265625
1.47275390625
1.49853515625
1.493701171875
1.5017578125
1.5275390624999998
1.525927734375
1.538818359375
1.5186767578125
1.5235107421874998
1.5396240234374998
1.5299560546875
1.493701171875
1.400244140625
1.4912841796874998
1.5235107421874998
1.5251220703125
1.5315673828124998
1.542041015625
1.6306640625
1.6483886718749998
1.5758789062499998
1.5565429687499999
1.5605712890624999
1.5186767578125
1.529150390625
1.5597656249999998
1.5331787109375
1.5299560546875
1.533984375
1.5355957031249998
1.5267333984375
1.522705078125
1.5138427734375
1.6653076171874999
1.5807128906249999
1.546875
1.56298828125
1.5170654296875
1.4953124999999998
1.456640625
1.4759765624999999
1.464697265625
1.49853515625
1.49853515625
1.5001464843749999
1.4896728515625
1.5355957031249998
1.5146484375
1.5299560546875
1.5162597656249999
1.533984375
1.5154541015624998
1.5364013671874999
1.5509033203125
1.3881591796875
1.4864501953125
1.5090087890625
1.493701171875
1.5001464843749999
1.5541259765625
1.6427490234375
1.6298583984375
1.5799072265624998
1.5750732421875
1.5404296874999999
1.5662109375
1.5734619140625
1.542041015625
1.5525146484374999
1.5355957031249998
1.5299560546875
1.5235107421874998
1.5267333984375
1.5235107421874998
1.5106201171875
1.6685302734374998
1.6201904296874998
1.5654052734375
1.5436523437499998
1.5484863281249999
1.506591796875
1.4550292968749998
1.4671142578124998
1.4848388671875
1.4590576171874998
1.4953124999999998
1.5057861328125
1.5146484375
1.5041748046874999
1.5114257812499998
1.5364013671874999
1.53076171875
1.5202880859374999
1.53076171875
1.5355957031249998
1.5275390624999998
1.4373046875
1.4598632812499999
1.4993408203124998
1.49853515625
1.5436523437499998
1.5565429687499999
1.5879638671874998
1.6588623046875
1.56943359375
1.5492919921875
1.545263671875
1.5686279296874999
1.5686279296874999
1.5517089843749998
1.53076171875
1.5404296874999999
1.5404296874999999
1.561376953125
1.5355957031249998
1.5404296874999999
1.5323730468749999
1.6282470703124998
1.6072998046875
1.5573486328125
1.5404296874999999
1.5347900390625
1.5299560546875
1.48564453125
1.4864501953125
1.4501953125
1.4703369140625
1.4953124999999998
1.496923828125
1.5194824218749998
1.5017578125
1.5082031249999999
1.529150390625
1.52109375
1.5436523437499998
1.5186767578125
1.5243164062499999
1.5347900390625
1.429248046875
1.458251953125
1.5001464843749999
1.4945068359375
1.5380126953125
1.5670166015625
1.5839355468749998
1.6435546875
1.5895751953125
1.546875
1.5565429687499999
1.587158203125
1.5404296874999999
1.52109375
1.5267333984375
1.558154296875
1.5364013671874999
1.5186767578125
1.522705078125
1.5509033203125
1.5509033203125
1.5541259765625
1.6185791015625
1.5766845703124999
1.5605712890624999
1.5637939453124998
1.5073974609374998
1.4606689453125
1.4759765624999999
1.4655029296875
1.4759765624999999
1.4993408203124998
1.477587890625
1.5170654296875
1.525927734375
1.546875
1.5073974609374998
1.5347900390625
1.5380126953125
1.5476806640624998
1.5243164062499999
1.5299560546875
1.4493896484375
1.42119140625
1.5057861328125
1.5162597656249999
1.52109375
1.5428466796875
1.5605712890624999
1.6314697265625
1.5968261718749999
1.574267578125
1.5734619140625
1.5565429687499999
1.5444580078124999
1.5380126953125
1.5533203125
1.545263671875
1.5509033203125
1.5428466796875
1.5509033203125
1.5243164062499999
1.5323730468749999
1.53720703125
1.670947265625
1.5831298828125
1.561376953125
1.542041015625
1.5404296874999999
1.49853515625
1.480810546875
1.46630859375
1.4840332031249999
1.4574462890625
1.48564453125
1.5082031249999999
1.5194824218749998
1.5194824218749998
1.525927734375
1.5323730468749999
1.5194824218749998
1.5243164062499999
1.542041015625
1.5323730468749999
1.5090087890625
1.409912109375
1.5041748046874999
1.4993408203124998
1.4800048828124999
1.5396240234374998
1.5275390624999998
1.625830078125
1.6282470703124998
1.5702392578125
1.5525146484374999
1.5404296874999999
1.5637939453124998
1.5589599609375
1.545263671875
1.5331787109375
1.5662109375
1.5194824218749998
1.554931640625
1.5331787109375
1.5355957031249998
1.5202880859374999
1.65966796875
1.587158203125
1.5662109375
1.5565429687499999
1.5380126953125
1.5154541015624998
1.4719482421874999
1.4550292968749998
1.4518066406249999
1.496923828125
1.5114257812499998
1.506591796875
1.4711425781249998
1.4920898437499999
1.538818359375
1.5243164062499999
1.5525146484374999
1.5154541015624998
1.5525146484374999
1.533984375
1.529150390625
1.4058837890625
1.4864501953125
1.4872558593749998
1.52109375
1.5194824218749998
1.5565429687499999
1.6459716796875
1.6411376953124999
1.5654052734375
1.5243164062499999
1.5565429687499999
1.5509033203125
1.5517089843749998
1.5323730468749999
1.5275390624999998
1.5670166015625
1.5146484375
1.5573486328125
1.5460693359375
1.5194824218749998
1.522705078125
1.6290527343749999
1.6129394531249999
1.5645996093749999
1.55009765625
1.545263671875
1.529150390625
1.477587890625
1.4703369140625
1.482421875
1.4832275390624998
1.5001464843749999
1.5146484375
1.5106201171875
1.4880615234374999
1.533984375
1.5162597656249999
1.5154541015624998
1.5412353515625
1.5033691406249998
1.5323730468749999
1.538818359375
1.4034667968749999
1.4687255859375
1.4953124999999998
1.5009521484375
1.5283447265624999
1.5517089843749998
1.6024658203125
1.6161621093749998
1.5645996093749999
1.5782958984375
1.554931640625
1.5509033203125
1.5525146484374999
1.5355957031249998
1.5347900390625
1.5565429687499999
1.5662109375
1.533984375
1.529150390625
1.529150390625
1.5283447265624999
1.6290527343749999
1.6081054687499998
1.571044921875
1.5428466796875
1.51787109375
1.5299560546875
1.4598632812499999
1.480810546875
1.4671142578124998
1.4735595703125
1.5283447265624999
1.4961181640624999
1.5106201171875
1.5275390624999998
1.53076171875
1.5154541015624998
1.533984375
1.5315673828124998
1.5404296874999999
1.533984375
1.5323730468749999
1.4510009765624998
1.46630859375
1.5017578125
1.5194824218749998
1.5186767578125
1.5444580078124999
1.5605712890624999
1.65966796875
1.603271484375
1.585546875
1.522705078125
1.5484863281249999
1.5517089843749998
1.5364013671874999
1.5605712890624999
1.545263671875
1.5355957031249998
1.5162597656249999
1.5412353515625
1.542041015625
1.5218994140625
1.5645996093749999
1.593603515625
1.5597656249999998
1.558154296875
1.5476806640624998
1.5154541015624998
1.5033691406249998
1.4961181640624999
1.456640625
1.4896728515625
1.5001464843749999
1.4928955078125
1.5283447265624999
1.522705078125
1.51787109375
1.5194824218749998
1.5251220703125
1.5251220703125
1.51787109375
1.53076171875
1.5396240234374998
1.4550292968749998
1.4244140625
1.4840332031249999
1.496923828125
1.5090087890625
1.538818359375
1.5718505859374998
1.6435546875
1.6081054687499998
1.5645996093749999
1.5654052734375
1.5541259765625
1.5557373046874998
1.5404296874999999
1.5347900390625
1.525927734375
1.5597656249999998
1.5396240234374998
1.5025634765625
1.5396240234374998
1.5243164062499999
1.5517089843749998
1.635498046875
1.5726562499999999
1.574267578125
1.571044921875
1.5194824218749998
1.5025634765625
1.4606689453125
1.4526123046875
1.4783935546875
1.482421875
1.5170654296875
1.4912841796874998
1.5082031249999999
1.5170654296875
1.5194824218749998
1.5218994140625
1.53076171875
1.5331787109375
1.52109375
1.5251220703125
1.5380126953125
1.416357421875
1.48564453125
1.5154541015624998
1.4977294921875
1.5412353515625
1.5509033203125
1.651611328125
1.5984375
1.5702392578125
1.571044921875
1.5782958984375
1.5662109375
1.558154296875
1.5412353515625
1.5476806640624998
1.52109375
1.5251220703125
1.5315673828124998
1.5122314453124999
1.53076171875
1.5396240234374998
1.6403320312499998
1.5984375
1.561376953125
1.5460693359375
1.53076171875
1.4961181640624999
1.4767822265625
1.4679199218749999
1.4638916015624999
1.4928955078125
1.5186767578125
1.490478515625
1.513037109375
1.53076171875
1.5275390624999998
1.5154541015624998
1.5106201171875
1.5186767578125
1.5364013671874999
1.5541259765625
1.5347900390625
1.40185546875
1.4953124999999998
1.5017578125
1.5082031249999999
1.51787109375
1.52109375
1.603271484375
1.6379150390625
1.571044921875
1.5476806640624998
1.571044921875
1.5517089843749998
1.533984375
1.56298828125
1.5597656249999998
1.525927734375
1.509814453125
1.5565429687499999
1.5484863281249999
1.53076171875
1.5347900390625
1.64677734375
1.5791015625
1.5726562499999999
1.577490234375
1.5476806640624998
1.5412353515625
1.4896728515625
1.46953125
1.4783935546875
1.4638916015624999
1.48564453125
1.5057861328125
1.4977294921875
1.533984375
1.5283447265624999
1.52109375
1.52109375
1.529150390625
1.5331787109375
1.53720703125
1.5331787109375
1.4107177734374998
1.4381103515625
1.4953124999999998
1.5202880859374999
1.538818359375
1.5557373046874998
1.5960205078124998
1.6314697265625
1.5726562499999999
1.58232421875
1.5791015625
1.5605712890624999
1.538818359375
1.542041015625
1.53076171875
1.542041015625
1.5670166015625
1.546875
1.53720703125
1.513037109375
1.533984375
1.587158203125
1.58232421875
1.5476806640624998
1.5541259765625
1.5565429687499999
1.538818359375
1.4961181640624999
1.442138671875
1.4469726562499998
1.46953125
1.5154541015624998
1.5090087890625
1.525927734375
1.529150390625
1.5396240234374998
1.5218994140625
1.5396240234374998
1.509814453125
1.5267333984375
1.5404296874999999
1.5331787109375
1.40185546875
1.4630859374999998
1.4961181640624999
1.5218994140625
1.5146484375
1.5218994140625
1.538818359375
1.6411376953124999
1.611328125
1.56298828125
1.5678222656249998
1.5476806640624998
1.5645996093749999
1.574267578125
1.5380126953125
1.5517089843749998
1.5533203125
1.5364013671874999
1.5355957031249998
1.5235107421874998
1.554931640625
1.56298828125
1.6330810546874999
1.5678222656249998
1.5670166015625
1.5517089843749998
1.5315673828124998
1.5090087890625
1.493701171875
1.4550292968749998
1.4703369140625
1.4912841796874998
1.4783935546875
1.5041748046874999
1.525927734375
1.5017578125
1.5275390624999998
1.5154541015624998
1.546875
1.5146484375
1.5275390624999998
1.5090087890625
1.4888671875
1.409912109375
1.5154541015624998
1.5017578125
1.5033691406249998
1.529150390625
1.574267578125
1.6435546875
1.59521484375
1.5911865234375
1.56943359375
1.5355957031249998
1.5194824218749998
1.55009765625
1.5533203125
1.538818359375
1.5509033203125
1.5218994140625
1.5444580078124999
1.529150390625
1.513037109375
1.5412353515625
1.6483886718749998
1.56943359375
1.577490234375
1.56298828125
1.5299560546875
1.50498046875
1.4751708984374998
1.4679199218749999
1.480810546875
1.4945068359375
1.4993408203124998
1.5275390624999998
1.5218994140625
1.5162597656249999
1.5355957031249998
1.5267333984375
1.50498046875
1.5251220703125
1.5355957031249998
1.5218994140625
1.5057861328125
1.4155517578124999
1.493701171875
1.52109375
1.509814453125
1.5251220703125
1.546875
1.6403320312499998
1.6201904296874998
1.5815185546875
1.55009765625
1.5605712890624999
1.5396240234374998
1.5436523437499998
1.5444580078124999
1.5509033203125
1.5380126953125
1.52109375
1.5275390624999998
1.533984375
1.5404296874999999
1.5517089843749998
1.6556396484375
1.577490234375
1.5734619140625
1.5645996093749999
1.5444580078124999
1.5186767578125
1.4953124999999998
1.4550292968749998
1.4630859374999998
1.4920898437499999
1.4953124999999998
1.490478515625
1.5025634765625
1.5218994140625
1.53720703125
1.4816162109375
1.5412353515625
1.5509033203125
1.5315673828124998
1.4993408203124998
1.5243164062499999
1.432470703125
1.4373046875
1.513037109375
1.5082031249999999
1.5299560546875
1.533984375
1.5750732421875
1.6282470703124998
1.5992431640625
1.571044921875
1.5565429687499999
1.5782958984375
1.533984375
1.545263671875
1.561376953125
1.529150390625
1.5347900390625
1.5331787109375
1.538818359375
1.529150390625
1.538818359375
1.6314697265625
1.6072998046875
1.5621826171875
1.533984375
1.55009765625
1.5267333984375
1.480810546875
1.4767822265625
1.4655029296875
1.4719482421874999
1.5017578125
1.51787109375
1.5218994140625
1.4993408203124998
1.53076171875
1.5275390624999998
1.5299560546875
1.5122314453124999
1.5243164062499999
1.5444580078124999
1.5347900390625
1.4389160156249998
1.464697265625
1.4961181640624999
1.4920898437499999
1.5082031249999999
1.5533203125
1.5927978515624999
1.6322753906249998
1.5927978515624999
1.56943359375
1.5597656249999998
1.5645996093749999
1.5605712890624999
1.5517089843749998
1.56298828125
1.525927734375
1.5484863281249999
1.5331787109375
1.5186767578125
1.5331787109375
1.5355957031249998
1.6056884765625
1.6298583984375
1.542041015625
1.5662109375
1.5492919921875
1.5122314453124999
1.5001464843749999
1.4864501953125
1.464697265625
1.496923828125
1.4840332031249999
1.5106201171875
1.4928955078125
1.52109375
1.49853515625
1.50498046875
1.5299560546875
1.538818359375
1.5299560546875
1.5565429687499999
1.5275390624999998
1.432470703125
1.4171630859375
1.5041748046874999
1.4912841796874998
1.5138427734375
1.5323730468749999
1.5589599609375
1.635498046875
1.6072998046875
1.590380859375
1.5799072265624998
1.5662109375
1.5541259765625
1.5541259765625
1.513037109375
1.5323730468749999
1.561376953125
1.5202880859374999
1.538818359375
1.5154541015624998
1.5355957031249998
1.5355957031249998
1.6290527343749999
1.574267578125
1.5605712890624999
1.5621826171875
1.5460693359375
1.4751708984374998
1.47275390625
1.4783935546875
1.4961181640624999
1.5025634765625
1.4920898437499999
1.5057861328125
1.5138427734375
1.5235107421874998
1.53076171875
1.51787109375
1.5243164062499999
1.5476806640624998
1.5082031249999999
1.5114257812499998
1.4920898437499999
1.445361328125
1.5122314453124999
1.5243164062499999
1.5315673828124998
1.5347900390625
1.545263671875
1.6411376953124999
1.59521484375
1.5597656249999998
1.571044921875
1.5597656249999998
1.554931640625
1.561376953125
1.5525146484374999
1.56298828125
1.5154541015624998
1.5347900390625
1.5243164062499999
1.5380126953125
1.5436523437499998
1.5275390624999998
1.6475830078125
1.5533203125
1.5573486328125
1.5726562499999999
1.5347900390625
1.5106201171875
1.4920898437499999
1.45341796875
1.4767822265625
1.461474609375
1.496923828125
1.5041748046874999
1.525927734375
1.522705078125
1.5041748046874999
1.5218994140625
1.5299560546875
1.5331787109375
1.5380126953125
1.5251220703125
1.5460693359375
1.40830078125
1.4953124999999998
1.48564453125
1.496923828125
1.542041015625
1.5718505859374998
1.6427490234375
1.6089111328124999
1.5758789062499998
1.56298828125
1.5444580078124999
1.5476806640624998
1.5476806640624998
1.5315673828124998
1.53076171875
1.5718505859374998
1.5347900390625
1.542041015625
1.5428466796875
1.5484863281249999
1.542041015625
1.65966796875
1.5734619140625
1.554931640625
1.53720703125
1.53076171875
1.5267333984375
1.482421875
1.490478515625
1.4759765624999999
1.5114257812499998
1.5186767578125
1.4896728515625
1.4928955078125
1.5186767578125
1.5194824218749998
1.52109375
1.5283447265624999
1.5162597656249999
1.5090087890625
1.5484863281249999
1.5533203125
1.4203857421875
1.4655029296875
1.51787109375
1.50498046875
1.5218994140625
1.5484863281249999
1.6161621093749998
1.625830078125
1.5686279296874999
1.56943359375
1.5444580078124999
1.561376953125
1.5565429687499999
1.525927734375
1.5460693359375
1.5484863281249999
1.52109375
1.5428466796875
1.522705078125
1.5509033203125
1.5380126953125
1.6306640625
1.5847412109374999
1.5589599609375
1.538818359375
1.5396240234374998
1.5017578125
1.496923828125
1.46630859375
1.4783935546875
1.5114257812499998
1.5170654296875
1.5025634765625
1.4993408203124998
1.5106201171875
1.5186767578125
1.5355957031249998
1.5331787109375
1.5202880859374999
1.542041015625
1.545263671875
1.533984375
1.4042724609375
1.445361328125
1.490478515625
1.5162597656249999
1.5186767578125
1.5492919921875
1.56298828125
1.625830078125
1.60166015625
1.58232421875
1.5492919921875
1.554931640625
1.5436523437499998
1.5460693359375
1.5492919921875
1.522705078125
1.522705078125
1.542041015625
1.561376953125
1.5509033203125
1.542041015625
1.5911865234375
1.603271484375
1.5662109375
1.5605712890624999
1.5525146484374999
1.5146484375
1.5041748046874999
1.4622802734375
1.4848388671875
1.48564453125
1.4953124999999998
1.4840332031249999
1.4945068359375
1.5315673828124998
1.5396240234374998
1.5364013671874999
1.5033691406249998
1.5146484375
1.5323730468749999
1.5396240234374998
1.53720703125
1.4735595703125
1.4348876953124998
1.4912841796874998
1.4953124999999998
1.5202880859374999
1.538818359375
1.5436523437499998
1.6169677734374999
1.590380859375
1.5807128906249999
1.574267578125
1.5364013671874999
1.56298828125
1.538818359375
1.5364013671874999
1.533984375
1.5243164062499999
1.5364013671874999
1.5251220703125
1.5492919921875
1.542041015625
1.5364013671874999
1.6322753906249998
1.590380859375
1.5758789062499998
1.5347900390625
1.5202880859374999
1.509814453125
1.4526123046875
1.4800048828124999
1.4679199218749999
1.4977294921875
1.5122314453124999
1.50498046875
1.5114257812499998
1.5323730468749999
1.525927734375
1.5170654296875
1.53076171875
1.5323730468749999
1.5162597656249999
1.529150390625
1.4800048828124999
1.4348876953124998
1.4961181640624999
1.5001464843749999
1.496923828125
1.522705078125
1.5404296874999999
1.6371093749999999
1.6177734375
1.5992431640625
1.5726562499999999
1.5541259765625
1.5533203125
1.56943359375
1.5218994140625
1.5517089843749998
1.55009765625
1.53076171875
1.5283447265624999
1.5355957031249998
1.5283447265624999
1.5090087890625
1.651611328125
1.6153564453125
1.5654052734375
1.5565429687499999
1.5001464843749999
1.5122314453124999
1.46630859375
1.4550292968749998
1.490478515625
1.480810546875
1.49853515625
1.5057861328125
1.5041748046874999
1.5283447265624999
1.5235107421874998
1.529150390625
1.533984375
1.5073974609374998
1.5009521484375
1.5267333984375
1.5323730468749999
1.4276367187499999
1.4864501953125
1.5122314453124999
1.506591796875
1.5106201171875
1.554931640625
1.5992431640625
1.6201904296874998
1.603271484375
1.5887695312499999
1.5436523437499998
1.5492919921875
1.5517089843749998
1.5444580078124999
1.5412353515625
1.5315673828124998
1.5380126953125
1.5315673828124998
1.5428466796875
1.545263671875
1.529150390625
1.654833984375
1.5605712890624999
1.5444580078124999
1.546875
1.5436523437499998
1.5154541015624998
1.4687255859375
1.474365234375
1.4791992187499998
1.506591796875
1.5138427734375
1.509814453125
1.4920898437499999
1.5090087890625
1.509814453125
1.5347900390625
1.5323730468749999
1.5347900390625
1.5436523437499998
1.5235107421874998
1.5541259765625
1.4010498046875
1.4783935546875
1.5243164062499999
1.5283447265624999
1.50498046875
1.56298828125
1.6072998046875
1.6346923828125
1.5782958984375
1.561376953125
1.5444580078124999
1.5315673828124998
1.5589599609375
1.5412353515625
1.5799072265624998
1.5275390624999998
1.5202880859374999
1.55009765625
1.5364013671874999
1.5122314453124999
1.5186767578125
1.65
1.6048828124999999
1.574267578125
1.5565429687499999
1.546875
1.525927734375
1.4711425781249998
1.4800048828124999
1.4888671875
1.490478515625
1.5082031249999999
1.5243164062499999
1.5001464843749999
1.513037109375
1.5154541015624998
1.5033691406249998
1.4993408203124998
1.5404296874999999
1.529150390625
1.5235107421874998
1.5194824218749998
1.4268310546874998
1.461474609375
1.506591796875
1.5323730468749999
1.5170654296875
1.5492919921875
1.5597656249999998
1.62744140625
1.587158203125
1.5702392578125
1.5702392578125
1.5573486328125
1.5678222656249998
1.5323730468749999
1.5299560546875
1.5218994140625
1.5404296874999999
1.5194824218749998
1.5533203125
1.53720703125
1.56298828125
1.5919921874999998
1.63388671875
1.5509033203125
1.55009765625
1.5412353515625
1.5275390624999998
1.4800048828124999
1.482421875
1.4655029296875
1.4961181640624999
1.5033691406249998
1.4977294921875
1.493701171875
1.506591796875
1.5315673828124998
1.5315673828124998
1.5162597656249999
1.5090087890625
1.522705078125
1.538818359375
1.5347900390625
1.4953124999999998
1.4316650390624999
1.50498046875
1.5033691406249998
1.5235107421874998
1.5444580078124999
1.5484863281249999
1.64677734375
1.6056884765625
1.5702392578125
1.5565429687499999
1.5621826171875
1.5831298828125
1.5589599609375
1.542041015625
1.5412353515625
1.5444580078124999
1.5323730468749999
1.55009765625
1.542041015625
1.529150390625
1.5347900390625
1.609716796875
1.5678222656249998
1.561376953125
1.53720703125
1.545263671875
1.509814453125
1.4953124999999998
1.4719482421874999
1.4928955078125
1.5073974609374998
1.5033691406249998
1.5154541015624998
1.4912841796874998
1.513037109375
1.5275390624999998
1.5251220703125
1.53720703125
1.525927734375
1.5138427734375
1.5283447265624999
1.5114257812499998
1.43408203125
1.5106201171875
1.5017578125
1.5082031249999999
1.53720703125
1.5404296874999999
1.6346923828125
1.5766845703124999
1.5654052734375
1.5541259765625
1.5267333984375
1.5541259765625
1.5621826171875
1.558154296875
1.5428466796875
1.5509033203125
1.538818359375
1.5331787109375
1.5323730468749999
1.53076171875
1.5243164062499999
1.6451660156249999
1.5839355468749998
1.5605712890624999
1.5492919921875
1.5218994140625
1.5138427734375
1.4880615234374999
1.482421875
1.4719482421874999
1.4928955078125
1.5122314453124999
1.4888671875
1.5194824218749998
1.522705078125
1.5138427734375
1.529150390625
1.5355957031249998
1.5218994140625
1.5275390624999998
1.52109375
1.5331787109375
1.4300537109375
1.4759765624999999
1.4928955078125
1.5090087890625
1.529150390625
1.542041015625
1.6201904296874998
1.6153564453125
1.5831298828125
1.5645996093749999
1.554931640625
1.5557373046874998
1.5404296874999999
1.5589599609375
1.5404296874999999
1.5509033203125
1.5573486328125
1.5315673828124998
1.525927734375
1.5251220703125
1.5380126953125
1.6121337890624998
1.587158203125
1.561376953125
1.5492919921875
1.546875
1.5194824218749998
1.4928955078125
1.4711425781249998
1.477587890625
1.4896728515625
1.493701171875
1.5154541015624998
1.53720703125
1.50498046875
1.496923828125
1.5138427734375
1.51787109375
1.5090087890625
1.522705078125
1.546875
1.5404296874999999
1.397021484375
1.4655029296875
1.5194824218749998
1.5364013671874999
1.522705078125
1.5396240234374998
1.5734619140625
1.6234130859375
1.577490234375
1.5927978515624999
1.5517089843749998
1.5492919921875
1.5380126953125
1.5154541015624998
1.5573486328125
1.5364013671874999
1.525927734375
1.5444580078124999
1.5444580078124999
1.5243164062499999
1.50498046875
1.622607421875
1.5976318359375
1.5476806640624998
1.5589599609375
1.571044921875
1.5138427734375
1.5009521484375
1.482421875
1.464697265625
1.49853515625
1.4961181640624999
1.5009521484375
1.522705078125
1.5001464843749999
1.4912841796874998
1.5235107421874998
1.5283447265624999
1.5565429687499999
1.5202880859374999
1.53720703125
1.5202880859374999
1.458251953125
1.4413330078125
1.522705078125
1.496923828125
1.5154541015624998
1.5404296874999999
1.5815185546875
1.6330810546874999
1.6040771484374998
1.554931640625
1.5589599609375
1.56298828125
1.561376953125
1.558154296875
1.5235107421874998
1.5476806640624998
1.5396240234374998
1.5355957031249998
1.5162597656249999
1.513037109375
1.49853515625
1.5541259765625
1.606494140625
1.5533203125
1.5573486328125
1.5396240234374998
1.5073974609374998
1.513037109375
1.490478515625
1.4848388671875
1.4953124999999998
1.4848388671875
1.5082031249999999
1.5090087890625
1.5122314453124999
1.5146484375
1.5170654296875
1.5347900390625
1.5323730468749999
1.542041015625
1.5275390624999998
1.5114257812499998
1.4469726562499998
1.4228027343749998
1.4872558593749998
1.5090087890625
1.5186767578125
1.5492919921875
1.5565429687499999
1.622607421875
1.6040771484374998
1.5831298828125
1.5678222656249998
1.546875
1.529150390625
1.5565429687499999
1.5565429687499999
1.5251220703125
1.5444580078124999
1.5323730468749999
1.561376953125
1.5315673828124998
1.5243164062499999
1.5428466796875
1.6427490234375
1.5702392578125
1.5396240234374998
1.5557373046874998
1.5162597656249999
1.5114257812499998
1.480810546875
1.482421875
1.4832275390624998
1.493701171875
1.490478515625
1.5001464843749999
1.5033691406249998
1.5412353515625
1.5428466796875
1.5146484375
1.533984375
1.4977294921875
1.5275390624999998
1.5331787109375
1.5267333984375
1.4195800781249999
1.5090087890625
1.4888671875
1.5267333984375
1.5525146484374999
1.5678222656249998
1.609716796875
1.5927978515624999
1.58232421875
1.5541259765625
1.5726562499999999
1.558154296875
1.5597656249999998
1.5436523437499998
1.5436523437499998
1.533984375
1.5364013671874999
1.538818359375
1.5331787109375
1.5380126953125
1.5275390624999998
1.6282470703124998
1.5654052734375
1.55009765625
1.56943359375
1.53720703125
1.5194824218749998
1.464697265625
1.4735595703125
1.4832275390624998
1.490478515625
1.4993408203124998
1.4872558593749998
1.5162597656249999
1.4993408203124998
1.5412353515625
1.5331787109375
1.5202880859374999
1.542041015625
1.5364013671874999
1.5202880859374999
1.5114257812499998
1.413134765625
1.4872558593749998
1.5146484375
1.5025634765625
1.5154541015624998
1.56298828125
1.625830078125
1.622607421875
1.5758789062499998
1.5428466796875
1.558154296875
1.554931640625
1.5428466796875
1.542041015625
1.5573486328125
1.53720703125
1.5525146484374999
1.5218994140625
1.53720703125
1.5073974609374998
1.509814453125
1.6556396484375
1.5750732421875
1.561376953125
1.5605712890624999
1.558154296875
1.5323730468749999
1.4888671875
1.4719482421874999
1.477587890625
1.4759765624999999
1.5106201171875
1.5186767578125
1.4945068359375
1.51787109375
1.5146484375
1.5009521484375
1.53076171875
1.5235107421874998
1.5323730468749999
1.5267333984375
1.5412353515625
1.4284423828125
1.456640625
1.4945068359375
1.5162597656249999
1.5162597656249999
1.5686279296874999
1.5895751953125
1.6379150390625
1.5758789062499998
1.546875
1.5605712890624999
1.5517089843749998
1.5541259765625
1.5484863281249999
1.5396240234374998
1.5323730468749999
1.5525146484374999
1.5202880859374999
1.529150390625
1.5347900390625
1.5194824218749998
1.6000488281249998
1.6322753906249998
1.5589599609375
1.542041015625
1.558154296875
1.5299560546875
1.5082031249999999
1.4638916015624999
1.456640625
1.496923828125
1.4671142578124998
1.50498046875
1.5186767578125
1.5122314453124999
1.529150390625
1.5114257812499998
1.5315673828124998
1.5170654296875
1.5162597656249999
1.5186767578125
1.5299560546875
1.4630859374999998
1.4622802734375
1.5001464843749999
1.5275390624999998
1.52109375
1.5428466796875
1.5645996093749999
1.61455078125
1.6121337890624998
1.5605712890624999
1.5573486328125
1.55009765625
1.5533203125
1.53720703125
1.5404296874999999
1.5517089843749998
1.558154296875
1.522705078125
1.5315673828124998
1.5243164062499999
1.5347900390625
1.5791015625
1.6363037109374998
1.577490234375
1.5686279296874999
1.546875
1.522705078125
1.522705078125
1.4590576171874998
1.4751708984374998
1.4671142578124998
1.4928955078125
1.5033691406249998
1.506591796875
1.5090087890625
1.53720703125
1.5202880859374999
1.5267333984375
1.5484863281249999
1.5355957031249998
1.5347900390625
1.5315673828124998
1.4703369140625
1.42119140625
1.4840332031249999
1.4993408203124998
1.50498046875
1.5251220703125
1.5807128906249999
1.635498046875
1.5976318359375
1.5678222656249998
1.5565429687499999
1.53076171875
1.56298828125
1.5541259765625
1.5517089843749998
1.5541259765625
1.5404296874999999
1.538818359375
1.53720703125
1.525927734375
1.542041015625
1.533984375
1.6234130859375
1.5718505859374998
1.5533203125
1.545263671875
1.533984375
1.51787109375
1.4880615234374999
1.490478515625
1.4751708984374998
1.4961181640624999
1.5073974609374998
1.4961181640624999
1.4945068359375
1.5267333984375
1.5138427734375
1.5323730468749999
1.5162597656249999
1.51787109375
1.538818359375
1.542041015625
1.4880615234374999
1.4236083984374999
1.5025634765625
1.513037109375
1.5001464843749999
1.542041015625
1.5637939453124998
1.6266357421875
1.6024658203125
1.5734619140625
1.5637939453124998
1.5637939453124998
1.5605712890624999
1.5484863281249999
1.546875
1.5533203125
1.53076171875
1.529150390625
1.5218994140625
1.5323730468749999
1.5565429687499999
1.5114257812499998
1.62744140625
1.5670166015625
1.5597656249999998
1.5654052734375
1.53076171875
1.5275390624999998
1.4703369140625
1.4840332031249999
1.4816162109375
1.474365234375
1.4735595703125
