1.716064453125
1.609716796875
1.5984375
1.56298828125
1.5726562499999999
1.5541259765625
1.5315673828124998
1.5404296874999999
1.542041015625
1.545263671875
1.538818359375
1.5428466796875
1.5460693359375
1.5323730468749999
1.6153564453125
1.6798095703125
1.5831298828125
1.5525146484374999
1.5557373046874998
1.513037109375
1.4574462890625
1.4461669921875
1.4469726562499998
1.4445556640625
1.493701171875
1.4961181640624999
1.4848388671875
1.5041748046874999
1.5275390624999998
1.53720703125
1.5404296874999999
1.5202880859374999
1.538818359375
1.5323730468749999
1.5428466796875
1.4107177734374998
1.3768798828125
1.5025634765625
1.5090087890625
1.5194824218749998
1.585546875
1.6443603515624998
1.7200927734375
1.6081054687499998
1.5637939453124998
1.5597656249999998
1.5645996093749999
1.5734619140625
1.558154296875
1.5484863281249999
1.5170654296875
1.529150390625
1.5315673828124998
1.5243164062499999
1.5243164062499999
1.5396240234374998
1.546875
1.7072021484375
1.5766845703124999
1.5412353515625
1.5541259765625
1.5323730468749999
1.4638916015624999
1.4638916015624999
1.4252197265625
1.458251953125
1.4655029296875
1.4977294921875
1.4888671875
1.509814453125
1.5202880859374999
1.525927734375
1.5218994140625
1.522705078125
1.5331787109375
1.5444580078124999
1.5404296874999999
1.4389160156249998
1.3583496093749998
1.5122314453124999
1.4953124999999998
1.5202880859374999
1.5509033203125
1.585546875
1.7176757812499999
1.6322753906249998
1.585546875
1.5718505859374998
1.5662109375
1.5758789062499998
1.5637939453124998
1.5517089843749998
1.5355957031249998
1.5202880859374999
1.5218994140625
1.5267333984375
1.5299560546875
1.5275390624999998
1.5428466796875
1.732177734375
1.6129394531249999
1.5404296874999999
1.561376953125
1.5404296874999999
1.4735595703125
1.4638916015624999
1.4268310546874998
1.4526123046875
1.461474609375
1.480810546875
1.490478515625
1.4880615234374999
1.5235107421874998
1.522705078125
1.5355957031249998
1.5492919921875
1.5235107421874998
1.5283447265624999
1.53720703125
1.5347900390625
1.33740234375
1.5057861328125
1.5082031249999999
1.5162597656249999
1.5525146484374999
1.585546875
1.73056640625
1.6443603515624998
1.6008544921874999
1.56298828125
1.5573486328125
1.56298828125
1.558154296875
1.5412353515625
1.522705078125
1.5492919921875
1.5299560546875
1.529150390625
1.538818359375
1.5364013671874999
1.5315673828124998
1.714453125
1.6040771484374998
1.554931640625
1.5702392578125
1.5476806640624998
1.5033691406249998
1.400244140625
1.4356933593749999
1.4389160156249998
1.4880615234374999
1.48564453125
1.5122314453124999
1.5025634765625
1.4920898437499999
1.513037109375
1.5218994140625
1.55009765625
1.533984375
1.5162597656249999
1.5275390624999998
1.5404296874999999
1.327734375
1.46953125
1.5090087890625
1.5218994140625
1.5436523437499998
1.5702392578125
1.7281494140625
1.67578125
1.6024658203125
1.5678222656249998
1.5557373046874998
1.5517089843749998
1.5678222656249998
1.561376953125
1.5484863281249999
1.55009765625
1.5235107421874998
1.5283447265624999
1.529150390625
1.5082031249999999
1.5557373046874998
1.6532226562499999
1.622607421875
1.5484863281249999
1.5565429687499999
1.5283447265624999
1.5017578125
1.4598632812499999
1.4413330078125
1.4461669921875
1.4735595703125
1.4840332031249999
1.5090087890625
1.5073974609374998
1.50498046875
1.5090087890625
1.5194824218749998
1.5243164062499999
1.5114257812499998
1.5251220703125
1.5380126953125
1.5670166015625
1.3188720703124999
1.458251953125
1.513037109375
1.5025634765625
1.5476806640624998
1.5702392578125
1.6322753906249998
1.6878662109375
1.6081054687499998
1.56943359375
1.546875
1.5541259765625
1.5597656249999998
1.5533203125
1.529150390625
1.529150390625
1.5347900390625
1.5283447265624999
1.5396240234374998
1.5404296874999999
1.5428466796875
1.6346923828125
1.6773925781249999
1.533984375
1.5380126953125
1.5299560546875
1.509814453125
1.4493896484375
1.4558349609374999
1.4477783203124999
1.45341796875
1.4864501953125
1.4912841796874998
1.5001464843749999
1.506591796875
1.52109375
1.5436523437499998
1.529150390625
1.5565429687499999
1.5404296874999999
1.5404296874999999
1.542041015625
1.40185546875
1.45341796875
1.5122314453124999
1.5114257812499998
1.5082031249999999
1.5718505859374998
1.6620849609375
1.7257324218749999
1.6056884765625
1.5807128906249999
1.5589599609375
1.5517089843749998
1.546875
1.545263671875
1.546875
1.5299560546875
1.5436523437499998
1.5476806640624998
1.5404296874999999
1.5396240234374998
1.5323730468749999
1.5976318359375
1.6798095703125
1.554931640625
1.558154296875
1.542041015625
1.51787109375
1.4880615234374999
1.4518066406249999
1.4268310546874998
1.4276367187499999
1.4767822265625
1.5025634765625
1.5106201171875
1.5218994140625
1.5090087890625
1.5267333984375
1.5146484375
1.558154296875
1.545263671875
1.51787109375
1.5299560546875
1.4034667968749999
1.3784912109374998
1.5122314453124999
1.5138427734375
1.5202880859374999
1.5557373046874998
1.611328125
1.7200927734375
1.6395263671875
1.5766845703124999
1.577490234375
1.561376953125
1.5412353515625
1.55009765625
1.545263671875
1.5364013671874999
1.5404296874999999
1.5412353515625
1.522705078125
1.52109375
1.5299560546875
1.5436523437499998
1.76279296875
1.5782958984375
1.5533203125
1.5396240234374998
1.5033691406249998
1.4655029296875
1.464697265625
1.44052734375
1.4638916015624999
1.4767822265625
1.482421875
1.5025634765625
1.4928955078125
1.506591796875
1.5251220703125
1.5364013671874999
1.5380126953125
1.533984375
1.5323730468749999
1.546875
1.5347900390625
1.3639892578125
1.5073974609374998
1.5194824218749998
1.53720703125
1.5557373046874998
1.5726562499999999
1.7362060546875
1.6403320312499998
1.590380859375
1.5662109375
1.5565429687499999
1.5702392578125
1.5678222656249998
1.5557373046874998
1.5380126953125
1.5170654296875
1.5283447265624999
1.5347900390625
1.53076171875
1.5315673828124998
1.5138427734375
1.7281494140625
1.5919921874999998
1.5589599609375
1.5678222656249998
1.52109375
1.4759765624999999
1.4316650390624999
1.4469726562499998
1.4437499999999999
1.4703369140625
1.4920898437499999
1.50498046875
1.5057861328125
1.5243164062499999
1.5146484375
1.5347900390625
1.546875
1.546875
1.53076171875
1.5364013671874999
1.53720703125
1.327734375
1.496923828125
1.490478515625
1.51787109375
1.5541259765625
1.56943359375
1.7257324218749999
1.6685302734374998
1.5944091796875
1.5807128906249999
1.5476806640624998
1.5541259765625
1.5436523437499998
1.5380126953125
1.5565429687499999
1.53076171875
1.5251220703125
1.5364013671874999
1.5315673828124998
1.5436523437499998
1.5267333984375
1.7362060546875
1.6218017578125
1.5484863281249999
1.554931640625
1.5162597656249999
1.4928955078125
1.4477783203124999
1.4381103515625
1.4469726562499998
1.461474609375
1.4953124999999998
1.4864501953125
1.4791992187499998
1.5347900390625
1.5146484375
1.522705078125
1.53720703125
1.5243164062499999
1.5355957031249998
1.542041015625
1.538818359375
1.3301513671874998
1.4622802734375
1.5114257812499998
1.5114257812499998
1.546875
1.554931640625
1.6975341796874999
1.690283203125
1.6105224609375
1.5654052734375
1.561376953125
1.55009765625
1.546875
1.5436523437499998
1.5637939453124998
1.546875
1.5444580078124999
1.5243164062499999
1.53720703125
1.5380126953125
1.5323730468749999
1.6620849609375
1.60166015625
1.5484863281249999
1.5597656249999998
1.538818359375
1.50498046875
1.4550292968749998
1.4542236328125
1.4477783203124999
1.46953125
1.4832275390624998
1.4791992187499998
1.4888671875
1.5041748046874999
1.5299560546875
1.5162597656249999
1.5565429687499999
1.53720703125
1.5267333984375
1.5122314453124999
1.5243164062499999
1.3253173828125
1.4510009765624998
1.533984375
1.50498046875
1.5525146484374999
1.577490234375
1.6475830078125
1.6951171875
1.6040771484374998
1.5605712890624999
1.558154296875
1.5670166015625
1.574267578125
1.5347900390625
1.529150390625
1.53720703125
1.5194824218749998
1.5396240234374998
1.546875
1.5243164062499999
1.5299560546875
1.658056640625
1.6959228515625
1.5670166015625
1.558154296875
1.5331787109375
1.5106201171875
1.4598632812499999
1.456640625
1.4268310546874998
1.480810546875
1.4928955078125
1.4864501953125
1.5090087890625
1.52109375
1.5218994140625
1.50498046875
1.5235107421874998
1.5444580078124999
1.542041015625
1.5380126953125
1.5380126953125
1.4034667968749999
1.3672119140624999
1.50498046875
1.5041748046874999
1.525927734375
1.5799072265624998
1.6201904296874998
1.7120361328125
1.6153564453125
1.5766845703124999
1.5831298828125
1.5702392578125
1.5782958984375
1.538818359375
1.5541259765625
1.5396240234374998
1.522705078125
1.5283447265624999
1.5412353515625
1.5484863281249999
1.5299560546875
1.5267333984375
1.6967285156249998
1.5541259765625
1.5444580078124999
1.5517089843749998
1.5082031249999999
1.4373046875
1.4413330078125
1.4219970703125
1.4526123046875
1.4751708984374998
1.4977294921875
1.5114257812499998
1.51787109375
1.5380126953125
1.5404296874999999
1.5251220703125
1.529150390625
1.529150390625
1.53720703125
1.5267333984375
1.38896484375
1.3672119140624999
1.490478515625
1.5460693359375
1.554931640625
1.5686279296874999
1.603271484375
1.7281494140625
1.6451660156249999
1.5960205078124998
1.5573486328125
1.5444580078124999
1.545263671875
1.5460693359375
1.5476806640624998
1.5009521484375
1.5355957031249998
1.533984375
1.5170654296875
1.5073974609374998
1.5347900390625
1.558154296875
1.7635986328125
1.5863525390625
1.5718505859374998
1.574267578125
1.493701171875
1.464697265625
1.4501953125
1.4091064453125
1.4397216796874999
1.4840332031249999
1.493701171875
1.5001464843749999
1.496923828125
1.5186767578125
1.5090087890625
1.5251220703125
1.5347900390625
1.5396240234374998
1.525927734375
1.5299560546875
1.5251220703125
1.3470703124999999
1.49853515625
1.5122314453124999
1.496923828125
1.5565429687499999
1.5895751953125
1.7692382812499998
1.6935058593749999
1.5879638671874998
1.546875
1.5492919921875
1.529150390625
1.525927734375
1.522705078125
1.5404296874999999
1.538818359375
1.554931640625
1.5597656249999998
1.5734619140625
1.5484863281249999
1.5517089843749998
1.78857421875
1.6427490234375
1.5919921874999998
1.5847412109374999
1.5565429687499999
1.4703369140625
1.364794921875
1.3631835937499999
1.3768798828125
1.4284423828125
1.46630859375
1.474365234375
1.4816162109375
1.5009521484375
1.5347900390625
1.5218994140625
1.5492919921875
1.558154296875
1.5645996093749999
1.5476806640624998
1.5364013671874999
1.3148437499999999
1.4993408203124998
1.51787109375
1.5162597656249999
1.5621826171875
1.56943359375
1.7297607421874999
1.67578125
1.5839355468749998
1.56298828125
1.5621826171875
1.5645996093749999
1.5509033203125
1.546875
1.509814453125
1.558154296875
1.5218994140625
1.538818359375
1.5484863281249999
1.5404296874999999
1.5218994140625
1.7531249999999998
1.6161621093749998
1.5621826171875
1.574267578125
1.5315673828124998
1.4840332031249999
1.4469726562499998
1.458251953125
1.4373046875
1.464697265625
1.4638916015624999
1.5186767578125
1.5106201171875
1.493701171875
1.5114257812499998
1.51787109375
1.5275390624999998
1.513037109375
1.5323730468749999
1.50498046875
1.5444580078124999
1.3382080078124998
1.4912841796874998
1.525927734375
1.5025634765625
1.513037109375
1.5815185546875
1.72734375
1.6959228515625
1.611328125
1.5412353515625
1.5331787109375
1.542041015625
1.5380126953125
1.51787109375
1.5355957031249998
1.5517089843749998
1.5573486328125
1.5525146484374999
1.5597656249999998
1.546875
1.5484863281249999
1.6854492187499999
1.683837890625
1.538818359375
1.5565429687499999
1.5412353515625
1.5090087890625
1.4364990234375
1.4228027343749998
1.42119140625
1.4655029296875
1.4840332031249999
1.490478515625
1.4719482421874999
1.5347900390625
1.529150390625
1.53076171875
1.5460693359375
1.55009765625
1.5315673828124998
1.5621826171875
1.5243164062499999
1.3502929687499998
1.4034667968749999
1.4719482421874999
1.4945068359375
1.5541259765625
1.5919921874999998
1.7047851562499998
1.72734375
1.6266357421875
1.5734619140625
1.5662109375
1.571044921875
1.5654052734375
1.5758789062499998
1.53076171875
1.5315673828124998
1.53076171875
1.5492919921875
1.5025634765625
1.50498046875
1.5186767578125
1.6620849609375
1.73056640625
1.611328125
1.5960205078124998
1.5670166015625
1.496923828125
1.4437499999999999
1.4252197265625
1.3833251953124999
1.429248046875
1.4558349609374999
1.442138671875
1.4783935546875
1.5162597656249999
1.525927734375
1.5380126953125
1.5573486328125
1.5194824218749998
1.522705078125
1.5412353515625
1.51787109375
1.2697265624999998
1.276171875
1.5033691406249998
1.53076171875
1.5492919921875
1.6298583984375
1.687060546875
1.7990478515625
1.6846435546874998
1.6072998046875
1.529150390625
1.5815185546875
1.5243164062499999
1.4961181640624999
1.5186767578125
1.5347900390625
1.5533203125
1.53720703125
1.5766845703124999
1.5404296874999999
1.53076171875
1.5476806640624998
1.799853515625
1.6612792968749999
1.5791015625
1.5017578125
1.4598632812499999
1.413134765625
1.400244140625
1.4107177734374998
1.4034667968749999
1.4356933593749999
1.456640625
1.4896728515625
1.5114257812499998
1.5436523437499998
1.5597656249999998
1.561376953125
1.5565429687499999
1.5726562499999999
1.5565429687499999
1.5025634765625
1.2858398437499998
1.2802001953125
1.482421875
1.5275390624999998
1.558154296875
1.587158203125
1.5927978515624999
1.8941162109374998
1.7692382812499998
1.6653076171874999
1.5436523437499998
1.55009765625
1.4896728515625
1.4413330078125
1.49853515625
1.5911865234375
1.60166015625
1.529150390625
1.4598632812499999
1.5170654296875
1.4848388671875
1.53076171875
1.8635009765625
1.6451660156249999
1.5960205078124998
1.5807128906249999
1.5275390624999998
1.4518066406249999
1.3204833984375
1.3083984375
1.3962158203125
1.461474609375
1.513037109375
1.4848388671875
1.4622802734375
1.5202880859374999
1.4840332031249999
1.482421875
1.5645996093749999
1.5734619140625
1.585546875
1.5484863281249999
1.5170654296875
1.184326171875
1.3801025390625
1.3599609375
1.4598632812499999
1.5621826171875
1.69833984375
1.9634033203124999
1.7587646484375
1.6314697265625
1.611328125
1.5621826171875
1.5791015625
1.585546875
1.5831298828125
1.5218994140625
1.49853515625
1.5364013671874999
1.5879638671874998
1.52109375
1.5355957031249998
1.5331787109375
1.9521240234375
1.706396484375
1.6209960937499999
1.55009765625
1.5194824218749998
1.4219970703125
1.3059814453124998
1.248779296875
1.3301513671874998
1.4276367187499999
1.4107177734374998
1.5009521484375
1.5251220703125
1.5251220703125
1.509814453125
1.4888671875
1.5001464843749999
1.4864501953125
1.546875
1.5992431640625
1.538818359375
1.0127197265624999
1.2979248046874998
1.4252197265625
1.393798828125
1.4993408203124998
1.6540283203125
1.9625976562499998
1.972265625
1.819189453125
1.638720703125
1.5944091796875
1.5782958984375
1.58232421875
1.509814453125
1.5041748046874999
1.5202880859374999
1.458251953125
1.4389160156249998
1.5460693359375
1.5218994140625
1.5799072265624998
2.135009765625
1.9625976562499998
1.7579589843749999
1.611328125
1.5364013671874999
1.4139404296875
1.2318603515625
1.1351806640625
1.1496826171874999
1.2318603515625
1.3067871093749999
1.3237060546875
1.3986328124999998
1.533984375
1.5025634765625
1.5436523437499998
1.5146484375
1.5782958984375
1.5460693359375
1.5323730468749999
1.590380859375
0.8024414062499999
1.0731445312499999
1.353515625
1.4195800781249999
1.52109375
1.683837890625
2.2187988281249997
2.1704589843749997
1.957763671875
1.799853515625
1.585546875
1.5662109375
1.6991455078125
1.6717529296875
1.6427490234375
1.574267578125
1.4848388671875
1.545263671875
1.4993408203124998
1.480810546875
1.5017578125
2.1140624999999997
2.0898925781249997
1.7233154296875
1.6451660156249999
1.5662109375
1.3510986328124999
1.090869140625
1.04736328125
1.0497802734375
1.24072265625
1.287451171875
1.313232421875
1.4510009765624998
1.5678222656249998
1.538818359375
1.5428466796875
1.5718505859374998
1.5025634765625
1.5355957031249998
1.5758789062499998
1.5944091796875
0.8596435546875
0.9740478515625
1.2270263671875
1.37607421875
1.5517089843749998
1.6814208984374999
2.0874755859375
2.333203125
1.9303710937499998
1.783740234375
1.7748779296875
1.7700439453124999
1.7249267578124998
1.4920898437499999
1.5235107421874998
1.6322753906249998
1.5573486328125
1.5597656249999998
1.5154541015624998
1.4703369140625
1.397021484375
1.977099609375
2.1052001953125
1.7821289062499999
1.641943359375
1.5090087890625
1.4493896484375
1.252001953125
1.0916748046875
1.07958984375
1.1214843749999999
1.340625
1.4026611328124998
1.41796875
1.4719482421874999
1.5194824218749998
1.5541259765625
1.5815185546875
1.5106201171875
1.5686279296874999
1.5597656249999998
1.5492919921875
0.9273193359374999
0.903955078125
1.2673095703125
1.3220947265624998
1.4203857421875
1.6000488281249998
1.9279541015625
2.4210205078125
2.1704589843749997
1.8022705078124999
1.6008544921874999
1.5807128906249999
1.5444580078124999
1.5243164062499999
1.6081054687499998
1.513037109375
1.513037109375
1.48564453125
1.4840332031249999
1.5146484375
1.5283447265624999
1.5847412109374999
2.16884765625
1.8135498046874998
1.7571533203124998
1.6806152343749998
1.4268310546874998
1.31162109375
1.1738525390624999
0.9982177734375
1.0530029296874999
1.2431396484375
1.3365966796875
1.3664062499999998
1.3986328124999998
1.4332763671875
1.5355957031249998
1.5645996093749999
1.635498046875
1.6056884765625
1.58232421875
1.5331787109375
0.920068359375
0.7718261718749999
1.1625732421875
1.2930908203125
1.5025634765625
1.7289550781249998
1.8385253906249999
2.4298828125
2.152734375
1.8667236328124999
1.72412109375
1.6363037109374998
1.5235107421874998
1.5073974609374998
1.5001464843749999
1.5090087890625
1.482421875
1.4864501953125
1.513037109375
1.5331787109375
1.4928955078125
1.4912841796874998
2.3235351562499997
1.9674316406249999
1.6935058593749999
1.6306640625
1.55009765625
1.35673828125
1.1706298828125
1.0497802734375
1.1110107421875
1.2310546875
1.3712402343749999
1.3559326171875
1.4268310546874998
1.5033691406249998
1.5146484375
1.5533203125
1.5597656249999998
1.5436523437499998
1.545263671875
1.5186767578125
1.442138671875
0.720263671875
1.24072265625
1.4397216796874999
1.4751708984374998
1.5750732421875
1.738623046875
2.4177978515625
2.204296875
2.0004638671875
1.7845458984375
1.5887695312499999
1.5251220703125
1.5533203125
1.5597656249999998
1.5267333984375
1.426025390625
1.3905761718749998
1.4638916015624999
1.5082031249999999
1.5218994140625
1.509814453125
2.42666015625
2.0568603515625
1.8707519531249999
1.6298583984375
1.5702392578125
1.3921875
1.200439453125
0.9611572265624999
0.978076171875
1.0900634765625
1.1738525390624999
1.37607421875
1.40830078125
1.4791992187499998
1.49853515625
1.5315673828124998
1.5106201171875
1.46953125
1.5162597656249999
1.593603515625
1.625830078125
0.8040527343749999
1.14404296875
1.3736572265625
1.4219970703125
1.58232421875
1.7781005859374999
2.3694580078125
2.26552734375
2.006103515625
1.72412109375
1.6081054687499998
1.5791015625
1.4920898437499999
1.5202880859374999
1.49853515625
1.5726562499999999
1.5243164062499999
1.53076171875
1.5750732421875
1.538818359375
1.5315673828124998
2.2268554687499997
1.973876953125
1.732177734375
1.4977294921875
1.400244140625
1.3728515625
1.11181640625
1.026416015625
0.9837158203124999
1.1625732421875
1.2802001953125
1.429248046875
1.4268310546874998
1.5444580078124999
1.619384765625
1.5702392578125
1.6048828124999999
1.5057861328125
1.5396240234374998
1.56298828125
1.5017578125
0.6517822265625
1.0094970703125
1.2963134765625
1.45341796875
1.585546875
1.7410400390624998
2.2760009765625
2.34931640625
2.167236328125
1.8312744140625
1.6588623046875
1.5444580078124999
1.56298828125
1.5436523437499998
1.4550292968749998
1.5090087890625
1.5533203125
1.53720703125
1.4719482421874999
1.4316650390624999
1.3712402343749999
2.099560546875
2.14306640625
1.8546386718749999
1.7007568359374998
1.6048828124999999
1.4526123046875
1.094091796875
0.9990234375
0.9216796875
1.1206787109375
1.3108154296874999
1.397021484375
1.3269287109374999
1.4638916015624999
1.4864501953125
1.6153564453125
1.5670166015625
1.606494140625
1.6725585937499998
1.5484863281249999
1.5347900390625
0.7718261718749999
0.942626953125
1.21171875
1.30517578125
1.5218994140625
1.7507080078125
2.0761962890625
2.5418701171875
2.254248046875
1.9940185546875
1.8240234375
1.6072998046875
1.506591796875
1.4920898437499999
1.397021484375
1.4381103515625
1.46953125
1.405078125
1.4501953125
1.4767822265625
1.542041015625
2.1599853515625
2.2228271484374997
1.8417480468749998
1.7450683593749998
1.7072021484375
1.4356933593749999
1.1408203125
1.03447265625
1.02158203125
1.0691162109374999
1.1754638671875
1.2608642578125
1.3148437499999999
1.4252197265625
1.5533203125
1.585546875
1.6435546875
1.65
1.58232421875
1.529150390625
1.5122314453124999
0.7863281249999999
0.749267578125
1.1674072265625
1.3728515625
1.506591796875
1.6653076171874999
1.9545410156249998
2.5128662109374997
2.24619140625
1.8868652343749999
1.7982421874999999
1.7208984374999998
1.593603515625
1.480810546875
1.4872558593749998
1.4872558593749998
1.4816162109375
1.5202880859374999
1.5138427734375
1.5235107421874998
1.5992431640625
1.5057861328125
2.3968505859375
1.8570556640625
1.6588623046875
1.5766845703124999
1.3672119140624999
1.173046875
0.936181640625
0.8749511718749999
0.9724365234375
1.1214843749999999
1.2689208984375
1.4397216796874999
1.48564453125
1.619384765625
1.6314697265625
1.5960205078124998
1.5895751953125
1.7047851562499998
1.5517089843749998
1.5678222656249998
1.47275390625
0.60263671875
1.00546875
1.1641845703125
1.46953125
1.7370117187499998
1.88525390625
2.719921875
2.52978515625
2.2598876953125
1.9754882812499999
1.6846435546874998
1.5734619140625
1.46953125
1.464697265625
1.4783935546875
1.3978271484375
1.4187744140624998
1.3994384765624999
1.353515625
1.5090087890625
1.5355957031249998
2.5330078124999997
2.3404541015625
1.9972412109375
1.8900878906249998
1.6153564453125
1.2689208984375
0.936181640625
0.6985107421875
0.5969970703124999
0.7565185546875
0.9385986328125
1.0642822265625
1.142431640625
1.2254150390625
1.3607666015625
1.5444580078124999
1.5976318359375
1.5734619140625
1.5968261718749999
1.6556396484375
1.5251220703125
0.270703125
0.5091796875
0.5736328125
0.734765625
1.0626708984375
1.44052734375
2.5660400390625
2.8939453124999996
2.7424804687499997
2.5757080078124996
2.4121582031249997
2.10439453125
1.9440673828125
1.7942138671874999
1.7668212890625
1.7772949218749998
1.6854492187499999
1.5758789062499998
1.4953124999999998
1.490478515625
1.4928955078125
2.9970703125
2.8472167968749997
2.7287841796874996
2.457275390625
2.22041015625
1.7595703125
1.0787841796875
0.420556640625
0.24331054687499998
0.15146484375
0.29970703125
0.475341796875
0.5091796875
1.007080078125
1.1464599609375
1.3220947265624998
1.3784912109374998
1.464697265625
1.4920898437499999
1.4542236328125
1.5347900390625
0.030615234374999998
0.0620361328125
0.23686523437499998
0.39719238281249997
0.7146240234375
1.03125
2.405712890625
3.0349365234374996
3.0325195312499997
2.8955566406249997
2.7166992187499996
2.5555664062499996
2.367041015625
2.101171875
1.9247314453125
1.815966796875
1.6427490234375
1.6008544921874999
1.6701416015625
1.7458740234374999
1.6459716796875
2.92294921875
3.037353515625
2.9277832031249997
2.7263671874999997
2.4580810546875
1.8860595703124998
1.08603515625
0.6268066406249999
0.0314208984375
0.0314208984375
0.030615234374999998
0.19013671875
0.40283203125
0.708984375
0.9651855468749999
1.0626708984375
1.2350830078125
1.4268310546874998
1.4034667968749999
1.554931640625
1.496923828125
0.0394775390625
0.033837890625
0.03544921875
0.124072265625
0.36496582031249997
0.7871337890625
2.0278564453125
3.034130859375
3.0325195312499997
3.034130859375
2.9382568359374996
2.6675537109375
2.454052734375
2.3694580078125
2.10439453125
2.0681396484375
1.9223144531249998
1.94970703125
1.843359375
1.7942138671874999
1.6056884765625
2.9970703125
3.0365478515624997
3.0317138671875
3.0333251953125
3.0325195312499997
2.711865234375
2.1358154296875
1.17626953125
0.4809814453125
0.12810058593749998
0.030615234374999998
0.0298095703125
0.033032226562499996
0.0322265625
0.0298095703125
0.0314208984375
0.0636474609375
0.167578125
0.31904296875
0.3158203125
0.47453613281249996
0.027392578124999997
0.0298095703125
0.033837890625
0.0298095703125
0.0281982421875
0.030615234374999998
0.0314208984375
1.8457763671874998
2.4580810546875
2.8294921874999996
3.0309082031249996
3.0333251953125
3.0333251953125
3.0325195312499997
3.0252685546875
2.9350341796875
2.9326171875
2.76181640625
2.647412109375
2.5982666015625
2.489501953125
3.0268798828124996
3.0325195312499997
3.0301025390625
3.0333251953125
3.0317138671875
3.034130859375
2.5458984375
2.2002685546875
1.4332763671875
0.6807861328125
0.2956787109375
0.0708984375
0.0298095703125
0.02900390625
0.026586914062499998
0.026586914062499998
0.1393798828125
0.1538818359375
0.2425048828125
0.3037353515625
0.38913574218749997
0.0314208984375
0.0298095703125
0.0314208984375
0.030615234374999998
0.030615234374999998
0.03544921875
0.02900390625
1.5025634765625
2.1648193359375
2.6603027343749996
2.898779296875
2.9068359375
2.963232421875
2.848828125
2.8794433593749997
2.8947509765625
2.8391601562499997
2.6997802734375
2.5974609374999997
2.5789306640625
2.513671875
2.4790283203124996
3.029296875
3.0325195312499997
3.0333251953125
3.0309082031249996
3.0333251953125
3.0357421875
2.29775390625
1.2721435546875
0.7242919921875
0.2747314453125
0.033837890625
0.0314208984375
0.0314208984375
0.030615234374999998
0.0249755859375
0.0322265625
0.19899902343749998
0.29245605468749997
0.36416015625
0.41572265625
0.42941894531249997
0.0314208984375
0.033837890625
0.0298095703125
0.0314208984375
0.030615234374999998
0.0314208984375
1.1158447265625
2.18173828125
2.534619140625
2.6546630859375
2.8069335937499997
2.866552734375
3.02607421875
3.0301025390625
3.0317138671875
2.953564453125
2.81982421875
2.599072265625
2.5982666015625
2.4443847656249997
2.2888916015625
3.0333251953125
3.0365478515624997
3.0349365234374996
3.0325195312499997
3.0325195312499997
3.0317138671875
2.4145751953125
1.50498046875
0.913623046875
0.17241210937499998
0.0322265625
0.0346435546875
0.02578125
0.0298095703125
0.0314208984375
0.042700195312499994
0.11037597656249999
0.20625
0.2553955078125
0.310986328125
0.41733398437499997
0.0346435546875
0.0281982421875
0.02900390625
0.0281982421875
0.0314208984375
0.0298095703125
0.7218749999999999
1.7611816406249998
2.2631103515624997
2.6159912109374996
2.8311035156249997
2.8069335937499997
2.8617187499999996
2.9358398437499997
2.91328125
2.908447265625
2.6925292968749996
2.5652343749999997
2.4685546874999997
2.3114501953124997
2.276806640625
3.0317138671875
3.0333251953125
3.034130859375
3.0317138671875
3.0317138671875
3.029296875
2.5757080078124996
2.0165771484375
1.2221923828124999
0.7065673828125
0.4165283203125
0.1538818359375
0.027392578124999997
0.02578125
0.0298095703125
0.03544921875
0.07412109374999999
0.0668701171875
0.1490478515625
0.17644042968749998
0.23525390624999998
0.0346435546875
0.0314208984375
0.033032226562499996
0.0298095703125
0.033837890625
0.0249755859375
0.057202148437499996
1.7176757812499999
2.4822509765625
2.6135742187499997
2.9285888671875
2.9640380859374997
2.9028076171875
2.8528564453125
2.7134765625
2.6981689453124997
2.7005859374999996
2.6603027343749996
2.52978515625
2.273583984375
2.10439453125
3.0325195312499997
3.0325195312499997
3.034130859375
3.0333251953125
3.029296875
3.0357421875
3.0333251953125
2.183349609375
1.4026611328124998
0.813720703125
0.3826904296875
0.1087646484375
0.024169921875
0.030615234374999998
0.02578125
0.0314208984375
0.0314208984375
0.09990234375
0.17644042968749998
0.262646484375
0.4149169921875
0.0314208984375
0.02900390625
0.0298095703125
0.0298095703125
0.030615234374999998
0.0346435546875
0.0346435546875
1.5895751953125
2.1938232421875
2.4322998046874997
2.6441894531249996
2.7658447265625
2.6458007812499997
2.6852783203125
2.663525390625
2.7263671874999997
2.631298828125
2.5579833984375
2.502392578125
2.358984375
2.2147705078124997
2.09150390625
3.0325195312499997
3.0325195312499997
3.0333251953125
3.0325195312499997
3.0365478515624997
3.0284912109374997
2.4387451171875
1.7595703125
1.0376953125
0.6421142578125
0.291650390625
0.0443115234375
0.02900390625
0.0362548828125
0.0298095703125
0.104736328125
0.2618408203125
0.15468749999999998
0.26425781249999997
0.32548828124999996
0.4189453125
0.0346435546875
0.02900390625
0.0314208984375
0.030615234374999998
0.02900390625
0.02578125
0.9329589843749999
1.93681640625
2.3315917968749997
2.6683593749999996
2.698974609375
2.8883056640625
2.89072265625
2.8375488281249996
2.7900146484375
2.6941406249999997
2.4991699218749996
2.408935546875
2.3211181640625
2.270361328125
2.173681640625
3.0325195312499997
3.0333251953125
3.0325195312499997
3.0357421875
3.0309082031249996
3.034130859375
2.5338134765625
1.699951171875
1.1029541015625
0.5260986328125
0.23122558593749998
0.0298095703125
0.0298095703125
0.030615234374999998
0.0298095703125
0.0314208984375
0.107958984375
0.19658203124999998
0.3029296875
0.2650634765625
0.5003173828124999
0.027392578124999997
0.0298095703125
0.033032226562499996
0.0322265625
0.026586914062499998
0.0281982421875
1.184326171875
2.15595703125
2.698974609375
3.0325195312499997
3.0309082031249996
3.0309082031249996
3.0325195312499997
3.0164062499999997
2.9511474609375
2.8133789062499996
2.6723876953124996
2.4258544921875
2.3823486328125
2.3154785156249997
2.18173828125
3.0357421875
3.0301025390625
3.0325195312499997
3.0309082031249996
3.0333251953125
3.0325195312499997
2.5289794921874997
2.035107421875
1.03125
0.5518798828125
0.3198486328125
0.1796630859375
0.030615234374999998
0.0322265625
0.027392578124999997
0.030615234374999998
0.0298095703125
0.12246093749999999
0.18449707031249998
0.33676757812499997
0.45358886718749997
0.0298095703125
0.033837890625
0.0281982421875
0.02900390625
0.02900390625
0.0281982421875
0.3424072265625
1.7539306640624999
2.354150390625
2.5491210937499997
2.6514404296875
2.62646484375
2.7352294921875
2.6538574218749997
2.7352294921875
2.745703125
2.6482177734374996
2.59423828125
2.4322998046874997
2.3307861328125
2.2437744140625
3.0325195312499997
3.029296875
3.0365478515624997
3.029296875
3.037353515625
3.0333251953125
2.882666015625
2.0020751953125
1.2777832031249998
0.67998046875
0.3158203125
0.15791015625
0.033032226562499996
0.033032226562499996
0.030615234374999998
0.02900390625
0.0249755859375
0.0346435546875
0.103125
0.15146484375
0.1377685546875
0.0298095703125
0.02578125
0.033837890625
0.0298095703125
0.02900390625
0.030615234374999998
0.02900390625
1.5702392578125
2.24619140625
2.5692626953124997
2.7972656249999996
2.834326171875
2.9326171875
2.9455078125
2.9422851562499996
2.8633300781249997
2.8963623046875
2.6377441406249997
2.4613037109375
2.415380859375
2.255859375
2.2187988281249997
3.0309082031249996
3.034130859375
3.0309082031249996
3.0317138671875
3.0381591796875
3.0309082031249996
2.3654296875
1.5621826171875
0.88623046875
0.468896484375
0.270703125
0.088623046875
0.0298095703125
0.0298095703125
0.030615234374999998
0.027392578124999997
0.127294921875
0.136962890625
0.2183349609375
0.3504638671875
0.1619384765625
0.0298095703125
0.030615234374999998
0.0346435546875
0.03544921875
0.02900390625
0.0346435546875
1.4203857421875
1.9924072265625
2.513671875
2.6844726562499996
2.679638671875
2.7811523437499996
2.7747070312499997
2.7352294921875
2.7134765625
2.5144775390625
2.425048828125
2.4967529296874997
2.40732421875
2.2985595703125
2.1978515625
3.0349365234374996
3.0333251953125
3.0301025390625
3.027685546875
3.0325195312499997
3.0333251953125
2.60068359375
1.6185791015625
0.9595458984374999
0.5132080078125
0.2118896484375
0.0298095703125
0.030615234374999998
0.033032226562499996
0.030615234374999998
0.030615234374999998
0.043505859375
0.111181640625
0.20463867187499998
0.3343505859375
0.3665771484375
0.0298095703125
0.030615234374999998
0.033032226562499996
0.02578125
0.0298095703125
0.0322265625
0.46164550781249997
1.9279541015625
2.4097412109375
2.6458007812499997
2.76826171875
2.8319091796875
2.8633300781249997
3.005126953125
2.9656494140625
2.9543701171874996
2.80048828125
2.6401611328124996
2.50400390625
2.321923828125
2.1664306640624997
3.0333251953125
3.0325195312499997
3.0325195312499997
3.0325195312499997
3.0317138671875
3.0333251953125
2.5370361328124997
1.8377197265624998
1.119873046875
0.5389892578125
0.041088867187499996
0.0298095703125
0.02578125
0.0314208984375
0.030615234374999998
0.0314208984375
0.2199462890625
0.223974609375
0.285205078125
0.29970703125
0.307763671875
0.0322265625
0.0298095703125
0.02578125
0.033032226562499996
0.0314208984375
0.0314208984375
0.269091796875
1.5960205078124998
2.13662109375
2.487890625
2.6449951171875
2.7489257812499996
2.8955566406249997
2.9745117187499996
2.8673583984374997
2.827880859375
2.6377441406249997
2.4991699218749996
2.4041015624999997
2.3195068359374997
2.2268554687499997
2.8657470703124996
3.0325195312499997
3.0349365234374996
3.034130859375
3.0325195312499997
3.0357421875
3.021240234375
2.2147705078124997
1.219775390625
0.704150390625
0.38107910156249997
0.030615234374999998
0.0314208984375
0.0314208984375
0.027392578124999997
0.030615234374999998
0.0298095703125
0.0604248046875
0.24814453125
0.343212890625
0.4278076171875
0.0249755859375
0.02900390625
0.030615234374999998
0.026586914062499998
0.033837890625
0.0298095703125
0.030615234374999998
1.538818359375
2.3356201171874997
2.647412109375
2.872998046875
2.8705810546875
2.8617187499999996
2.9108642578125
2.892333984375
2.753759765625
2.54267578125
2.502392578125
2.4693603515625
2.3936279296875
2.228466796875
2.5257568359375
3.0317138671875
3.0333251953125
3.0317138671875
3.0333251953125
3.027685546875
3.0333251953125
2.230078125
1.4622802734375
0.9394042968749999
0.5631591796875
0.217529296875
0.1039306640625
0.037060546874999996
0.033837890625
0.030615234374999998
0.107958984375
0.2022216796875
0.3230712890625
0.2618408203125
0.35690917968749997
0.0281982421875
0.0314208984375
0.033837890625
0.0281982421875
0.0346435546875
0.0298095703125
0.0322265625
1.0046630859374999
1.7652099609374998
2.3130615234375
2.6047119140625
2.6200195312499996
2.650634765625
2.6965576171874996
2.5732910156249997
2.602294921875
2.6296874999999997
2.582958984375
2.479833984375
2.454052734375
2.321923828125
2.22041015625
3.0333251953125
3.0333251953125
3.027685546875
3.0325195312499997
3.0349365234374996
3.0333251953125
2.5579833984375
1.7934082031249998
1.0167480468749999
0.5808837890624999
0.22478027343749998
0.033837890625
0.0346435546875
0.02578125
0.0684814453125
0.0314208984375
0.111181640625
0.25458984375
0.38671875
0.491455078125
0.5502685546875
0.0298095703125
0.033837890625
0.0322265625
0.030615234374999998
0.033837890625
0.033837890625
0.9305419921875
1.7176757812499999
2.270361328125
2.4443847656249997
2.6627197265625
2.80048828125
3.0172119140625
3.003515625
2.876220703125
2.7489257812499996
2.6031005859375
2.41376953125
2.4129638671875
2.25263671875
2.0262451171875
3.0325195312499997
3.0357421875
3.0325195312499997
3.0284912109374997
3.0333251953125
3.0333251953125
2.6514404296875
1.893310546875
1.1279296875
0.72509765625
0.32145996093749996
0.03544921875
0.030615234374999998
0.0298095703125
0.0281982421875
0.0298095703125
0.175634765625
0.4632568359375
0.476953125
0.501123046875
0.575244140625
0.0298095703125
0.02578125
0.0298095703125
0.0298095703125
0.0249755859375
0.030615234374999998
1.2568359375
3.0325195312499997
3.0325195312499997
3.0268798828124996
3.0309082031249996
3.0325195312499997
3.034130859375
3.0317138671875
3.027685546875
3.034130859375
3.029296875
3.0349365234374996
3.0365478515624997
3.0309082031249996
3.0317138671875
3.0309082031249996
3.0333251953125
3.0301025390625
3.0317138671875
3.0268798828124996
3.0309082031249996
3.0333251953125
3.0317138671875
3.0325195312499997
3.0349365234374996
3.0325195312499997
3.0301025390625
3.027685546875
3.0317138671875
3.0301025390625
3.0317138671875
3.0381591796875
2.963232421875
2.70703125
2.2727783203125
2.064111328125
1.46953125
1.0610595703124999
1.1666015625
1.2254150390625
1.2705322265624999
1.3100097656249998
1.2777832031249998
1.6749755859375
1.35673828125
1.148876953125
1.0248046874999999
1.0127197265624999
1.0030517578125
1.0030517578125
0.9434326171874999
0.926513671875
0.9144287109375
0.8854248046875
0.903955078125
0.945849609375
0.990966796875
1.0965087890625
1.3905761718749998
1.0739501953125
0.992578125
0.9990234375
0.8918701171875
0.8765624999999999
0.765380859375
0.797607421875
0.8757568359375
0.8983154296875
0.9474609374999999
1.0143310546875
1.045751953125
1.0642822265625
1.077978515625
1.1206787109375
1.1641845703125
1.14404296875
1.174658203125
1.203662109375
1.0239990234375
0.8338623046875
1.1255126953124999
1.2052734375
1.248779296875
1.3019531249999998
1.393798828125
1.7184814453125
1.4920898437499999
1.3527099609375
1.348681640625
1.335791015625
1.3672119140624999
1.3446533203125
1.3430419921874999
1.3720458984375
1.3559326171875
1.3664062499999998
1.3382080078124998
1.3656005859375
1.340625
1.397021484375
1.767626953125
1.5323730468749999
1.4316650390624999
1.4276367187499999
1.3881591796875
1.3510986328124999
1.2439453125
1.2689208984375
1.2906738281249999
1.329345703125
1.3817138671875
1.3704345703124998
1.409912109375
1.4445556640625
1.45341796875
1.4381103515625
1.4477783203124999
1.4542236328125
1.4719482421874999
1.4469726562499998
1.4638916015624999
1.1819091796874999
1.4268310546874998
1.445361328125
1.46953125
1.5122314453124999
1.5517089843749998
1.714453125
1.6443603515624998
1.5758789062499998
1.5517089843749998
1.5404296874999999
1.5106201171875
1.4872558593749998
1.496923828125
1.4759765624999999
1.5202880859374999
1.5073974609374998
1.4961181640624999
1.496923828125
1.477587890625
1.5106201171875
1.77568359375
1.6169677734374999
1.5315673828124998
1.5436523437499998
1.5170654296875
1.4461669921875
1.3833251953124999
1.384130859375
1.36962890625
1.4501953125
1.4550292968749998
1.4751708984374998
1.4574462890625
1.4719482421874999
1.4945068359375
1.509814453125
1.5283447265624999
1.5299560546875
1.55009765625
1.5484863281249999
1.542041015625
1.2342773437499999
1.4469726562499998
1.4767822265625
1.4638916015624999
1.5122314453124999
1.561376953125
1.7007568359374998
1.72734375
1.6129394531249999
1.593603515625
1.5557373046874998
1.5428466796875
1.5235107421874998
1.5460693359375
1.5686279296874999
1.5315673828124998
1.51787109375
1.5073974609374998
1.53076171875
1.5355957031249998
1.5122314453124999
1.75634765625
1.641943359375
1.554931640625
1.5678222656249998
1.546875
1.5251220703125
1.4236083984374999
1.3913818359374999
1.3986328124999998
1.426025390625
1.4655029296875
1.5025634765625
1.5017578125
1.506591796875
1.5082031249999999
1.5267333984375
1.5315673828124998
1.5202880859374999
1.52109375
1.5315673828124998
1.545263671875
1.300341796875
1.426025390625
1.5154541015624998
1.5355957031249998
1.5194824218749998
1.5686279296874999
1.7410400390624998
1.7329833984374998
1.6089111328124999
1.5621826171875
1.5525146484374999
1.5404296874999999
1.5597656249999998
1.5525146484374999
1.5541259765625
1.5533203125
1.5275390624999998
1.5114257812499998
1.53720703125
1.5251220703125
1.5396240234374998
1.635498046875
1.7531249999999998
1.55009765625
1.5347900390625
1.5364013671874999
1.4864501953125
1.43408203125
1.4091064453125
1.405078125
1.4598632812499999
1.4864501953125
1.4840332031249999
1.4848388671875
1.5041748046874999
1.5315673828124998
1.5267333984375
1.5412353515625
1.53720703125
1.538818359375
1.558154296875
1.5251220703125
1.36962890625
1.3962158203125
1.5154541015624998
1.490478515625
1.546875
1.5654052734375
1.59521484375
1.7313720703125
1.638720703125
1.5879638671874998
1.5645996093749999
1.5541259765625
1.55009765625
1.554931640625
1.558154296875
1.5509033203125
1.522705078125
1.5162597656249999
1.5170654296875
1.5323730468749999
1.5396240234374998
1.593603515625
1.7442626953125
1.5662109375
1.5541259765625
1.5404296874999999
1.50498046875
1.4332763671875
1.4236083984374999
1.432470703125
1.458251953125
1.482421875
1.482421875
1.5041748046874999
1.4953124999999998
1.522705078125
1.5315673828124998
1.53076171875
1.5355957031249998
1.5347900390625
1.522705078125
1.5589599609375
1.41796875
1.3212890625
1.5138427734375
1.4912841796874998
1.53076171875
1.5726562499999999
1.641943359375
1.754736328125
1.62744140625
1.5887695312499999
1.5726562499999999
1.5654052734375
1.5323730468749999
1.5533203125
1.5436523437499998
1.5444580078124999
1.5267333984375
1.51787109375
1.52109375
1.5170654296875
1.5170654296875
1.5186767578125
1.7249267578124998
1.5758789062499998
1.55009765625
1.5492919921875
1.522705078125
1.4896728515625
1.4477783203124999
1.4228027343749998
1.4123291015625
1.4759765624999999
1.49853515625
1.509814453125
1.4928955078125
1.5476806640624998
1.5323730468749999
1.5001464843749999
1.5476806640624998
1.558154296875
1.5509033203125
1.546875
1.432470703125
1.3285400390625
1.4920898437499999
1.5033691406249998
1.52109375
1.546875
1.619384765625
1.7635986328125
1.6508056640625
1.593603515625
1.5517089843749998
1.561376953125
1.53076171875
1.5589599609375
1.5718505859374998
1.5718505859374998
1.5275390624999998
1.53076171875
1.5331787109375
1.529150390625
1.5331787109375
1.5218994140625
1.764404296875
1.5879638671874998
1.5444580078124999
1.5525146484374999
1.5073974609374998
1.49853515625
1.4316650390624999
1.4066894531249998
1.4493896484375
1.4574462890625
1.4759765624999999
1.5041748046874999
1.496923828125
1.52109375
1.5218994140625
1.5090087890625
1.5355957031249998
1.5476806640624998
1.533984375
1.5605712890624999
1.5484863281249999
1.3229003906249999
1.480810546875
1.5154541015624998
1.5315673828124998
1.5396240234374998
1.5766845703124999
1.6894775390624999
1.6717529296875
1.6024658203125
1.5662109375
1.561376953125
1.5460693359375
1.56298828125
1.5428466796875
1.5299560546875
1.5404296874999999
1.5267333984375
1.529150390625
1.53076171875
1.5315673828124998
1.5404296874999999
1.7362060546875
1.5968261718749999
1.5492919921875
1.5662109375
1.5396240234374998
1.48564453125
1.4574462890625
1.4284423828125
1.4381103515625
1.4638916015624999
1.4920898437499999
1.4920898437499999
1.5138427734375
1.5323730468749999
1.5267333984375
1.522705078125
1.52109375
1.5283447265624999
1.545263671875
1.5299560546875
1.53720703125
1.3059814453124998
1.4961181640624999
1.5025634765625
1.5146484375
1.5565429687499999
1.5815185546875
1.7023681640625
1.6806152343749998
1.6040771484374998
1.58232421875
1.5799072265624998
1.5509033203125
1.5283447265624999
1.5484863281249999
1.5557373046874998
1.538818359375
1.522705078125
1.545263671875
1.5299560546875
1.529150390625
1.5355957031249998
1.7152587890625
1.6524169921874998
1.5557373046874998
1.545263671875
1.5315673828124998
1.4872558593749998
1.448583984375
1.4276367187499999
1.4034667968749999
1.4526123046875
1.5041748046874999
1.5122314453124999
1.496923828125
1.5218994140625
1.52109375
1.5243164062499999
1.52109375
1.5347900390625
1.5355957031249998
1.5331787109375
1.5267333984375
1.3180664062499998
1.4445556640625
1.5090087890625
1.5194824218749998
1.53076171875
1.574267578125
1.6951171875
1.6846435546874998
1.6177734375
1.5839355468749998
1.5573486328125
1.554931640625
1.5364013671874999
1.554931640625
1.546875
1.5565429687499999
1.5009521484375
1.5218994140625
1.53720703125
1.538818359375
1.5073974609374998
1.6121337890624998
1.7345947265625
1.5879638671874998
1.5637939453124998
1.5404296874999999
1.4872558593749998
1.4195800781249999
1.4550292968749998
1.4308593749999998
1.445361328125
1.4864501953125
1.5057861328125
1.4896728515625
1.4928955078125
1.5323730468749999
1.51787109375
1.509814453125
1.5347900390625
1.5218994140625
1.5541259765625
1.5218994140625
1.4123291015625
1.45341796875
1.5106201171875
1.509814453125
1.53076171875
1.5605712890624999
1.5927978515624999
1.69833984375
1.6322753906249998
1.5887695312499999
1.5533203125
1.5396240234374998
1.5758789062499998
1.5670166015625
1.5428466796875
1.5331787109375
1.5299560546875
1.5484863281249999
1.533984375
1.5243164062499999
1.5331787109375
1.5968261718749999
1.7015624999999999
1.5750732421875
1.5436523437499998
1.554931640625
1.5194824218749998
1.44052734375
1.461474609375
1.4284423828125
1.4445556640625
1.4767822265625
1.4920898437499999
1.4912841796874998
1.5194824218749998
1.5283447265624999
1.5154541015624998
1.52109375
1.525927734375
1.545263671875
1.5355957031249998
1.5484863281249999
1.4550292968749998
1.3623779296874998
1.5057861328125
1.5017578125
1.5323730468749999
1.577490234375
1.6346923828125
1.722509765625
1.60166015625
1.5815185546875
1.5404296874999999
1.5654052734375
1.545263671875
1.5509033203125
1.5436523437499998
1.5645996093749999
1.5380126953125
1.542041015625
1.6000488281249998
1.533984375
1.5396240234374998
1.546875
1.7200927734375
1.5637939453124998
1.5509033203125
1.5476806640624998
1.506591796875
1.4783935546875
1.377685546875
1.4252197265625
1.4542236328125
1.48564453125
1.4711425781249998
1.5194824218749998
1.5170654296875
1.5162597656249999
1.5114257812499998
1.51787109375
1.5380126953125
1.538818359375
1.5517089843749998
1.5186767578125
1.4598632812499999
1.3510986328124999
1.4791992187499998
1.4961181640624999
1.5283447265624999
1.5412353515625
1.6024658203125
1.7410400390624998
1.6371093749999999
1.5863525390625
1.5686279296874999
1.5645996093749999
1.5605712890624999
1.5637939453124998
1.5476806640624998
1.542041015625
1.5517089843749998
1.53076171875
1.5235107421874998
1.538818359375
1.5412353515625
1.52109375
1.7168701171874998
1.5839355468749998
1.545263671875
1.53720703125
1.6056884765625
1.4832275390624998
1.4413330078125
1.4389160156249998
1.4574462890625
1.4880615234374999
1.4928955078125
1.4928955078125
1.4993408203124998
1.51787109375
1.525927734375
1.5251220703125
1.5138427734375
1.5347900390625
1.5533203125
1.5243164062499999
1.52109375
1.3446533203125
1.482421875
1.5033691406249998
1.5122314453124999
1.5637939453124998
1.5879638671874998
1.6894775390624999
1.6669189453125
1.59521484375
1.5678222656249998
1.58232421875
1.5605712890624999
1.5533203125
1.5235107421874998
1.5396240234374998
1.5525146484374999
1.5170654296875
1.5170654296875
1.5460693359375
1.5154541015624998
1.5404296874999999
1.7128417968749998
1.6250244140624999
1.5525146484374999
1.5517089843749998
1.554931640625
1.4953124999999998
1.445361328125
1.4276367187499999
1.4356933593749999
1.477587890625
1.4920898437499999
1.48564453125
1.506591796875
1.529150390625
1.5243164062499999
1.5194824218749998
1.5517089843749998
1.5541259765625
1.5194824218749998
1.5364013671874999
1.529150390625
1.3333740234375
1.4034667968749999
1.5251220703125
1.49853515625
1.529150390625
1.5839355468749998
1.699951171875
1.6806152343749998
1.6137451171875
1.56298828125
1.5428466796875
1.5283447265624999
1.5637939453124998
1.5404296874999999
1.5460693359375
1.538818359375
1.5460693359375
1.5323730468749999
1.53076171875
1.55009765625
1.5460693359375
1.7007568359374998
1.6427490234375
1.5533203125
1.55009765625
1.529150390625
1.4945068359375
1.4518066406249999
1.4308593749999998
1.456640625
1.474365234375
1.4872558593749998
1.5025634765625
1.49853515625
1.496923828125
1.5057861328125
1.5194824218749998
1.538818359375
1.5154541015624998
1.53076171875
1.5525146484374999
1.53720703125
1.340625
1.4308593749999998
1.5218994140625
1.5033691406249998
1.5202880859374999
1.56943359375
1.6717529296875
1.6854492187499999
1.6072998046875
1.5879638671874998
1.5533203125
1.571044921875
1.546875
1.5662109375
1.5347900390625
1.529150390625
1.525927734375
1.5355957031249998
1.5267333984375
1.5492919921875
1.51787109375
1.619384765625
1.6798095703125
1.5565429687499999
1.5734619140625
1.5412353515625
1.4864501953125
1.4413330078125
1.4598632812499999
1.44052734375
1.458251953125
1.4791992187499998
1.4880615234374999
1.5025634765625
1.53720703125
1.538818359375
1.5009521484375
1.5355957031249998
1.5476806640624998
1.5267333984375
1.52109375
1.522705078125
1.4300537109375
1.4155517578124999
1.5235107421874998
1.5017578125
1.542041015625
1.5686279296874999
1.585546875
1.72734375
1.6129394531249999
1.5927978515624999
1.5734619140625
1.5589599609375
1.554931640625
1.546875
1.53076171875
1.5573486328125
1.5347900390625
1.45341796875
1.533984375
1.5202880859374999
1.5315673828124998
1.6266357421875
1.6967285156249998
1.5815185546875
1.5404296874999999
1.554931640625
1.5057861328125
1.48564453125
1.4397216796874999
1.4236083984374999
1.4767822265625
1.490478515625
1.477587890625
1.4872558593749998
1.5082031249999999
1.5251220703125
1.5299560546875
1.456640625
1.5428466796875
1.5315673828124998
1.533984375
1.5154541015624998
1.4477783203124999
1.340625
1.5033691406249998
1.5251220703125
1.5243164062499999
1.5476806640624998
1.6129394531249999
1.735400390625
1.622607421875
1.5702392578125
1.5565429687499999
1.542041015625
1.5436523437499998
1.5492919921875
1.5364013671874999
1.55009765625
1.5565429687499999
1.5186767578125
1.538818359375
1.529150390625
1.5355957031249998
1.5283447265624999
1.7128417968749998
1.5782958984375
1.5597656249999998
1.546875
1.538818359375
1.493701171875
1.43408203125
1.4461669921875
1.4558349609374999
1.48564453125
1.5017578125
1.5041748046874999
1.5082031249999999
1.513037109375
1.5396240234374998
1.5243164062499999
1.5186767578125
1.554931640625
1.5235107421874998
1.5315673828124998
1.4800048828124999
1.3510986328124999
1.5017578125
1.5194824218749998
1.5082031249999999
1.554931640625
1.5911865234375
1.722509765625
1.65966796875
1.606494140625
1.571044921875
1.558154296875
1.529150390625
1.5605712890624999
1.53720703125
1.5525146484374999
1.5476806640624998
1.5235107421874998
1.5323730468749999
1.522705078125
1.509814453125
1.53076171875
1.73056640625
1.62744140625
1.5436523437499998
1.5484863281249999
1.5428466796875
1.49853515625
1.4550292968749998
1.4219970703125
1.4759765624999999
1.4896728515625
1.4993408203124998
1.5154541015624998
1.490478515625
1.52109375
1.49853515625
1.5275390624999998
1.533984375
1.53720703125
1.5267333984375
1.5533203125
1.5275390624999998
1.3551269531249999
1.5025634765625
1.5267333984375
1.5009521484375
1.5509033203125
1.590380859375
1.6693359374999999
1.662890625
1.6000488281249998
1.5782958984375
1.5565429687499999
1.545263671875
1.5517089843749998
1.5428466796875
1.5412353515625
1.5492919921875
1.5517089843749998
1.5364013671874999
1.5114257812499998
1.533984375
1.5138427734375
1.73056640625
1.619384765625
1.5509033203125
1.533984375
1.509814453125
1.47275390625
1.448583984375
1.4381103515625
1.4381103515625
1.4655029296875
1.5082031249999999
1.513037109375
1.50498046875
1.5275390624999998
1.5106201171875
1.5090087890625
1.5347900390625
1.5380126953125
1.55009765625
1.533984375
1.5218994140625
1.3172607421875
1.4550292968749998
1.52109375
1.4977294921875
1.53720703125
1.5791015625
1.683837890625
1.6765869140624998
1.6209960937499999
1.5597656249999998
1.5654052734375
1.5758789062499998
1.5678222656249998
1.53076171875
1.5251220703125
1.5509033203125
1.5194824218749998
1.5380126953125
1.5492919921875
1.5315673828124998
1.5275390624999998
1.6177734375
1.6282470703124998
1.5460693359375
1.5654052734375
1.529150390625
1.4977294921875
1.4518066406249999
1.4622802734375
1.458251953125
1.4364990234375
1.477587890625
1.5009521484375
1.4928955078125
1.529150390625
1.529150390625
1.5275390624999998
1.533984375
1.53076171875
1.5355957031249998
1.5251220703125
1.538818359375
1.340625
1.4268310546874998
1.5138427734375
1.5106201171875
1.5364013671874999
1.587158203125
1.6048828124999999
1.7015624999999999
1.60166015625
1.5766845703124999
1.5565429687499999
1.5364013671874999
1.5428466796875
1.5412353515625
1.5605712890624999
1.5364013671874999
1.5283447265624999
1.5218994140625
1.5404296874999999
1.5380126953125
1.545263671875
1.6048828124999999
1.6854492187499999
1.5484863281249999
1.5541259765625
1.53720703125
1.496923828125
1.4606689453125
1.448583984375
1.4437499999999999
1.47275390625
1.4864501953125
1.4888671875
1.496923828125
1.5267333984375
1.5364013671874999
1.5283447265624999
1.522705078125
1.5412353515625
1.5460693359375
1.5565429687499999
1.5509033203125
1.4332763671875
1.41796875
1.4993408203124998
1.5090087890625
1.5194824218749998
1.5686279296874999
1.603271484375
1.7329833984374998
1.61455078125
1.5734619140625
1.5702392578125
1.5565429687499999
1.546875
1.5355957031249998
1.5380126953125
1.538818359375
1.5380126953125
1.5412353515625
1.5243164062499999
1.5436523437499998
1.533984375
1.5839355468749998
1.6894775390624999
1.5782958984375
1.571044921875
1.542041015625
1.5162597656249999
1.4912841796874998
1.4469726562499998
1.4228027343749998
1.4590576171874998
1.490478515625
1.4864501953125
1.5025634765625
1.509814453125
1.5170654296875
1.5122314453124999
1.525927734375
1.53720703125
1.5412353515625
1.5194824218749998
1.5380126953125
1.4413330078125
1.361572265625
1.5122314453124999
1.513037109375
1.506591796875
1.525927734375
1.5791015625
1.7184814453125
1.651611328125
1.5944091796875
1.56298828125
1.5734619140625
1.5565429687499999
1.5589599609375
1.5323730468749999
1.5533203125
1.5364013671874999
1.5444580078124999
1.5315673828124998
1.52109375
1.5194824218749998
1.5380126953125
1.7297607421874999
1.5718505859374998
1.5170654296875
1.546875
1.5243164062499999
1.496923828125
1.4630859374999998
1.4195800781249999
1.4526123046875
1.4840332031249999
1.4848388671875
1.4993408203124998
1.506591796875
1.5283447265624999
1.5275390624999998
1.529150390625
1.5186767578125
1.5492919921875
1.5484863281249999
1.542041015625
1.5299560546875
1.3462646484374998
1.5009521484375
1.490478515625
1.509814453125
1.5654052734375
1.587158203125
1.6951171875
1.6669189453125
1.5927978515624999
1.5992431640625
1.56298828125
1.5589599609375
1.554931640625
1.525927734375
1.5283447265624999
1.5396240234374998
1.5299560546875
1.5428466796875
1.545263671875
1.5355957031249998
1.513037109375
1.7378173828124999
1.6089111328124999
1.542041015625
1.554931640625
1.542041015625
1.490478515625
1.4381103515625
1.4550292968749998
1.4469726562499998
1.464697265625
1.4655029296875
1.4888671875
1.5073974609374998
1.5380126953125
1.5218994140625
1.5082031249999999
1.5573486328125
1.5412353515625
1.52109375
1.5267333984375
1.5243164062499999
1.3309570312499999
1.5001464843749999
1.5186767578125
1.5436523437499998
1.5218994140625
1.561376953125
1.6975341796874999
1.6862548828125
1.5911865234375
1.5702392578125
1.554931640625
1.5557373046874998
1.55009765625
1.542041015625
1.5484863281249999
1.5380126953125
1.533984375
1.5251220703125
1.546875
1.5404296874999999
1.5412353515625
1.7128417968749998
1.6282470703124998
1.554931640625
1.5557373046874998
1.52109375
1.4961181640624999
1.4381103515625
1.4445556640625
1.4348876953124998
1.4606689453125
1.493701171875
1.5194824218749998
1.5090087890625
1.5033691406249998
1.5202880859374999
1.5484863281249999
1.529150390625
1.5444580078124999
1.5364013671874999
1.513037109375
1.5412353515625
1.327734375
1.458251953125
1.5114257812499998
1.513037109375
1.546875
1.5557373046874998
1.66611328125
1.7039794921875
1.5984375
1.554931640625
1.5750732421875
1.5460693359375
1.5621826171875
1.5436523437499998
1.558154296875
1.5484863281249999
1.5114257812499998
1.53076171875
1.5299560546875
1.5444580078124999
1.5186767578125
1.6121337890624998
1.6234130859375
1.5557373046874998
1.5654052734375
1.5396240234374998
1.509814453125
1.448583984375
1.4590576171874998
1.4622802734375
1.4638916015624999
1.4751708984374998
1.509814453125
1.49853515625
1.522705078125
1.5251220703125
1.5146484375
1.522705078125
1.5218994140625
1.5428466796875
1.5315673828124998
1.5396240234374998
1.3365966796875
1.4332763671875
1.509814453125
1.5090087890625
1.5299560546875
1.571044921875
1.6298583984375
1.6886718749999998
1.6105224609375
1.5815185546875
1.5492919921875
1.5565429687499999
1.554931640625
1.538818359375
1.554931640625
1.545263671875
1.545263671875
1.538818359375
1.5243164062499999
1.5235107421874998
1.5275390624999998
1.6129394531249999
1.6765869140624998
1.5621826171875
1.558154296875
1.55009765625
1.5009521484375
1.442138671875
1.448583984375
1.4389160156249998
1.4630859374999998
1.4961181640624999
1.5057861328125
1.50498046875
1.509814453125
1.5283447265624999
1.53076171875
1.5275390624999998
1.529150390625
1.5428466796875
1.5315673828124998
1.5243164062499999
1.432470703125
1.3744628906249998
1.542041015625
1.5082031249999999
1.5154541015624998
1.5662109375
1.6089111328124999
1.7257324218749999
1.6185791015625
1.5678222656249998
1.5573486328125
1.545263671875
1.5541259765625
1.5533203125
1.56298828125
1.55009765625
1.542041015625
1.5347900390625
1.52109375
1.5122314453124999
1.5122314453124999
1.5106201171875
1.6975341796874999
1.590380859375
1.554931640625
1.5597656249999998
1.496923828125
1.496923828125
1.461474609375
1.4228027343749998
1.448583984375
1.4638916015624999
1.506591796875
1.496923828125
1.5001464843749999
1.5331787109375
1.5331787109375
1.5114257812499998
1.5275390624999998
1.5355957031249998
1.542041015625
1.5484863281249999
1.4598632812499999
1.3688232421875
1.5025634765625
1.4945068359375
1.5114257812499998
1.55009765625
1.6000488281249998
1.716064453125
1.6403320312499998
1.593603515625
1.5565429687499999
1.5621826171875
1.5565429687499999
1.5637939453124998
1.5766845703124999
1.5299560546875
1.53076171875
1.5436523437499998
1.542041015625
1.533984375
1.5170654296875
1.5283447265624999
1.72412109375
1.5686279296874999
1.5517089843749998
1.5589599609375
1.506591796875
1.474365234375
1.458251953125
1.4461669921875
1.4477783203124999
1.4510009765624998
1.4832275390624998
1.5041748046874999
1.496923828125
1.5364013671874999
1.529150390625
1.5235107421874998
1.5428466796875
1.5436523437499998
1.5484863281249999
1.5235107421874998
1.5315673828124998
1.3559326171875
1.496923828125
1.5106201171875
1.5218994140625
1.5662109375
1.5662109375
1.670947265625
1.6475830078125
1.5911865234375
1.5645996093749999
1.5605712890624999
1.546875
1.561376953125
1.5621826171875
1.5428466796875
1.538818359375
1.5355957031249998
1.5275390624999998
1.5186767578125
1.5299560546875
1.5267333984375
1.7208984374999998
1.6266357421875
1.55009765625
1.5533203125
1.538818359375
1.4872558593749998
1.4389160156249998
1.4469726562499998
1.4381103515625
1.4510009765624998
1.4977294921875
1.5162597656249999
1.5082031249999999
1.5355957031249998
1.5114257812499998
1.5154541015624998
1.5355957031249998
1.5364013671874999
1.5299560546875
1.5436523437499998
1.53720703125
1.3269287109374999
1.5114257812499998
1.5194824218749998
1.5041748046874999
1.5218994140625
1.5911865234375
1.7120361328125
1.65966796875
1.5984375
1.5807128906249999
1.5541259765625
1.5621826171875
1.5444580078124999
1.538818359375
1.546875
1.5645996093749999
1.5202880859374999
1.5235107421874998
1.5315673828124998
1.5355957031249998
1.5412353515625
1.7015624999999999
1.6089111328124999
1.5670166015625
1.5476806640624998
1.5323730468749999
1.493701171875
1.4445556640625
1.4356933593749999
1.4501953125
1.47275390625
1.4896728515625
1.5041748046874999
1.5041748046874999
1.5202880859374999
1.53720703125
1.5106201171875
1.5299560546875
1.5138427734375
1.5243164062499999
1.5315673828124998
1.554931640625
1.335791015625
1.4413330078125
1.5001464843749999
1.5090087890625
1.5194824218749998
1.5670166015625
1.6693359374999999
1.6967285156249998
1.6072998046875
1.5887695312499999
1.561376953125
1.561376953125
1.5533203125
1.5517089843749998
1.5355957031249998
1.5347900390625
1.5170654296875
1.5162597656249999
1.529150390625
1.5460693359375
1.5243164062499999
1.6371093749999999
1.6725585937499998
1.538818359375
1.5597656249999998
1.533984375
1.50498046875
1.4316650390624999
1.4469726562499998
1.442138671875
1.4872558593749998
1.5009521484375
1.4888671875
1.5106201171875
1.5162597656249999
1.5154541015624998
1.53076171875
1.5347900390625
1.5509033203125
1.533984375
1.5299560546875
1.5275390624999998
1.4091064453125
1.445361328125
1.5017578125
1.4920898437499999
1.5243164062499999
1.55009765625
1.60166015625
1.6894775390624999
1.6161621093749998
1.5887695312499999
1.5525146484374999
1.5565429687499999
1.5573486328125
1.5380126953125
1.5517089843749998
1.5436523437499998
1.538818359375
1.53076171875
1.5396240234374998
1.5492919921875
1.5218994140625
1.5919921874999998
1.6798095703125
1.577490234375
1.5670166015625
1.56298828125
1.513037109375
1.46953125
1.4364990234375
1.4510009765624998
1.4630859374999998
1.4945068359375
1.4953124999999998
1.4920898437499999
1.5082031249999999
1.5364013671874999
1.538818359375
1.5380126953125
1.5251220703125
1.5412353515625
1.5186767578125
1.542041015625
1.4187744140624998
1.3825195312499998
1.50498046875
1.525927734375
1.5299560546875
1.5662109375
1.6105224609375
1.716064453125
1.6201904296874998
1.585546875
1.558154296875
1.5444580078124999
1.5557373046874998
1.5476806640624998
1.5517089843749998
1.5476806640624998
1.554931640625
1.5404296874999999
1.5275390624999998
1.5315673828124998
1.5251220703125
1.5380126953125
1.670947265625
1.5589599609375
1.5444580078124999
1.5476806640624998
1.5251220703125
1.4880615234374999
1.445361328125
1.4477783203124999
1.4550292968749998
1.4679199218749999
1.490478515625
1.4928955078125
1.5194824218749998
1.5235107421874998
1.538818359375
1.538818359375
1.5396240234374998
1.5404296874999999
1.542041015625
1.529150390625
1.4510009765624998
1.3712402343749999
1.5073974609374998
1.5122314453124999
1.5235107421874998
1.53720703125
1.5791015625
1.7233154296875
1.6314697265625
1.5766845703124999
1.56298828125
1.5533203125
1.5678222656249998
1.533984375
1.5315673828124998
1.5509033203125
1.5436523437499998
1.5364013671874999
1.5364013671874999
1.53720703125
1.5299560546875
1.53076171875
1.7096191406249999
1.5839355468749998
1.5573486328125
1.5460693359375
1.53720703125
1.4832275390624998
1.44052734375
1.4268310546874998
1.4767822265625
1.4671142578124998
1.4840332031249999
1.4928955078125
1.49853515625
1.53720703125
1.5315673828124998
1.5186767578125
1.5436523437499998
1.538818359375
1.5275390624999998
1.5275390624999998
1.5404296874999999
1.3543212890624998
1.4767822265625
1.5041748046874999
1.52109375
1.561376953125
1.577490234375
1.7080078125
1.6266357421875
1.5799072265624998
1.5726562499999999
1.5662109375
1.554931640625
1.5533203125
1.545263671875
1.5476806640624998
1.5436523437499998
1.5243164062499999
1.5235107421874998
1.52109375
1.545263671875
1.5331787109375
1.7345947265625
1.6161621093749998
1.5541259765625
1.5444580078124999
1.5218994140625
1.5041748046874999
1.448583984375
1.4300537109375
1.45341796875
1.477587890625
1.5001464843749999
1.506591796875
1.5001464843749999
1.5235107421874998
1.5251220703125
1.5114257812499998
1.5476806640624998
1.5557373046874998
1.5565429687499999
1.5283447265624999
1.5162597656249999
1.3204833984375
1.4912841796874998
1.5090087890625
1.52109375
1.5484863281249999
1.561376953125
1.7088134765624998
1.6636962890625
1.5879638671874998
1.5605712890624999
1.5589599609375
1.5637939453124998
1.5404296874999999
1.546875
1.5670166015625
1.5436523437499998
1.5283447265624999
1.5283447265624999
1.5404296874999999
1.53720703125
1.509814453125
1.65
1.6072998046875
1.55009765625
1.538818359375
1.5355957031249998
1.5001464843749999
1.456640625
1.4364990234375
1.4356933593749999
1.4719482421874999
1.4912841796874998
1.4783935546875
1.5041748046874999
1.5243164062499999
1.5194824218749998
1.5323730468749999
1.5364013671874999
1.542041015625
1.542041015625
1.5436523437499998
1.5218994140625
1.345458984375
1.456640625
1.522705078125
1.5243164062499999
1.5364013671874999
1.577490234375
1.6725585937499998
1.6894775390624999
1.5839355468749998
1.571044921875
1.5678222656249998
1.5654052734375
1.5484863281249999
1.529150390625
1.5509033203125
1.5396240234374998
1.5331787109375
1.5347900390625
1.5299560546875
1.5331787109375
1.525927734375
1.625830078125
1.6604736328124998
1.5621826171875
1.5678222656249998
1.5364013671874999
1.513037109375
1.4558349609374999
1.4598632812499999
1.445361328125
1.4622802734375
1.4880615234374999
1.4920898437499999
1.4864501953125
1.50498046875
1.5380126953125
1.5243164062499999
1.51787109375
1.5299560546875
1.5476806640624998
1.5251220703125
1.5355957031249998
1.4147460937499998
1.44052734375
1.5106201171875
1.493701171875
1.5323730468749999
1.571044921875
1.6089111328124999
1.7716552734375
1.6072998046875
1.5654052734375
1.5597656249999998
1.5662109375
1.545263671875
1.5355957031249998
1.522705078125
1.5484863281249999
1.5315673828124998
1.5315673828124998
1.538818359375
1.5323730468749999
1.53076171875
1.61455078125
1.687060546875
1.5678222656249998
1.538818359375
1.554931640625
1.5114257812499998
1.4953124999999998
1.4437499999999999
1.4542236328125
1.461474609375
1.4912841796874998
1.493701171875
1.5114257812499998
1.5243164062499999
1.49853515625
1.5331787109375
1.5275390624999998
1.542041015625
1.545263671875
1.5428466796875
1.5404296874999999
1.4203857421875
1.3664062499999998
1.4961181640624999
1.5082031249999999
1.533984375
1.5645996093749999
1.6169677734374999
1.7023681640625
1.6403320312499998
1.5944091796875
1.5476806640624998
1.5525146484374999
1.5428466796875
1.5678222656249998
1.5492919921875
1.5412353515625
1.5396240234374998
1.5364013671874999
1.5355957031249998
1.513037109375
1.53076171875
1.5364013671874999
1.6701416015625
1.55009765625
1.5412353515625
1.571044921875
1.5114257812499998
1.482421875
1.44052734375
1.4373046875
1.47275390625
1.47275390625
1.5025634765625
1.5146484375
1.5323730468749999
1.513037109375
1.5283447265624999
1.5202880859374999
1.5355957031249998
1.5347900390625
1.53076171875
1.5235107421874998
1.4630859374999998
1.3825195312499998
1.5122314453124999
1.5122314453124999
1.5001464843749999
1.5533203125
1.5726562499999999
1.716064453125
1.6371093749999999
1.59521484375
1.571044921875
1.5637939453124998
1.545263671875
1.5517089843749998
1.542041015625
1.5541259765625
1.5275390624999998
1.533984375
1.5380126953125
1.5404296874999999
1.533984375
1.5218994140625
1.7200927734375
1.6081054687499998
1.5476806640624998
1.5509033203125
1.5404296874999999
1.4864501953125
1.4510009765624998
1.4469726562499998
1.4526123046875
1.4783935546875
1.4928955078125
1.4977294921875
1.5017578125
1.52109375
1.5396240234374998
1.525927734375
1.5323730468749999
1.5299560546875
1.5251220703125
1.5404296874999999
1.5404296874999999
1.3390136718749999
1.4977294921875
1.506591796875
1.509814453125
1.56943359375
1.58232421875
1.6991455078125
1.6209960937499999
1.5525146484374999
1.5654052734375
1.5750732421875
1.5557373046874998
1.5645996093749999
1.5637939453124998
1.53720703125
1.5243164062499999
1.5323730468749999
1.5275390624999998
1.542041015625
1.5355957031249998
1.55009765625
1.6910888671875
1.5911865234375
1.5541259765625
1.5557373046874998
1.5380126953125
1.4880615234374999
1.4195800781249999
1.4356933593749999
1.4413330078125
1.4888671875
1.5041748046874999
1.5170654296875
1.5033691406249998
1.5202880859374999
1.5347900390625
1.5146484375
1.5025634765625
1.5194824218749998
1.5460693359375
1.5299560546875
1.5476806640624998
1.35673828125
1.4679199218749999
1.5090087890625
1.5041748046874999
1.5347900390625
1.5702392578125
1.6620849609375
1.6830322265625
1.6137451171875
1.5799072265624998
1.5533203125
1.5396240234374998
1.5573486328125
1.5662109375
1.5323730468749999
1.53720703125
1.533984375
1.542041015625
1.5235107421874998
1.5331787109375
1.5243164062499999
1.6612792968749999
1.6040771484374998
1.5597656249999998
1.554931640625
1.5436523437499998
1.5041748046874999
1.4397216796874999
1.4437499999999999
1.4606689453125
1.480810546875
1.4679199218749999
1.5033691406249998
1.496923828125
1.5073974609374998
1.5218994140625
1.5251220703125
1.5396240234374998
1.546875
1.5331787109375
1.5347900390625
1.5194824218749998
1.3527099609375
1.4526123046875
1.5162597656249999
1.5186767578125
1.5484863281249999
1.5758789062499998
1.5509033203125
1.6878662109375
1.6056884765625
1.5831298828125
1.55009765625
1.571044921875
1.5444580078124999
1.5476806640624998
1.538818359375
