1.5275390624999998
1.53076171875
1.50498046875
1.4252197265625
1.5033691406249998
1.5162597656249999
1.5202880859374999
1.5654052734375
1.5573486328125
1.6693359374999999
1.603271484375
1.56943359375
1.5863525390625
1.561376953125
1.5509033203125
1.5565429687499999
1.5412353515625
1.5412353515625
1.5283447265624999
1.5355957031249998
1.5235107421874998
1.5436523437499998
1.529150390625
1.5283447265624999
1.670947265625
1.5645996093749999
1.5758789062499998
1.5573486328125
1.529150390625
1.496923828125
1.4655029296875
1.4606689453125
1.4574462890625
1.4912841796874998
1.5001464843749999
1.5146484375
1.5154541015624998
1.5146484375
1.51787109375
1.5218994140625
1.5323730468749999
1.52109375
1.5315673828124998
1.53720703125
1.52109375
1.3688232421875
1.4719482421874999
1.4993408203124998
1.5170654296875
1.5428466796875
1.5718505859374998
1.6685302734374998
1.6411376953124999
1.5847412109374999
1.5686279296874999
1.5670166015625
1.5670166015625
1.5428466796875
1.53720703125
1.5484863281249999
1.5404296874999999
1.5380126953125
1.5444580078124999
1.5565429687499999
1.5202880859374999
1.5025634765625
1.6588623046875
1.585546875
1.5621826171875
1.5662109375
1.525927734375
1.5162597656249999
1.4687255859375
1.4284423828125
1.4679199218749999
1.4872558593749998
1.513037109375
1.4977294921875
1.5138427734375
1.5275390624999998
1.5267333984375
1.5267333984375
1.5299560546875
1.533984375
1.5275390624999998
1.5323730468749999
1.529150390625
1.3720458984375
1.4880615234374999
1.5138427734375
1.5347900390625
1.5492919921875
1.558154296875
1.6532226562499999
1.6612792968749999
1.58232421875
1.5831298828125
1.5557373046874998
1.5331787109375
1.554931640625
1.5509033203125
1.5444580078124999
1.5355957031249998
1.558154296875
1.5235107421874998
1.5347900390625
1.53076171875
1.53720703125
1.64677734375
1.6282470703124998
1.5492919921875
1.554931640625
1.542041015625
1.5138427734375
1.44052734375
1.46630859375
1.45341796875
1.49853515625
1.49853515625
1.5073974609374998
1.4953124999999998
1.5154541015624998
1.5412353515625
1.51787109375
1.529150390625
1.5275390624999998
1.5517089843749998
1.5355957031249998
1.5323730468749999
1.3986328124999998
1.456640625
1.5243164062499999
1.5073974609374998
1.5218994140625
1.5565429687499999
1.590380859375
1.6798095703125
1.6024658203125
1.5766845703124999
1.5541259765625
1.55009765625
1.5589599609375
1.5573486328125
1.53720703125
1.5484863281249999
1.5404296874999999
1.53076171875
1.53720703125
1.5460693359375
1.533984375
1.6306640625
1.6089111328124999
1.5509033203125
1.5597656249999998
1.554931640625
1.5186767578125
1.4711425781249998
1.4477783203124999
1.4413330078125
1.482421875
1.4912841796874998
1.5001464843749999
1.5033691406249998
1.513037109375
1.5154541015624998
1.5315673828124998
1.5251220703125
1.5331787109375
1.5323730468749999
1.5315673828124998
1.52109375
1.393798828125
1.4171630859375
1.5275390624999998
1.53076171875
1.5194824218749998
1.5654052734375
1.5815185546875
1.67578125
1.593603515625
1.5670166015625
1.571044921875
1.561376953125
1.5404296874999999
1.558154296875
1.5476806640624998
1.5654052734375
1.5380126953125
1.5315673828124998
1.5170654296875
1.522705078125
1.5267333984375
1.5654052734375
1.6314697265625
1.5621826171875
1.5734619140625
1.5428466796875
1.4872558593749998
1.5017578125
1.464697265625
1.4606689453125
1.46630859375
1.4945068359375
1.4961181640624999
1.5025634765625
1.5162597656249999
1.5186767578125
1.5202880859374999
1.5380126953125
1.53720703125
1.5355957031249998
1.5428466796875
1.533984375
1.416357421875
1.4276367187499999
1.50498046875
1.5017578125
1.522705078125
1.545263671875
1.5597656249999998
1.674169921875
1.6105224609375
1.5984375
1.5702392578125
1.5541259765625
1.55009765625
1.55009765625
1.5243164062499999
1.558154296875
1.5315673828124998
1.5251220703125
1.5364013671874999
1.5364013671874999
1.5275390624999998
1.5533203125
1.6556396484375
1.561376953125
1.56943359375
1.5476806640624998
1.5218994140625
1.4912841796874998
1.461474609375
1.4526123046875
1.4832275390624998
1.4800048828124999
1.5057861328125
1.52109375
1.506591796875
1.522705078125
1.5186767578125
1.538818359375
1.5267333984375
1.5315673828124998
1.5267333984375
1.5194824218749998
1.5154541015624998
1.41796875
1.5057861328125
1.5033691406249998
1.5146484375
1.5525146484374999
1.5662109375
1.6725585937499998
1.6209960937499999
1.5791015625
1.5734619140625
1.5541259765625
1.5686279296874999
1.5533203125
1.546875
1.538818359375
1.5492919921875
1.533984375
1.5380126953125
1.53076171875
1.525927734375
1.5218994140625
1.65966796875
1.5847412109374999
1.5637939453124998
1.5364013671874999
1.53076171875
1.5146484375
1.4671142578124998
1.448583984375
1.4598632812499999
1.5025634765625
1.4864501953125
1.506591796875
1.5106201171875
1.5186767578125
1.5355957031249998
1.5170654296875
1.4961181640624999
1.5428466796875
1.5557373046874998
1.5404296874999999
1.5267333984375
1.3873535156249999
1.480810546875
1.5138427734375
1.5283447265624999
1.5154541015624998
1.5565429687499999
1.64677734375
1.6636962890625
1.593603515625
1.5686279296874999
1.561376953125
1.5686279296874999
1.5565429687499999
1.5380126953125
1.533984375
1.5275390624999998
1.542041015625
1.5492919921875
1.538818359375
1.533984375
1.522705078125
1.6636962890625
1.585546875
1.545263671875
1.5597656249999998
1.5218994140625
1.496923828125
1.4719482421874999
1.529150390625
1.4703369140625
1.5017578125
1.49853515625
1.5057861328125
1.5122314453124999
1.5251220703125
1.5283447265624999
1.5114257812499998
1.5267333984375
1.5323730468749999
1.5235107421874998
1.53076171875
1.5460693359375
1.3801025390625
1.474365234375
1.4912841796874998
1.5154541015624998
1.5509033203125
1.5645996093749999
1.609716796875
1.6298583984375
1.60166015625
1.5509033203125
1.554931640625
1.5517089843749998
1.5492919921875
1.5484863281249999
1.5589599609375
1.546875
1.5283447265624999
1.542041015625
1.5355957031249998
1.5492919921875
1.5218994140625
1.6524169921874998
1.6298583984375
1.5460693359375
1.5597656249999998
1.5380126953125
1.5033691406249998
1.4606689453125
1.4671142578124998
1.458251953125
1.4791992187499998
1.5025634765625
1.5057861328125
1.5170654296875
1.5243164062499999
1.5218994140625
1.509814453125
1.533984375
1.558154296875
1.5355957031249998
1.522705078125
1.52109375
1.393798828125
1.4711425781249998
1.5073974609374998
1.5082031249999999
1.522705078125
1.5621826171875
1.5960205078124998
1.6854492187499999
1.5895751953125
1.5726562499999999
1.5533203125
1.5509033203125
1.5541259765625
1.545263671875
1.5412353515625
1.5476806640624998
1.5436523437499998
1.5428466796875
1.5235107421874998
1.538818359375
1.5315673828124998
1.6459716796875
1.6242187499999998
1.5686279296874999
1.5807128906249999
1.5355957031249998
1.4896728515625
1.4920898437499999
1.4767822265625
1.4679199218749999
1.4687255859375
1.4783935546875
1.4977294921875
1.513037109375
1.5138427734375
1.5186767578125
1.53720703125
1.525927734375
1.5154541015624998
1.5364013671874999
1.5331787109375
1.5404296874999999
1.40830078125
1.4389160156249998
1.51787109375
1.5202880859374999
1.529150390625
1.554931640625
1.5605712890624999
1.6685302734374998
1.6048828124999999
1.5686279296874999
1.5436523437499998
1.5670166015625
1.5621826171875
1.5565429687499999
1.542041015625
1.5533203125
1.5436523437499998
1.53076171875
1.5315673828124998
1.53076171875
1.529150390625
1.5678222656249998
1.6653076171874999
1.5517089843749998
1.5645996093749999
1.554931640625
1.51787109375
1.5017578125
1.4542236328125
1.4598632812499999
1.46630859375
1.482421875
1.506591796875
1.4993408203124998
1.5114257812499998
1.52109375
1.5315673828124998
1.513037109375
1.5355957031249998
1.522705078125
1.53076171875
1.5299560546875
1.490478515625
1.4373046875
1.5146484375
1.5122314453124999
1.53076171875
1.5315673828124998
1.5525146484374999
1.6773925781249999
1.6306640625
1.5839355468749998
1.5726562499999999
1.5525146484374999
1.5565429687499999
1.5444580078124999
1.5492919921875
1.5476806640624998
1.5444580078124999
1.545263671875
1.5662109375
1.5243164062499999
1.5243164062499999
1.5509033203125
1.654833984375
1.5976318359375
1.5541259765625
1.5436523437499998
1.5162597656249999
1.4751708984374998
1.456640625
1.4574462890625
1.48564453125
1.5025634765625
1.4840332031249999
1.509814453125
1.5057861328125
1.53720703125
1.5315673828124998
1.5315673828124998
1.5396240234374998
1.5194824218749998
1.51787109375
1.538818359375
1.4896728515625
1.3825195312499998
1.5090087890625
1.52109375
1.546875
1.5637939453124998
1.5670166015625
1.651611328125
1.625830078125
1.5597656249999998
1.5637939453124998
1.5637939453124998
1.5533203125
1.5605712890624999
1.538818359375
1.5218994140625
1.5436523437499998
1.546875
1.558154296875
1.545263671875
1.5299560546875
1.5235107421874998
1.6612792968749999
1.558154296875
1.5726562499999999
1.5517089843749998
1.5251220703125
1.506591796875
1.458251953125
1.4703369140625
1.4928955078125
1.4928955078125
1.5017578125
1.4953124999999998
1.506591796875
1.52109375
1.5412353515625
1.5428466796875
1.5243164062499999
1.52109375
1.5444580078124999
1.5331787109375
1.5001464843749999
1.3897705078125
1.4880615234374999
1.4953124999999998
1.51787109375
1.5396240234374998
1.5517089843749998
1.6411376953124999
1.654833984375
1.6024658203125
1.577490234375
1.56298828125
1.5404296874999999
1.5315673828124998
1.5299560546875
1.5460693359375
1.5509033203125
1.5396240234374998
1.5396240234374998
1.5484863281249999
1.53076171875
1.5235107421874998
1.6612792968749999
1.5927978515624999
1.545263671875
1.558154296875
1.5396240234374998
1.50498046875
1.458251953125
1.4638916015624999
1.4622802734375
1.4896728515625
1.48564453125
1.5106201171875
1.4977294921875
1.5033691406249998
1.5202880859374999
1.525927734375
1.5283447265624999
1.53076171875
1.5202880859374999
1.5355957031249998
1.53076171875
1.3849365234375
1.4767822265625
1.529150390625
1.509814453125
1.5428466796875
1.5517089843749998
1.60166015625
1.6524169921874998
1.587158203125
1.5799072265624998
1.5662109375
1.5541259765625
1.5573486328125
1.5436523437499998
1.546875
1.55009765625
1.554931640625
1.5275390624999998
1.509814453125
1.5315673828124998
1.533984375
1.6403320312499998
1.6250244140624999
1.5484863281249999
1.5597656249999998
1.538818359375
1.490478515625
1.45341796875
1.464697265625
1.4703369140625
1.4832275390624998
1.477587890625
1.509814453125
1.5162597656249999
1.5194824218749998
1.5283447265624999
1.5235107421874998
1.5283447265624999
1.525927734375
1.5355957031249998
1.525927734375
1.5404296874999999
1.4034667968749999
1.456640625
1.5106201171875
1.513037109375
1.5412353515625
1.5621826171875
1.5863525390625
1.6604736328124998
1.5927978515624999
1.5726562499999999
1.56298828125
1.542041015625
1.5589599609375
1.5509033203125
1.5347900390625
1.525927734375
1.5347900390625
1.5621826171875
1.5315673828124998
1.5404296874999999
1.5460693359375
1.574267578125
1.611328125
1.5654052734375
1.5654052734375
1.545263671875
1.5114257812499998
1.4888671875
1.458251953125
1.4510009765624998
1.4816162109375
1.5009521484375
1.5122314453124999
1.5073974609374998
1.5106201171875
1.538818359375
1.533984375
1.5347900390625
1.52109375
1.5331787109375
1.5194824218749998
1.5138427734375
1.4010498046875
1.4236083984374999
1.5154541015624998
1.5073974609374998
1.5218994140625
1.5476806640624998
1.6024658203125
1.6685302734374998
1.6250244140624999
1.6008544921874999
1.5726562499999999
1.558154296875
1.5509033203125
1.554931640625
1.5484863281249999
1.5114257812499998
1.55009765625
1.5364013671874999
1.5444580078124999
1.5251220703125
1.53720703125
1.5839355468749998
1.6403320312499998
1.5347900390625
1.5605712890624999
1.554931640625
1.5315673828124998
1.4993408203124998
1.46630859375
1.4703369140625
1.4622802734375
1.46953125
1.4791992187499998
1.493701171875
1.4961181640624999
1.5323730468749999
1.5355957031249998
1.5154541015624998
1.51787109375
1.52109375
1.5323730468749999
1.5323730468749999
1.4816162109375
1.461474609375
1.53720703125
1.53076171875
1.509814453125
1.5428466796875
1.554931640625
1.6620849609375
1.6137451171875
1.5799072265624998
1.5509033203125
1.5380126953125
1.53076171875
1.5404296874999999
1.55009765625
1.5396240234374998
1.5509033203125
1.546875
1.542041015625
1.5404296874999999
1.554931640625
1.558154296875
1.6564453124999998
1.56943359375
1.5444580078124999
1.546875
1.5194824218749998
1.4832275390624998
1.4630859374999998
1.461474609375
1.4791992187499998
1.4864501953125
1.4888671875
1.4896728515625
1.5283447265624999
1.522705078125
1.525927734375
1.55009765625
1.5299560546875
1.5323730468749999
1.513037109375
1.5122314453124999
1.4671142578124998
1.3720458984375
1.4800048828124999
1.4993408203124998
1.4920898437499999
1.574267578125
1.603271484375
1.6927001953124998
1.7047851562499998
1.6024658203125
1.5911865234375
1.59521484375
1.6024658203125
1.5678222656249998
1.5670166015625
1.5154541015624998
1.4816162109375
1.496923828125
1.542041015625
1.529150390625
1.5396240234374998
1.5033691406249998
1.662890625
1.5525146484374999
1.5460693359375
1.55009765625
1.5678222656249998
1.5323730468749999
1.4711425781249998
1.448583984375
1.4316650390624999
1.4518066406249999
1.4920898437499999
1.5041748046874999
1.4928955078125
1.5251220703125
1.4751708984374998
1.490478515625
1.5533203125
1.5275390624999998
1.533984375
1.5355957031249998
1.5073974609374998
1.3946044921874998
1.506591796875
1.5001464843749999
1.5194824218749998
1.525927734375
1.529150390625
1.6806152343749998
1.6910888671875
1.6322753906249998
1.5984375
1.5565429687499999
1.51787109375
1.5331787109375
1.546875
1.56298828125
1.5243164062499999
1.5509033203125
1.5895751953125
1.5815185546875
1.5444580078124999
1.5484863281249999
1.6894775390624999
1.5887695312499999
1.5533203125
1.5202880859374999
1.5331787109375
1.5331787109375
1.4574462890625
1.41796875
1.4332763671875
1.4316650390624999
1.4195800781249999
1.4896728515625
1.5122314453124999
1.5355957031249998
1.533984375
1.5186767578125
1.5484863281249999
1.5565429687499999
1.542041015625
1.542041015625
1.5517089843749998
1.3672119140624999
1.4542236328125
1.477587890625
1.480810546875
1.554931640625
1.5895751953125
1.60166015625
1.7200927734375
1.6564453124999998
1.5734619140625
1.5428466796875
1.5404296874999999
1.56943359375
1.5766845703124999
1.55009765625
1.5146484375
1.529150390625
1.5428466796875
1.5267333984375
1.5106201171875
1.5017578125
1.6798095703125
1.6298583984375
1.6854492187499999
1.5895751953125
1.525927734375
1.5202880859374999
1.4719482421874999
1.4550292968749998
1.4590576171874998
1.4622802734375
1.4751708984374998
1.4832275390624998
1.5001464843749999
1.5106201171875
1.5025634765625
1.5202880859374999
1.4961181640624999
1.529150390625
1.5476806640624998
1.5517089843749998
1.5243164062499999
1.3212890625
1.4316650390624999
1.50498046875
1.4840332031249999
1.4945068359375
1.5678222656249998
1.6435546875
1.8014648437499998
1.6765869140624998
1.622607421875
1.542041015625
1.5355957031249998
1.5887695312499999
1.5758789062499998
1.5758789062499998
1.5017578125
1.4800048828124999
1.482421875
1.5484863281249999
1.5807128906249999
1.56943359375
1.7176757812499999
1.71123046875
1.5484863281249999
1.5364013671874999
1.5146484375
1.4630859374999998
1.4759765624999999
1.3978271484375
1.3865478515624998
1.4058837890625
1.4381103515625
1.4638916015624999
1.4638916015624999
1.4912841796874998
1.5114257812499998
1.458251953125
1.5033691406249998
1.4953124999999998
1.5791015625
1.5565429687499999
1.5645996093749999
1.197216796875
1.2656982421874998
1.429248046875
1.5009521484375
1.53720703125
1.5686279296874999
1.625830078125
1.851416015625
1.7692382812499998
1.6862548828125
1.574267578125
1.5533203125
1.558154296875
1.53720703125
1.5565429687499999
1.5090087890625
1.5484863281249999
1.52109375
1.5396240234374998
1.5090087890625
1.5194824218749998
1.703173828125
1.90458984375
1.6532226562499999
1.5919921874999998
1.5791015625
1.46630859375
1.3857421875
1.2826171874999999
1.3156494140625
1.42119140625
1.368017578125
1.3817138671875
1.4945068359375
1.5090087890625
1.5154541015624998
1.5791015625
1.6081054687499998
1.5605712890624999
1.4622802734375
1.4679199218749999
1.5057861328125
1.3027587890624999
1.21171875
1.38896484375
1.4123291015625
1.4638916015624999
1.6040771484374998
1.6588623046875
1.9972412109375
1.9263427734374998
1.7772949218749998
1.6830322265625
1.49853515625
1.4356933593749999
1.496923828125
1.56298828125
1.5734619140625
1.529150390625
1.5073974609374998
1.4880615234374999
1.4840332031249999
1.4953124999999998
1.8256347656249998
2.131787109375
1.877197265625
1.7418457031249999
1.6403320312499998
1.4832275390624998
1.29228515625
1.1013427734374999
0.9603515625
1.029638671875
1.2342773437499999
1.3269287109374999
1.429248046875
1.45341796875
1.538818359375
1.522705078125
1.5565429687499999
1.60166015625
1.554931640625
1.56943359375
1.5476806640624998
1.1295410156249999
0.87333984375
1.1609619140625
1.303564453125
1.4284423828125
1.5670166015625
1.8264404296874999
2.289697265625
2.2671386718749997
2.002880859375
1.861083984375
1.6773925781249999
1.7039794921875
1.5992431640625
1.533984375
1.5637939453124998
1.5235107421874998
1.4598632812499999
1.4236083984374999
1.44052734375
1.41796875
1.5090087890625
2.238134765625
2.0117431640625
1.9053955078125
1.6967285156249998
1.4526123046875
1.3253173828125
1.0417236328125
0.9410156249999999
1.0578369140625
1.2415283203124998
1.3446533203125
1.3994384765624999
1.3341796874999998
1.400244140625
1.5283447265624999
1.603271484375
1.641943359375
1.670947265625
1.6717529296875
1.658056640625
1.3285400390625
0.8677001953125
1.142431640625
1.27294921875
1.4107177734374998
1.482421875
1.6435546875
2.176904296875
2.2985595703125
2.0560546875
1.8473876953125
1.6991455078125
1.5863525390625
1.5807128906249999
1.5895751953125
1.5557373046874998
1.4888671875
1.5412353515625
1.5323730468749999
1.4381103515625
1.4147460937499998
1.4961181640624999
2.26875
2.1374267578125
1.880419921875
1.7313720703125
1.5968261718749999
1.3027587890624999
0.98291015625
0.9837158203124999
1.0143310546875
1.1384033203125
1.3140380859374998
1.432470703125
1.3921875
1.4501953125
1.4606689453125
1.5734619140625
1.6773925781249999
1.5597656249999998
1.5484863281249999
1.5218994140625
1.4679199218749999
0.8386962890624999
1.1319580078125
1.271337890625
1.3865478515624998
1.5347900390625
1.72412109375
2.031884765625
2.193017578125
2.047998046875
1.869140625
1.654833984375
1.6008544921874999
1.5791015625
1.5670166015625
1.474365234375
1.5726562499999999
1.5235107421874998
1.5114257812499998
1.5251220703125
1.5017578125
1.4928955078125
2.1720703125
1.9513183593749999
1.78857421875
1.6137451171875
1.4791992187499998
1.33740234375
1.142431640625
1.1271240234375
1.173046875
1.2495849609374998
1.3100097656249998
1.3470703124999999
1.4348876953124998
1.5662109375
1.5243164062499999
1.5444580078124999
1.5702392578125
1.590380859375
1.662890625
1.62744140625
1.5799072265624998
0.95068359375
1.123095703125
1.3349853515624999
1.4107177734374998
1.4526123046875
1.6588623046875
1.909423828125
2.212353515625
1.98837890625
1.6242187499999998
1.55009765625
1.4977294921875
1.574267578125
1.5645996093749999
1.5734619140625
1.611328125
1.5605712890624999
1.5347900390625
1.4993408203124998
1.5758789062499998
1.513037109375
1.9400390625
1.896533203125
1.69189453125
1.625830078125
1.5267333984375
1.4759765624999999
1.2238037109375
1.181103515625
1.1722412109375
1.3083984375
1.3639892578125
1.3954101562499999
1.41796875
1.5331787109375
1.4711425781249998
1.5436523437499998
1.6081054687499998
1.5404296874999999
1.5726562499999999
1.590380859375
1.5662109375
0.9708251953125
1.147265625
1.3019531249999998
1.4437499999999999
1.5267333984375
1.6427490234375
1.8296630859374998
2.164013671875
1.9440673828125
1.7499023437499999
1.6346923828125
1.6000488281249998
1.5436523437499998
1.5275390624999998
1.5146484375
1.4840332031249999
1.5243164062499999
1.4791992187499998
1.5347900390625
1.5557373046874998
1.571044921875
1.8554443359375
2.0560546875
1.7023681640625
1.56943359375
1.5396240234374998
1.458251953125
1.2342773437499999
1.1996337890625
1.1778808593749999
1.22138671875
1.3792968749999999
1.40830078125
1.3801025390625
1.4252197265625
1.558154296875
1.574267578125
1.5235107421874998
1.525927734375
1.5243164062499999
1.4816162109375
1.52109375
1.0771728515624999
1.155322265625
1.3623779296874998
1.426025390625
1.506591796875
1.6886718749999998
1.7877685546875
2.1309814453125
1.9303710937499998
1.7877685546875
1.6862548828125
1.5476806640624998
1.496923828125
1.46630859375
1.4622802734375
1.538818359375
1.5533203125
1.554931640625
1.53076171875
1.5573486328125
1.5718505859374998
1.8361083984375
2.0004638671875
1.7233154296875
1.6242187499999998
1.606494140625
1.477587890625
1.4115234374999999
1.15048828125
1.0916748046875
1.187548828125
1.3664062499999998
1.4244140625
1.4461669921875
1.5106201171875
1.545263671875
1.5927978515624999
1.5315673828124998
1.5484863281249999
1.5621826171875
1.506591796875
1.5331787109375
1.0965087890625
0.9788818359375
1.2640869140625
1.3921875
1.4308593749999998
1.6306640625
1.9182861328124998
2.2760009765625
2.151123046875
1.7692382812499998
1.5887695312499999
1.5073974609374998
1.55009765625
1.5621826171875
1.5057861328125
1.5927978515624999
1.513037109375
1.53076171875
1.5235107421874998
1.5017578125
1.4429443359374998
1.4139404296875
2.0278564453125
1.77890625
1.6910888671875
1.703173828125
1.464697265625
1.3792968749999999
1.2254150390625
1.1537109374999999
1.1923828125
1.2947021484374999
1.4236083984374999
1.4268310546874998
1.4091064453125
1.4123291015625
1.5283447265624999
1.5766845703124999
1.5766845703124999
1.5637939453124998
1.5879638671874998
1.5283447265624999
1.5734619140625
0.9853271484374999
1.2802001953125
1.3462646484374998
1.3986328124999998
1.574267578125
1.77890625
2.131787109375
2.1003662109375
1.93681640625
1.732177734375
1.625830078125
1.5428466796875
1.5557373046874998
1.5960205078124998
1.525927734375
1.5509033203125
1.522705078125
1.5275390624999998
1.4783935546875
1.4638916015624999
1.5315673828124998
2.1116455078125
1.899755859375
1.662890625
1.6435546875
1.5750732421875
1.3502929687499998
1.1093994140624999
1.010302734375
1.123095703125
1.2705322265624999
1.393798828125
1.4091064453125
1.400244140625
1.5347900390625
1.55009765625
1.5911865234375
1.6000488281249998
1.5355957031249998
1.52109375
1.5911865234375
1.5194824218749998
0.78310546875
1.1335693359374999
1.4107177734374998
1.546875
1.6185791015625
1.7958251953125
1.9489013671875
2.241357421875
1.8739746093749998
1.740234375
1.703173828125
1.651611328125
1.60166015625
1.5919921874999998
1.5122314453124999
1.496923828125
1.5122314453124999
1.5194824218749998
1.5106201171875
1.5082031249999999
1.5106201171875
2.2131591796875
2.0431640625
1.8707519531249999
1.7104248046875
1.5992431640625
1.4671142578124998
1.0892578124999999
0.9949951171875
1.0239990234375
1.1947998046875
1.3470703124999999
1.40185546875
1.3978271484375
1.4872558593749998
1.5001464843749999
1.5090087890625
1.542041015625
1.5114257812499998
1.5122314453124999
1.5090087890625
1.5863525390625
0.9474609374999999
1.11181640625
1.3704345703124998
1.4316650390624999
1.5791015625
1.6000488281249998
1.9263427734374998
2.222021484375
2.07861328125
1.82080078125
1.7370117187499998
1.6806152343749998
1.5831298828125
1.4767822265625
1.4308593749999998
1.4840332031249999
1.4719482421874999
1.4638916015624999
1.5331787109375
1.5025634765625
1.622607421875
2.0334960937499997
1.96904296875
1.7611816406249998
1.7410400390624998
1.641943359375
1.4630859374999998
1.27294921875
1.1335693359374999
1.0916748046875
1.2205810546875
1.2834228515625
1.3607666015625
1.4171630859375
1.4977294921875
1.49853515625
1.525927734375
1.5331787109375
1.554931640625
1.5686279296874999
1.5879638671874998
1.5645996093749999
0.881396484375
1.087646484375
1.2826171874999999
1.3382080078124998
1.513037109375
1.6693359374999999
1.7781005859374999
2.1777099609375
2.0294677734374997
1.8707519531249999
1.6314697265625
1.571044921875
1.561376953125
1.474365234375
1.4518066406249999
1.456640625
1.509814453125
1.571044921875
1.558154296875
1.5057861328125
1.4389160156249998
1.8586669921874999
1.9948242187499998
1.7781005859374999
1.699951171875
1.6508056640625
1.4348876953124998
1.3390136718749999
1.1859374999999999
1.1126220703125
1.2205810546875
1.313232421875
1.4759765624999999
1.4735595703125
1.5033691406249998
1.5001464843749999
1.5364013671874999
1.5565429687499999
1.5968261718749999
1.5476806640624998
1.5194824218749998
1.5170654296875
1.103759765625
0.9837158203124999
1.316455078125
1.38896484375
1.4816162109375
1.61455078125
1.6798095703125
2.0826416015625
1.89169921875
1.799853515625
1.7257324218749999
1.6572509765624999
1.5927978515624999
1.5702392578125
1.62744140625
1.6290527343749999
1.6081054687499998
1.5154541015624998
1.4107177734374998
1.4840332031249999
1.4896728515625
1.5509033203125
2.002880859375
1.7555419921875
1.69189453125
1.5976318359375
1.533984375
1.3946044921874998
1.1770751953125
1.1150390625
1.1722412109375
1.2987304687499999
1.4042724609375
1.4751708984374998
1.4316650390624999
1.5090087890625
1.5033691406249998
1.522705078125
1.5654052734375
1.5364013671874999
1.5887695312499999
1.546875
1.197216796875
1.0433349609375
1.313232421875
1.3752685546874999
1.4518066406249999
1.587158203125
1.77568359375
2.0600830078125
1.8949218749999999
1.8199951171875
1.6532226562499999
1.6298583984375
1.5766845703124999
1.5396240234374998
1.5509033203125
1.5138427734375
1.558154296875
1.5573486328125
1.5460693359375
1.5412353515625
1.5299560546875
1.5686279296874999
2.10439453125
1.791796875
1.6306640625
1.6072998046875
1.4791992187499998
1.3704345703124998
1.1964111328125
1.2109130859375
1.276171875
1.3253173828125
1.3849365234375
1.482421875
1.458251953125
1.558154296875
1.509814453125
1.477587890625
1.5082031249999999
1.4953124999999998
1.5541259765625
1.6169677734374999
1.5218994140625
0.9635742187499999
1.3140380859374998
1.4066894531249998
1.4945068359375
1.5887695312499999
1.6564453124999998
1.9682373046875
2.0044921875
1.8635009765625
1.6959228515625
1.5863525390625
1.5960205078124998
1.606494140625
1.490478515625
1.554931640625
1.590380859375
1.533984375
1.4920898437499999
1.4840332031249999
1.5009521484375
1.477587890625
2.0246337890625
1.7934082031249998
1.7015624999999999
1.6604736328124998
1.5734619140625
1.5114257812499998
1.1980224609374999
1.164990234375
1.0707275390625
1.2947021484374999
1.3897705078125
1.3390136718749999
1.4066894531249998
1.55009765625
1.5331787109375
1.56298828125
1.6177734375
1.625830078125
1.6242187499999998
1.5782958984375
1.5396240234374998
0.849169921875
1.2060791015624999
1.3462646484374998
1.4888671875
1.56298828125
1.6773925781249999
1.996435546875
2.1696533203125
1.8796142578125
1.7635986328125
1.6588623046875
1.5782958984375
1.5218994140625
1.4630859374999998
1.4735595703125
1.5484863281249999
1.5380126953125
1.5267333984375
1.554931640625
1.5605712890624999
1.5162597656249999
2.1019775390624997
1.8264404296874999
1.7313720703125
1.651611328125
1.545263671875
1.4091064453125
1.229443359375
1.173046875
1.3124267578125
1.2914794921875
1.3849365234375
1.4332763671875
1.3656005859375
1.4840332031249999
1.442138671875
1.5041748046874999
1.5444580078124999
1.5186767578125
1.5194824218749998
1.4912841796874998
1.5315673828124998
0.8548095703124999
1.1295410156249999
1.3978271484375
1.4308593749999998
1.5605712890624999
1.6798095703125
1.9859619140625
2.1358154296875
1.9513183593749999
1.8425537109374999
1.74345703125
1.6330810546874999
1.456640625
1.4751708984374998
1.55009765625
1.60166015625
1.5090087890625
1.5114257812499998
1.56943359375
1.4928955078125
1.4880615234374999
1.9674316406249999
1.9795166015624999
1.7587646484375
1.6588623046875
1.5662109375
1.3639892578125
1.2205810546875
1.1512939453125
1.1923828125
1.2503906249999999
1.3204833984375
1.4413330078125
1.4477783203124999
1.5597656249999998
1.5799072265624998
1.52109375
1.5082031249999999
1.5082031249999999
1.5299560546875
1.5283447265624999
1.4759765624999999
1.0433349609375
1.1754638671875
1.3672119140624999
1.416357421875
1.4928955078125
1.577490234375
1.7490966796874998
2.101171875
1.9537353515625
1.812744140625
1.6588623046875
1.571044921875
1.577490234375
1.542041015625
1.5484863281249999
1.5122314453124999
1.5541259765625
1.5041748046874999
1.5017578125
1.5484863281249999
1.4735595703125
1.8884765625
1.98515625
1.7853515624999998
1.6532226562499999
1.5815185546875
1.4445556640625
1.3100097656249998
1.2189697265625
1.198828125
1.2544189453124999
1.32451171875
1.3220947265624998
1.4010498046875
1.4945068359375
1.5323730468749999
1.538818359375
1.529150390625
1.4783935546875
1.542041015625
1.558154296875
1.5597656249999998
1.077978515625
1.0304443359375
1.4606689453125
1.456640625
1.5597656249999998
1.5807128906249999
1.735400390625
2.060888671875
1.9730712890625
1.8344970703124999
1.7120361328125
1.6322753906249998
1.5726562499999999
1.5114257812499998
1.5428466796875
1.5702392578125
1.477587890625
1.5637939453124998
1.590380859375
1.4816162109375
1.4864501953125
1.5799072265624998
1.915869140625
1.6725585937499998
1.6234130859375
1.6089111328124999
1.442138671875
1.413134765625
1.20849609375
1.2536132812499998
1.2890625
1.29228515625
1.3599609375
1.3462646484374998
1.4598632812499999
1.5082031249999999
1.5364013671874999
1.4767822265625
1.5041748046874999
1.590380859375
1.5347900390625
1.546875
1.0723388671875
1.039306640625
1.3019531249999998
1.4155517578124999
1.5090087890625
1.641943359375
1.7184814453125
2.08828125
2.0488037109375
1.8651123046875
1.6765869140624998
1.5919921874999998
1.593603515625
1.5654052734375
1.5509033203125
1.5492919921875
1.5444580078124999
1.4920898437499999
1.496923828125
1.4928955078125
1.509814453125
1.5170654296875
2.0576660156249997
1.8280517578125
1.6967285156249998
1.6588623046875
1.538818359375
1.3994384765624999
1.1142333984375
1.1053710937499999
1.15048828125
1.2979248046874998
1.3317626953125
1.4203857421875
1.509814453125
1.574267578125
1.546875
1.571044921875
1.6346923828125
1.67900390625
1.6588623046875
1.60166015625
1.5025634765625
0.8580322265625
1.09892578125
1.264892578125
1.35673828125
1.5444580078124999
1.7072021484375
2.11728515625
2.0326904296875
1.8892822265625
1.7499023437499999
1.7378173828124999
1.6024658203125
1.593603515625
1.5863525390625
1.509814453125
1.5355957031249998
1.4888671875
1.5944091796875
1.667724609375
1.585546875
1.622607421875
2.3525390625
2.1462890624999997
1.9907958984374998
1.8312744140625
1.719287109375
1.5162597656249999
1.0771728515624999
1.023193359375
0.9410156249999999
1.04736328125
1.1214843749999999
1.1335693359374999
1.2511962890625
1.3100097656249998
1.3744628906249998
1.4638916015624999
1.5243164062499999
1.5347900390625
1.5154541015624998
1.4993408203124998
1.429248046875
0.5841064453125
0.8193603515625
1.0207763671874999
1.1408203125
1.2705322265624999
1.5839355468749998
2.0987548828125
2.4403564453124997
2.1857666015625
2.0906982421875
2.070556640625
1.9827392578124998
1.7442626953125
1.7096191406249999
1.683837890625
1.6000488281249998
1.5976318359375
1.5791015625
1.4477783203124999
1.4381103515625
1.4348876953124998
2.3138671875
2.4202148437499997
2.18818359375
2.075390625
1.8143554687499999
1.5605712890624999
1.2439453125
0.994189453125
0.8483642578124999
0.942626953125
1.0062744140625
1.0546142578125
1.0385009765625
1.190771484375
1.4679199218749999
1.4542236328125
1.49853515625
1.51787109375
1.5243164062499999
1.5267333984375
1.4920898437499999
0.4084716796875
0.4229736328125
0.6888427734375
0.8048583984375
0.952294921875
1.14404296875
1.690283203125
2.6103515625
2.65869140625
2.5571777343749997
2.3082275390625
2.151123046875
1.9553466796874999
1.7507080078125
1.71123046875
1.6282470703124998
1.5484863281249999
1.5323730468749999
1.5589599609375
1.585546875
1.456640625
2.4169921875
2.6925292968749996
2.6562744140624996
2.56201171875
2.3775146484375
1.9956298828124999
1.17626953125
0.7420166015624999
0.4390869140625
0.4447265625
0.5615478515625
0.7412109375
0.8113037109375
0.91201171875
1.00224609375
1.13115234375
1.1537109374999999
1.2777832031249998
1.3954101562499999
1.4880615234374999
1.5364013671874999
0.48662109374999996
0.198193359375
0.223974609375
0.21511230468749998
0.362548828125
0.8693115234375
1.41796875
2.6941406249999997
3.0325195312499997
2.882666015625
2.8141845703125
2.673193359375
2.553955078125
2.2776123046875
2.2808349609375
2.1632080078125
1.92392578125
1.80791015625
1.65
1.4993408203124998
1.4848388671875
2.4870849609374996
3.0349365234374996
3.0325195312499997
3.037353515625
2.9519531249999997
2.640966796875
2.141455078125
1.2189697265625
0.5865234375
0.252978515625
0.116015625
0.0966796875
0.1039306640625
0.11359863281249999
0.1877197265625
0.3601318359375
0.5744384765625
0.7500732421874999
0.9321533203125
1.08603515625
1.2052734375
0.026586914062499998
0.030615234374999998
0.0298095703125
0.0298095703125
0.0249755859375
0.1973876953125
0.6985107421875
2.0391357421875
2.6643310546874996
3.034130859375
3.0301025390625
3.0325195312499997
3.011572265625
2.784375
2.8206298828125
2.7722900390625
2.69736328125
2.418603515625
2.3082275390625
2.126953125
1.9940185546875
2.1615966796875
3.0325195312499997
3.0349365234374996
3.0333251953125
3.037353515625
2.8496337890624996
2.399267578125
1.65
0.9692138671874999
0.275537109375
0.0298095703125
0.0314208984375
0.0322265625
0.0322265625
0.1345458984375
0.32548828124999996
0.472119140625
0.6896484374999999
0.726708984375
0.897509765625
1.0288330078124999
0.5446289062499999
0.0314208984375
0.030615234374999998
0.030615234374999998
0.030615234374999998
0.2795654296875
0.6372802734374999
1.861083984375
2.9519531249999997
3.0333251953125
3.0309082031249996
3.0309082031249996
2.979345703125
2.8955566406249997
2.843994140625
2.75537109375
2.5982666015625
2.3807373046875
2.1615966796875
2.0044921875
1.920703125
1.861083984375
3.0309082031249996
3.0349365234374996
3.0284912109374997
2.8866943359375
2.5257568359375
2.1325927734375
1.213330078125
0.6123046875
0.32548828124999996
0.198193359375
0.09990234375
0.21591796875
0.28359375
0.507568359375
0.758935546875
0.9724365234375
1.090869140625
1.232666015625
1.3285400390625
1.4228027343749998
1.252001953125
0.111181640625
0.1490478515625
0.2972900390625
0.4439208984375
0.8040527343749999
1.2109130859375
2.302587890625
2.956787109375
3.0325195312499997
2.9704833984374996
2.737646484375
2.5193115234374996
2.2357177734375
1.95615234375
1.9102294921874998
1.69833984375
1.6491943359374999
1.5275390624999998
1.5025634765625
1.4920898437499999
1.4606689453125
2.450830078125
2.6103515625
2.487890625
2.4766113281249997
2.212353515625
1.7015624999999999
1.0916748046875
0.7355712890624999
0.404443359375
0.439892578125
0.6630615234374999
0.8467529296874999
0.9144287109375
1.0868408203125
1.2802001953125
1.4058837890625
1.6024658203125
1.571044921875
1.6121337890624998
1.6669189453125
1.6773925781249999
0.4245849609375
0.5212646484375
0.662255859375
0.7943847656249999
1.1496826171874999
1.448583984375
2.028662109375
2.8294921874999996
2.6820556640624997
2.534619140625
2.20107421875
2.0826416015625
1.9263427734374998
1.7797119140625
1.5315673828124998
1.5041748046874999
1.4598632812499999
1.474365234375
1.574267578125
1.5444580078124999
1.461474609375
2.3477050781249997
2.3557617187499997
2.2002685546875
1.9811279296875
1.7982421874999999
1.5299560546875
1.018359375
0.8499755859375
0.813720703125
0.8467529296874999
1.0006347656249999
1.0731445312499999
1.10859375
1.3083984375
1.3720458984375
1.4316650390624999
1.5428466796875
1.5476806640624998
1.5782958984375
1.5887695312499999
1.6242187499999998
0.7146240234375
0.5857177734375
0.81533203125
0.9313476562499999
1.2302490234374999
1.55009765625
1.9634033203124999
2.4661376953125
2.408935546875
2.1342041015624997
1.980322265625
1.82724609375
1.69189453125
1.6242187499999998
1.6314697265625
1.6540283203125
1.5895751953125
1.5573486328125
1.5396240234374998
1.4574462890625
1.4864501953125
1.8788085937499999
2.27841796875
2.0101318359375
2.023828125
1.7499023437499999
1.49853515625
1.3027587890624999
0.9901611328125
0.837890625
1.003857421875
1.094091796875
1.2350830078125
1.3011474609375
1.37607421875
1.3897705078125
1.46953125
1.5573486328125
1.619384765625
1.493701171875
1.5299560546875
1.49853515625
0.7355712890624999
0.6050537109374999
1.0223876953125
1.187548828125
1.380908203125
1.5492919921875
1.6645019531249998
2.376708984375
2.2671386718749997
2.1180908203124997
1.960986328125
1.8119384765625
1.593603515625
1.7249267578124998
1.6346923828125
1.5654052734375
1.53076171875
1.4816162109375
1.5347900390625
1.5927978515624999
1.5033691406249998
1.8336914062499998
2.2905029296875
2.102783203125
1.9166748046875
1.8248291015625
1.6540283203125
1.361572265625
1.0763671875
0.984521484375
1.013525390625
1.148876953125
1.3059814453124998
1.3019531249999998
1.3478759765625
1.48564453125
1.5380126953125
1.52109375
1.482421875
1.5106201171875
1.4751708984374998
1.5323730468749999
1.219775390625
0.8129150390625
1.1126220703125
1.2447509765625
1.3261230468749998
1.6201904296874998
1.7345947265625
2.189794921875
2.157568359375
2.0117431640625
1.7772949218749998
1.6121337890624998
1.5645996093749999
1.6048828124999999
1.5831298828125
1.67900390625
1.6322753906249998
1.6572509765624999
1.6532226562499999
1.606494140625
1.6508056640625
1.7595703125
2.2131591796875
1.9746826171874998
1.7362060546875
1.73056640625
1.6008544921874999
1.4590576171874998
1.2028564453125
1.16337890625
1.2318603515625
1.2995361328125
1.3212890625
1.413134765625
1.4735595703125
1.5017578125
1.5428466796875
1.5355957031249998
1.6000488281249998
1.533984375
1.49853515625
1.5726562499999999
1.4389160156249998
1.16337890625
1.3954101562499999
1.4034667968749999
1.5114257812499998
1.5404296874999999
1.641943359375
1.8473876953125
1.7724609375
1.6282470703124998
1.554931640625
1.4888671875
1.5057861328125
1.5235107421874998
1.5565429687499999
1.5404296874999999
1.5315673828124998
1.5090087890625
1.53076171875
1.49853515625
1.5009521484375
1.4655029296875
1.8417480468749998
1.6129394531249999
1.5436523437499998
1.5146484375
1.4880615234374999
1.405078125
1.31162109375
1.3672119140624999
1.4066894531249998
1.448583984375
1.4687255859375
1.4888671875
1.482421875
1.5138427734375
1.5162597656249999
1.5323730468749999
1.542041015625
1.533984375
1.493701171875
1.4767822265625
1.50498046875
1.2463623046874999
1.4574462890625
1.5146484375
1.5170654296875
1.5299560546875
1.558154296875
1.738623046875
1.7410400390624998
1.6282470703124998
1.5766845703124999
1.5637939453124998
1.5476806640624998
1.5597656249999998
1.5243164062499999
1.5146484375
1.5267333984375
1.5106201171875
1.53076171875
1.55009765625
1.5009521484375
1.5025634765625
1.719287109375
1.662890625
1.5807128906249999
1.5702392578125
1.5525146484374999
1.474365234375
1.40830078125
1.4195800781249999
1.3784912109374998
1.4518066406249999
1.4783935546875
1.46630859375
1.4816162109375
1.53720703125
1.5476806640624998
1.5299560546875
1.5186767578125
1.525927734375
1.51787109375
1.5396240234374998
1.5355957031249998
1.319677734375
1.5009521484375
1.5106201171875
1.4888671875
1.5323730468749999
1.5927978515624999
1.6564453124999998
1.7176757812499999
1.625830078125
1.5879638671874998
1.5968261718749999
1.56298828125
1.5517089843749998
1.5243164062499999
1.5404296874999999
1.5476806640624998
1.5428466796875
1.53076171875
1.53720703125
1.5412353515625
1.5331787109375
1.699951171875
1.6403320312499998
1.5734619140625
1.5364013671874999
1.5170654296875
1.5162597656249999
1.45341796875
1.4236083984374999
1.4316650390624999
1.4953124999999998
1.4751708984374998
1.5001464843749999
1.5082031249999999
1.5194824218749998
1.509814453125
1.5243164062499999
1.5251220703125
1.5323730468749999
1.56298828125
1.5355957031249998
1.5323730468749999
1.348681640625
1.4413330078125
1.5122314453124999
1.5057861328125
1.5299560546875
1.56943359375
1.5984375
1.6959228515625
1.6121337890624998
1.5815185546875
1.5839355468749998
1.5589599609375
1.5404296874999999
1.542041015625
1.55009765625
1.5525146484374999
1.5565429687499999
1.5396240234374998
1.5331787109375
1.5162597656249999
1.538818359375
1.6081054687499998
1.5895751953125
1.571044921875
1.5702392578125
1.5428466796875
1.5251220703125
1.4832275390624998
1.445361328125
1.4606689453125
1.4687255859375
1.4872558593749998
1.5017578125
1.4928955078125
1.522705078125
1.50498046875
1.5218994140625
1.5331787109375
1.5355957031249998
1.5404296874999999
1.5251220703125
1.5476806640624998
1.384130859375
1.4397216796874999
1.5073974609374998
1.4912841796874998
1.5347900390625
1.538818359375
1.5678222656249998
1.6814208984374999
1.6161621093749998
1.603271484375
1.5476806640624998
1.571044921875
1.5517089843749998
1.5404296874999999
1.5428466796875
1.5476806640624998
1.5525146484374999
1.5396240234374998
1.5323730468749999
1.5347900390625
1.529150390625
1.5726562499999999
1.6604736328124998
1.58232421875
1.5541259765625
1.55009765625
1.5235107421874998
1.4912841796874998
1.4558349609374999
1.46630859375
1.4671142578124998
1.4977294921875
1.5001464843749999
1.506591796875
1.5057861328125
1.5146484375
1.52109375
1.5146484375
1.5243164062499999
1.525927734375
1.5484863281249999
1.546875
1.5033691406249998
1.3946044921874998
1.5122314453124999
1.51787109375
1.5251220703125
1.5911865234375
1.5654052734375
1.662890625
1.6322753906249998
1.574267578125
1.5662109375
1.5678222656249998
1.5654052734375
1.5621826171875
1.56298828125
1.5396240234374998
1.5428466796875
1.525927734375
1.5355957031249998
1.5299560546875
1.5347900390625
1.55009765625
1.651611328125
1.585546875
1.5525146484374999
1.5460693359375
1.5251220703125
1.4953124999999998
1.458251953125
1.4703369140625
1.4542236328125
1.4888671875
1.5001464843749999
1.522705078125
1.5186767578125
1.533984375
1.509814453125
1.525927734375
1.5194824218749998
1.5331787109375
1.5267333984375
1.5267333984375
1.5073974609374998
1.3986328124999998
1.5033691406249998
1.5090087890625
1.50498046875
1.5436523437499998
1.5879638671874998
1.6443603515624998
1.635498046875
1.60166015625
1.5533203125
1.5533203125
1.558154296875
1.5509033203125
1.5355957031249998
1.542041015625
1.5380126953125
1.533984375
1.545263671875
1.5243164062499999
1.5404296874999999
1.5347900390625
1.6669189453125
1.5782958984375
1.571044921875
1.5670166015625
1.5025634765625
1.5009521484375
1.4655029296875
1.46630859375
1.458251953125
1.4977294921875
1.5122314453124999
1.5122314453124999
1.5122314453124999
1.5106201171875
1.5243164062499999
1.5331787109375
1.5138427734375
1.5331787109375
1.5202880859374999
1.5428466796875
1.5396240234374998
1.3978271484375
1.506591796875
1.5073974609374998
1.5082031249999999
1.5412353515625
1.5621826171875
1.61455078125
1.667724609375
1.577490234375
1.5839355468749998
1.5605712890624999
1.5621826171875
1.5565429687499999
1.53720703125
1.5509033203125
1.5476806640624998
1.5283447265624999
1.538818359375
1.53076171875
1.5162597656249999
1.546875
1.6814208984374999
1.593603515625
1.5597656249999998
1.5517089843749998
1.53720703125
1.5114257812499998
1.4518066406249999
1.4542236328125
1.46630859375
1.4848388671875
1.4816162109375
1.5146484375
1.4888671875
1.506591796875
1.5299560546875
1.53076171875
1.5492919921875
1.5331787109375
1.53076171875
1.53720703125
1.51787109375
1.4074951171874999
1.4953124999999998
1.5331787109375
1.50498046875
1.5396240234374998
1.546875
1.609716796875
1.6588623046875
1.6000488281249998
1.5686279296874999
1.571044921875
1.5517089843749998
1.554931640625
1.533984375
1.5364013671874999
1.5299560546875
1.546875
1.554931640625
1.5315673828124998
1.5299560546875
1.5202880859374999
1.6669189453125
1.5887695312499999
1.546875
1.5678222656249998
1.542041015625
1.5090087890625
1.4703369140625
1.4759765624999999
1.4606689453125
1.4896728515625
1.5146484375
1.509814453125
1.5082031249999999
1.5154541015624998
1.529150390625
1.522705078125
1.5364013671874999
1.522705078125
1.525927734375
1.5315673828124998
1.5202880859374999
1.3744628906249998
1.4671142578124998
1.5073974609374998
1.513037109375
1.5347900390625
1.5492919921875
1.606494140625
1.6781982421875
1.6048828124999999
1.561376953125
1.5686279296874999
1.5573486328125
1.5380126953125
1.5557373046874998
1.5404296874999999
1.5533203125
1.5396240234374998
1.5492919921875
1.5484863281249999
1.5283447265624999
1.5396240234374998
1.5847412109374999
1.6298583984375
1.5525146484374999
1.5589599609375
1.53720703125
1.5114257812499998
1.4679199218749999
1.461474609375
1.4638916015624999
1.458251953125
1.5057861328125
1.5114257812499998
1.509814453125
1.5122314453124999
1.5243164062499999
1.5299560546875
1.5364013671874999
1.5412353515625
1.533984375
1.5267333984375
1.5323730468749999
1.4622802734375
1.4389160156249998
1.5355957031249998
1.513037109375
1.5331787109375
1.5533203125
1.571044921875
1.674169921875
1.6169677734374999
1.5654052734375
1.5702392578125
1.5654052734375
1.545263671875
1.5605712890624999
1.546875
1.5517089843749998
1.53720703125
1.53076171875
1.5194824218749998
1.5331787109375
1.5412353515625
1.5807128906249999
1.6443603515624998
1.5750732421875
1.5476806640624998
1.5557373046874998
1.5154541015624998
1.4977294921875
1.4606689453125
1.461474609375
1.474365234375
1.5009521484375
1.4920898437499999
1.49853515625
1.52109375
1.5170654296875
1.52109375
1.5283447265624999
1.5404296874999999
1.5243164062499999
1.53076171875
1.5243164062499999
1.4679199218749999
1.3954101562499999
1.5218994140625
1.5146484375
1.529150390625
1.554931640625
1.5782958984375
1.6669189453125
1.6250244140624999
1.5839355468749998
1.5597656249999998
1.561376953125
1.5315673828124998
1.554931640625
1.5412353515625
1.51787109375
1.5412353515625
1.5355957031249998
1.5428466796875
1.5315673828124998
1.5444580078124999
1.5355957031249998
1.6604736328124998
1.5815185546875
1.5444580078124999
1.546875
1.5315673828124998
1.5057861328125
1.4687255859375
1.4558349609374999
1.4655029296875
1.4961181640624999
1.490478515625
1.5114257812499998
1.5267333984375
1.50498046875
1.5275390624999998
1.5364013671874999
1.5218994140625
1.53076171875
1.533984375
1.525927734375
1.4993408203124998
1.3736572265625
1.506591796875
1.509814453125
1.5122314453124999
1.53720703125
1.5782958984375
1.654833984375
1.6282470703124998
1.59521484375
1.571044921875
1.56298828125
1.55009765625
1.545263671875
1.5347900390625
1.5565429687499999
1.5444580078124999
1.5347900390625
1.5396240234374998
1.5557373046874998
1.542041015625
1.5315673828124998
1.6967285156249998
1.5645996093749999
1.5637939453124998
1.5364013671874999
1.5138427734375
1.5057861328125
1.464697265625
1.461474609375
1.4638916015624999
1.4888671875
1.5146484375
1.5057861328125
1.5073974609374998
1.5251220703125
1.4993408203124998
1.5283447265624999
1.5492919921875
1.5243164062499999
1.5323730468749999
1.52109375
1.5122314453124999
1.3784912109374998
1.4872558593749998
1.4953124999999998
1.5082031249999999
1.5355957031249998
1.5517089843749998
1.619384765625
1.6443603515624998
1.5944091796875
1.5815185546875
1.5597656249999998
1.561376953125
1.5436523437499998
1.5726562499999999
1.53720703125
1.5106201171875
1.5380126953125
1.5202880859374999
1.5251220703125
1.5218994140625
1.5404296874999999
1.6814208984374999
1.5887695312499999
1.5533203125
1.571044921875
1.529150390625
1.513037109375
1.4671142578124998
1.4687255859375
1.4493896484375
1.482421875
1.4767822265625
1.4977294921875
1.5283447265624999
1.533984375
1.5162597656249999
1.513037109375
1.5299560546875
1.5444580078124999
1.5605712890624999
1.5364013671874999
1.542041015625
1.380908203125
1.4558349609374999
1.51787109375
1.5114257812499998
1.5299560546875
1.5597656249999998
1.6089111328124999
1.6733642578124999
1.5879638671874998
1.56943359375
1.554931640625
1.554931640625
1.546875
1.5444580078124999
1.542041015625
1.55009765625
1.5315673828124998
1.5460693359375
1.5565429687499999
1.5460693359375
1.538818359375
1.6306640625
1.5944091796875
1.5702392578125
1.5573486328125
1.5299560546875
1.513037109375
1.490478515625
1.46953125
1.4598632812499999
1.477587890625
1.4977294921875
1.4872558593749998
1.49853515625
1.5057861328125
1.5235107421874998
1.545263671875
1.5251220703125
1.522705078125
1.522705078125
1.5557373046874998
1.5170654296875
1.3897705078125
1.4622802734375
1.5106201171875
1.5122314453124999
1.522705078125
1.561376953125
1.61455078125
1.6975341796874999
1.6234130859375
1.571044921875
1.574267578125
1.56298828125
1.5404296874999999
1.5621826171875
1.5460693359375
1.529150390625
1.5444580078124999
1.5404296874999999
1.5428466796875
1.538818359375
1.5025634765625
1.6306640625
1.638720703125
1.5605712890624999
1.5678222656249998
1.53720703125
1.4928955078125
1.4872558593749998
1.45341796875
1.461474609375
1.482421875
1.5090087890625
1.50498046875
1.5041748046874999
1.513037109375
1.5235107421874998
1.506591796875
1.529150390625
1.53720703125
1.5218994140625
1.5380126953125
1.5154541015624998
1.4364990234375
1.4671142578124998
1.5025634765625
1.51787109375
1.5073974609374998
1.558154296875
1.5807128906249999
1.6943115234375
1.603271484375
1.5718505859374998
1.5815185546875
1.5565429687499999
1.5541259765625
1.542041015625
1.5315673828124998
1.5428466796875
1.5122314453124999
1.5444580078124999
1.554931640625
1.5267333984375
1.5347900390625
1.606494140625
1.6532226562499999
1.5879638671874998
1.5621826171875
1.5428466796875
1.53720703125
1.496923828125
1.4638916015624999
1.4574462890625
1.456640625
1.490478515625
1.4993408203124998
1.51787109375
1.5267333984375
1.5251220703125
1.5194824218749998
1.603271484375
1.5122314453124999
1.5041748046874999
1.5299560546875
1.5331787109375
1.4445556640625
1.3946044921874998
1.5146484375
1.5162597656249999
1.5347900390625
1.5364013671874999
1.5637939453124998
1.687060546875
1.6443603515624998
1.5831298828125
1.5807128906249999
1.5662109375
1.5428466796875
1.55009765625
1.561376953125
1.538818359375
1.5428466796875
1.538818359375
1.5565429687499999
1.5355957031249998
1.5460693359375
1.5275390624999998
1.6612792968749999
1.5670166015625
1.5597656249999998
1.5525146484374999
1.51787109375
1.4993408203124998
1.442138671875
1.4598632812499999
1.45341796875
1.4791992187499998
1.5025634765625
1.5009521484375
1.4961181640624999
1.5162597656249999
1.5138427734375
1.5396240234374998
1.5323730468749999
1.5484863281249999
1.5380126953125
1.5218994140625
1.4501953125
1.4091064453125
1.4953124999999998
1.5154541015624998
1.5057861328125
1.56298828125
1.5637939453124998
1.6814208984374999
1.6435546875
1.59521484375
1.5686279296874999
1.5637939453124998
1.5645996093749999
1.5557373046874998
1.5355957031249998
1.5404296874999999
1.5436523437499998
1.5283447265624999
1.5404296874999999
1.529150390625
1.5436523437499998
1.5251220703125
1.6733642578124999
1.5863525390625
1.561376953125
1.56943359375
1.5525146484374999
1.5162597656249999
1.4332763671875
1.458251953125
1.4630859374999998
1.490478515625
1.47275390625
1.5033691406249998
1.5017578125
1.5243164062499999
1.5122314453124999
1.5275390624999998
1.5404296874999999
1.5484863281249999
1.533984375
1.529150390625
1.5509033203125
1.3801025390625
1.496923828125
1.5154541015624998
1.5154541015624998
1.5460693359375
1.558154296875
1.6024658203125
1.6459716796875
1.6008544921874999
1.5799072265624998
1.5654052734375
1.5927978515624999
1.5557373046874998
1.5428466796875
1.5315673828124998
1.533984375
1.5533203125
1.5412353515625
1.5299560546875
1.5347900390625
1.5114257812499998
1.67578125
1.5960205078124998
1.5460693359375
1.5573486328125
1.53720703125
1.51787109375
1.4598632812499999
1.448583984375
1.4526123046875
1.4719482421874999
1.51787109375
1.4920898437499999
1.493701171875
1.5186767578125
1.5347900390625
1.522705078125
1.5380126953125
1.5235107421874998
1.5380126953125
1.5444580078124999
1.5476806640624998
1.3752685546874999
1.4655029296875
1.5170654296875
1.522705078125
1.538818359375
1.5460693359375
1.6000488281249998
1.65
1.5911865234375
1.5662109375
1.5662109375
1.590380859375
1.5670166015625
1.56298828125
1.5492919921875
1.5218994140625
1.5396240234374998
1.56298828125
1.533984375
1.5267333984375
1.5364013671874999
1.6201904296874998
1.5976318359375
1.5492919921875
1.56943359375
1.5565429687499999
1.4977294921875
1.46953125
1.37607421875
1.4622802734375
1.4840332031249999
1.4767822265625
1.5170654296875
1.51787109375
1.5235107421874998
1.542041015625
1.5299560546875
1.5355957031249998
1.5154541015624998
1.5090087890625
1.5436523437499998
1.5243164062499999
1.3607666015625
1.461474609375
1.5243164062499999
1.5347900390625
1.5194824218749998
1.5517089843749998
1.5968261718749999
1.6717529296875
1.6185791015625
1.5831298828125
1.546875
1.56943359375
1.5782958984375
1.5565429687499999
1.5396240234374998
1.5275390624999998
1.5444580078124999
1.5492919921875
1.525927734375
1.546875
1.5331787109375
1.611328125
1.61455078125
1.5347900390625
1.5654052734375
1.5645996093749999
1.5170654296875
1.4791992187499998
1.4461669921875
1.4558349609374999
1.49853515625
1.4961181640624999
1.50498046875
1.49853515625
1.5114257812499998
1.5267333984375
1.5299560546875
1.5355957031249998
1.5170654296875
1.5146484375
1.5347900390625
1.5251220703125
1.4373046875
1.43408203125
1.50498046875
1.5186767578125
1.5106201171875
1.56298828125
1.59521484375
1.6685302734374998
1.625830078125
1.6000488281249998
1.5686279296874999
1.5436523437499998
1.5428466796875
1.5533203125
1.5476806640624998
1.5517089843749998
1.522705078125
1.5275390624999998
1.5218994140625
1.53076171875
1.545263671875
1.625830078125
1.651611328125
1.56298828125
1.56943359375
1.545263671875
1.5331787109375
1.5146484375
1.4397216796874999
1.432470703125
1.4719482421874999
1.496923828125
1.4928955078125
1.4848388671875
1.49853515625
1.5218994140625
1.529150390625
1.53076171875
1.5235107421874998
1.529150390625
1.5517089843749998
1.5331787109375
1.426025390625
1.3954101562499999
1.5033691406249998
1.5033691406249998
1.529150390625
1.546875
1.5734619140625
1.6556396484375
1.6371093749999999
1.6024658203125
1.5807128906249999
1.5654052734375
1.5412353515625
1.5380126953125
1.545263671875
1.5323730468749999
1.53720703125
1.5428466796875
1.51787109375
1.51787109375
1.5323730468749999
1.5396240234374998
1.6773925781249999
1.5766845703124999
1.5436523437499998
1.5678222656249998
1.5243164062499999
1.5001464843749999
1.4437499999999999
1.4461669921875
1.4518066406249999
1.50498046875
1.4872558593749998
1.4832275390624998
1.51787109375
1.533984375
1.5396240234374998
1.5404296874999999
1.5347900390625
1.5235107421874998
1.5186767578125
1.5380126953125
1.545263671875
1.40185546875
1.4767822265625
1.50498046875
1.5114257812499998
1.5525146484374999
1.5645996093749999
1.6717529296875
1.6322753906249998
1.590380859375
1.5734619140625
1.5654052734375
1.5621826171875
1.554931640625
1.545263671875
1.5218994140625
1.5267333984375
1.5517089843749998
1.5235107421874998
1.5476806640624998
1.5275390624999998
1.513037109375
1.6765869140624998
1.5895751953125
1.5718505859374998
1.5662109375
1.5323730468749999
1.5001464843749999
1.456640625
1.4558349609374999
1.4510009765624998
1.4888671875
1.5138427734375
1.5073974609374998
1.5218994140625
1.5194824218749998
1.5323730468749999
1.5162597656249999
1.5138427734375
1.53720703125
1.5331787109375
1.5218994140625
1.522705078125
1.3422363281249998
1.5025634765625
1.5146484375
1.5186767578125
1.558154296875
1.5670166015625
1.6153564453125
1.6604736328124998
1.5976318359375
1.5911865234375
1.5799072265624998
1.558154296875
1.561376953125
1.533984375
1.5275390624999998
1.53720703125
1.545263671875
1.5283447265624999
1.5299560546875
1.5404296874999999
1.5331787109375
1.6967285156249998
1.585546875
1.571044921875
1.5573486328125
1.5396240234374998
1.5146484375
1.4550292968749998
1.45341796875
1.461474609375
1.4598632812499999
1.5001464843749999
1.5162597656249999
1.4912841796874998
1.5122314453124999
1.5106201171875
1.5114257812499998
1.5347900390625
1.5315673828124998
1.5251220703125
1.5218994140625
1.533984375
1.3744628906249998
1.4703369140625
1.509814453125
1.5162597656249999
1.5267333984375
1.5533203125
1.6250244140624999
1.6846435546874998
1.619384765625
1.5670166015625
1.5541259765625
1.5541259765625
1.5637939453124998
1.538818359375
1.5509033203125
1.533984375
1.5589599609375
1.53720703125
1.51787109375
1.546875
1.5517089843749998
1.6588623046875
1.5887695312499999
1.5718505859374998
1.5525146484374999
1.5509033203125
1.513037109375
1.477587890625
1.44052734375
1.4679199218749999
1.482421875
1.4872558593749998
1.4928955078125
1.4920898437499999
1.52109375
1.53720703125
1.533984375
1.5194824218749998
1.5235107421874998
1.5170654296875
1.5017578125
1.5323730468749999
1.36962890625
1.4759765624999999
1.5138427734375
1.5170654296875
1.522705078125
1.5484863281249999
1.593603515625
1.674169921875
1.619384765625
1.5799072265624998
1.55009765625
1.5670166015625
1.5444580078124999
1.533984375
1.5444580078124999
1.538818359375
1.5404296874999999
1.5170654296875
1.5355957031249998
1.5218994140625
1.5436523437499998
1.6475830078125
1.6475830078125
1.5726562499999999
1.5517089843749998
1.5355957031249998
1.5170654296875
1.47275390625
1.448583984375
1.4228027343749998
1.4848388671875
1.4953124999999998
1.480810546875
1.496923828125
1.5154541015624998
1.5283447265624999
1.5404296874999999
1.5331787109375
1.529150390625
1.5275390624999998
1.5202880859374999
1.545263671875
1.397021484375
1.397021484375
1.5355957031249998
1.509814453125
1.5323730468749999
1.5686279296874999
1.5895751953125
1.67578125
1.6218017578125
1.574267578125
1.5686279296874999
1.5557373046874998
1.546875
1.5404296874999999
1.5573486328125
1.5396240234374998
1.533984375
1.5428466796875
1.5460693359375
1.5235107421874998
1.5299560546875
1.5299560546875
1.641943359375
1.5654052734375
1.558154296875
1.5299560546875
1.493701171875
1.46953125
1.4679199218749999
1.4574462890625
1.4759765624999999
1.4872558593749998
1.506591796875
1.49853515625
1.50498046875
1.5444580078124999
1.5355957031249998
1.522705078125
1.5186767578125
1.5331787109375
1.5436523437499998
1.5243164062499999
1.42119140625
1.3978271484375
1.5017578125
1.490478515625
1.5001464843749999
1.5573486328125
1.5887695312499999
1.67578125
1.6234130859375
1.5791015625
1.5726562499999999
1.5404296874999999
1.5678222656249998
1.5509033203125
1.5557373046874998
1.5380126953125
1.5347900390625
1.5347900390625
1.5243164062499999
1.5202880859374999
1.5275390624999998
1.5428466796875
1.6951171875
1.561376953125
1.5565429687499999
1.5726562499999999
1.5323730468749999
1.52109375
1.4542236328125
1.448583984375
1.4477783203124999
1.4735595703125
1.4896728515625
1.5090087890625
1.5009521484375
1.522705078125
1.5146484375
1.5186767578125
1.5202880859374999
1.5444580078124999
1.5235107421874998
1.51787109375
1.5251220703125
1.4123291015625
1.5122314453124999
1.49853515625
1.5315673828124998
1.546875
1.5645996093749999
1.67900390625
1.6620849609375
1.5927978515624999
1.5799072265624998
1.5565429687499999
1.5686279296874999
1.561376953125
1.5396240234374998
1.5565429687499999
1.5194824218749998
1.525927734375
1.5186767578125
1.53720703125
1.5355957031249998
1.5412353515625
1.7015624999999999
1.587158203125
1.561376953125
1.5541259765625
1.5267333984375
1.5090087890625
1.4518066406249999
1.4308593749999998
1.442138671875
1.4526123046875
1.47275390625
1.5194824218749998
1.5025634765625
1.5323730468749999
1.533984375
1.5347900390625
1.5315673828124998
1.5267333984375
1.5404296874999999
1.5323730468749999
1.5154541015624998
1.3639892578125
1.4767822265625
1.5146484375
1.513037109375
1.545263671875
1.5637939453124998
1.6459716796875
1.6814208984374999
1.5831298828125
1.5726562499999999
1.5662109375
1.5444580078124999
1.5766845703124999
1.5428466796875
1.5565429687499999
1.542041015625
1.533984375
1.5243164062499999
1.53720703125
1.5364013671874999
1.5347900390625
1.6935058593749999
1.58232421875
1.554931640625
1.5460693359375
1.5235107421874998
1.5122314453124999
1.4622802734375
1.43408203125
1.4622802734375
1.482421875
1.4953124999999998
1.48564453125
1.496923828125
1.5009521484375
1.5186767578125
1.542041015625
1.5476806640624998
1.5082031249999999
1.5299560546875
1.542041015625
1.5323730468749999
1.3583496093749998
1.47275390625
1.5122314453124999
1.52109375
1.5146484375
1.5573486328125
1.6475830078125
1.6733642578124999
1.6234130859375
1.58232421875
1.5678222656249998
1.5517089843749998
1.546875
1.5476806640624998
1.5436523437499998
1.546875
1.53076171875
1.513037109375
1.5323730468749999
1.529150390625
1.53076171875
1.6443603515624998
1.6000488281249998
1.5766845703124999
1.5791015625
1.5597656249999998
1.5114257812499998
1.456640625
1.4469726562499998
1.4638916015624999
1.4655029296875
1.4977294921875
1.50498046875
1.4953124999999998
1.5106201171875
1.52109375
1.5396240234374998
1.5218994140625
1.5347900390625
1.5251220703125
1.5202880859374999
1.5251220703125
1.3502929687499998
1.4622802734375
1.509814453125
1.5073974609374998
1.5355957031249998
1.5533203125
1.5944091796875
1.6814208984374999
1.6048828124999999
1.574267578125
1.5541259765625
1.5662109375
1.5645996093749999
1.5807128906249999
1.545263671875
1.542041015625
1.53076171875
1.5364013671874999
1.5428466796875
1.5186767578125
1.5251220703125
1.651611328125
1.622607421875
1.5726562499999999
1.5654052734375
1.561376953125
1.50498046875
1.4477783203124999
1.4735595703125
1.4558349609374999
1.46630859375
1.4864501953125
1.4993408203124998
1.4953124999999998
1.5114257812499998
1.5404296874999999
1.5299560546875
1.5162597656249999
1.5194824218749998
1.538818359375
1.5404296874999999
1.5122314453124999
1.37607421875
1.3825195312499998
1.5162597656249999
1.52109375
1.5299560546875
1.5573486328125
1.5831298828125
1.6959228515625
1.62744140625
1.5911865234375
1.5645996093749999
1.5662109375
1.5597656249999998
1.5412353515625
1.5436523437499998
1.5726562499999999
1.53720703125
1.5146484375
1.5323730468749999
1.5323730468749999
1.5460693359375
1.545263671875
1.6314697265625
1.5597656249999998
1.5509033203125
1.5404296874999999
1.5033691406249998
1.5001464843749999
1.4510009765624998
1.4364990234375
1.442138671875
1.4945068359375
1.4977294921875
1.493701171875
1.5146484375
1.5194824218749998
1.53720703125
1.561376953125
1.5645996093749999
1.5154541015624998
1.5364013671874999
1.49853515625
1.3865478515624998
1.4139404296875
1.4928955078125
1.4912841796874998
1.5315673828124998
1.5605712890624999
1.5863525390625
1.6959228515625
1.6234130859375
1.5944091796875
1.585546875
1.5597656249999998
1.5670166015625
1.5315673828124998
1.5243164062499999
1.5476806640624998
1.55009765625
1.529150390625
1.545263671875
1.5235107421874998
1.5331787109375
1.5621826171875
1.6846435546874998
1.5484863281249999
1.574267578125
1.5355957031249998
1.5122314453124999
1.5251220703125
1.4469726562499998
1.4437499999999999
1.4671142578124998
1.5033691406249998
1.4848388671875
1.48564453125
1.5025634765625
1.5364013671874999
1.5380126953125
1.5194824218749998
1.5090087890625
1.5138427734375
1.529150390625
1.52109375
1.5090087890625
1.3962158203125
1.50498046875
1.5090087890625
1.529150390625
1.5637939453124998
1.5670166015625
1.6250244140624999
1.6435546875
1.603271484375
1.5670166015625
1.5670166015625
1.56943359375
1.5718505859374998
1.5275390624999998
1.529150390625
1.5484863281249999
1.5364013671874999
1.5476806640624998
1.5444580078124999
1.5275390624999998
1.5323730468749999
1.6717529296875
1.5766845703124999
1.56298828125
1.5404296874999999
1.5299560546875
1.5041748046874999
1.4389160156249998
1.4526123046875
1.448583984375
1.496923828125
1.513037109375
1.5073974609374998
1.4920898437499999
1.5082031249999999
1.53076171875
1.5275390624999998
1.5315673828124998
1.5025634765625
1.51787109375
1.5162597656249999
1.496923828125
1.351904296875
1.5146484375
1.5146484375
1.513037109375
1.5380126953125
1.5597656249999998
1.6532226562499999
1.6532226562499999
1.577490234375
1.5839355468749998
1.574267578125
1.5605712890624999
1.5686279296874999
1.5726562499999999
1.525927734375
1.5355957031249998
1.51787109375
1.5509033203125
1.5267333984375
1.53720703125
1.5355957031249998
1.6927001953124998
1.585546875
1.5621826171875
1.5645996093749999
1.533984375
1.5017578125
1.4445556640625
1.4276367187499999
1.4630859374999998
1.4759765624999999
1.49853515625
1.48564453125
1.5186767578125
1.513037109375
1.5541259765625
1.5323730468749999
1.53076171875
1.5323730468749999
1.5412353515625
1.5331787109375
1.490478515625
1.348681640625
1.4606689453125
1.5194824218749998
1.4977294921875
1.5275390624999998
1.5662109375
1.6612792968749999
1.6846435546874998
1.6121337890624998
1.577490234375
1.5509033203125
1.561376953125
1.558154296875
1.5517089843749998
1.56298828125
1.5364013671874999
1.53720703125
1.5347900390625
1.5428466796875
1.538818359375
1.5476806640624998
1.67578125
1.585546875
1.5678222656249998
1.5573486328125
1.53720703125
1.5025634765625
1.4711425781249998
1.4437499999999999
1.474365234375
1.464697265625
1.4920898437499999
1.5009521484375
1.52109375
1.5154541015624998
1.53076171875
1.5186767578125
1.5122314453124999
1.5412353515625
1.52109375
1.5283447265624999
1.5460693359375
1.3607666015625
1.4864501953125
1.5106201171875
1.4993408203124998
1.5355957031249998
1.5637939453124998
1.5992431640625
1.658056640625
1.6282470703124998
1.5911865234375
1.5791015625
1.5525146484374999
1.561376953125
1.538818359375
1.55009765625
1.5380126953125
1.5436523437499998
1.5364013671874999
1.529150390625
1.53076171875
1.5331787109375
1.6717529296875
1.6234130859375
1.5807128906249999
1.558154296875
1.533984375
1.5073974609374998
1.4872558593749998
1.4469726562499998
1.456640625
1.461474609375
1.4606689453125
1.4953124999999998
1.5001464843749999
1.53720703125
1.5251220703125
1.5186767578125
1.5299560546875
1.5202880859374999
1.5267333984375
1.5517089843749998
1.52109375
1.3801025390625
1.4300537109375
1.5041748046874999
1.5186767578125
1.5194824218749998
1.5726562499999999
1.6008544921874999
1.6927001953124998
1.6322753906249998
1.5686279296874999
1.5533203125
1.5484863281249999
1.5637939453124998
1.5323730468749999
1.542041015625
1.542041015625
1.5355957031249998
1.542041015625
1.5364013671874999
1.5533203125
1.525927734375
1.5605712890624999
1.6459716796875
1.56298828125
1.5726562499999999
1.5509033203125
1.5283447265624999
1.5033691406249998
1.448583984375
1.4437499999999999
1.4703369140625
1.4872558593749998
1.5090087890625
1.5170654296875
1.5082031249999999
1.5025634765625
1.5162597656249999
1.5235107421874998
1.525927734375
1.5331787109375
1.53076171875
1.5355957031249998
1.3752685546874999
1.4074951171874999
1.5162597656249999
1.5122314453124999
1.5186767578125
1.55009765625
1.5573486328125
1.6765869140624998
1.641943359375
1.593603515625
1.5839355468749998
1.5444580078124999
1.545263671875
1.5444580078124999
1.5533203125
1.55009765625
1.542041015625
1.5509033203125
1.5355957031249998
1.5009521484375
1.525927734375
1.5645996093749999
1.687060546875
1.5718505859374998
1.5734619140625
1.5484863281249999
1.5275390624999998
1.4671142578124998
1.456640625
1.4348876953124998
1.46630859375
1.4791992187499998
1.4759765624999999
1.5162597656249999
1.4928955078125
1.5170654296875
1.529150390625
1.525927734375
1.5202880859374999
1.5138427734375
1.542041015625
1.5476806640624998
1.496923828125
1.4034667968749999
1.490478515625
1.493701171875
1.5170654296875
1.5758789062499998
1.5863525390625
1.674169921875
1.6475830078125
1.58232421875
1.5726562499999999
1.5662109375
1.55009765625
1.525927734375
1.5460693359375
1.53076171875
1.5404296874999999
1.554931640625
1.542041015625
1.5492919921875
1.5428466796875
1.5654052734375
1.683837890625
1.5887695312499999
1.5541259765625
1.545263671875
1.5428466796875
1.5033691406249998
1.4445556640625
1.4413330078125
1.4590576171874998
1.5025634765625
1.4783935546875
1.496923828125
1.5073974609374998
1.509814453125
1.5138427734375
1.5154541015624998
1.5057861328125
1.533984375
1.4993408203124998
1.5380126953125
1.5315673828124998
1.3623779296874998
1.5017578125
1.52109375
1.53076171875
1.5299560546875
1.5654052734375
1.654833984375
