1.5106201171875
1.5146484375
1.5114257812499998
1.538818359375
1.5380126953125
1.5847412109374999
1.5637939453124998
1.5565429687499999
1.55009765625
1.5428466796875
1.5533203125
1.5347900390625
1.5766845703124999
1.5436523437499998
1.542041015625
1.533984375
1.5492919921875
1.51787109375
1.529150390625
1.554931640625
1.619384765625
1.5734619140625
1.55009765625
1.5444580078124999
1.5283447265624999
1.53720703125
1.5202880859374999
1.4888671875
1.5033691406249998
1.506591796875
1.5041748046874999
1.4920898437499999
1.5283447265624999
1.5186767578125
1.5170654296875
1.5347900390625
1.5170654296875
1.5243164062499999
1.52109375
1.5146484375
1.493701171875
1.46953125
1.5162597656249999
1.5186767578125
1.49853515625
1.5154541015624998
1.5428466796875
1.5895751953125
1.5879638671874998
1.5678222656249998
1.5573486328125
1.5509033203125
1.5645996093749999
1.538818359375
1.542041015625
1.5436523437499998
1.533984375
1.5428466796875
1.5404296874999999
1.5323730468749999
1.538818359375
1.5436523437499998
1.6177734375
1.5605712890624999
1.5589599609375
1.5347900390625
1.533984375
1.5283447265624999
1.496923828125
1.4671142578124998
1.4880615234374999
1.4928955078125
1.5114257812499998
1.5283447265624999
1.529150390625
1.52109375
1.525927734375
1.52109375
1.52109375
1.513037109375
1.53076171875
1.5436523437499998
1.53076171875
1.4622802734375
1.493701171875
1.5082031249999999
1.5154541015624998
1.533984375
1.5347900390625
1.5984375
1.5815185546875
1.58232421875
1.5597656249999998
1.5315673828124998
1.5525146484374999
1.5541259765625
1.5315673828124998
1.5267333984375
1.5492919921875
1.5347900390625
1.5235107421874998
1.51787109375
1.5283447265624999
1.542041015625
1.6089111328124999
1.574267578125
1.546875
1.5605712890624999
1.5218994140625
1.533984375
1.53076171875
1.5082031249999999
1.4751708984374998
1.4848388671875
1.4872558593749998
1.50498046875
1.5106201171875
1.53720703125
1.5218994140625
1.5275390624999998
1.4953124999999998
1.525927734375
1.533984375
1.53720703125
1.525927734375
1.456640625
1.4977294921875
1.5162597656249999
1.5218994140625
1.5267333984375
1.5347900390625
1.5766845703124999
1.5919921874999998
1.5533203125
1.5621826171875
1.5251220703125
1.5637939453124998
1.571044921875
1.5492919921875
1.5476806640624998
1.5492919921875
1.5275390624999998
1.554931640625
1.51787109375
1.5428466796875
1.52109375
1.60166015625
1.5702392578125
1.538818359375
1.546875
1.545263671875
1.5315673828124998
1.50498046875
1.5009521484375
1.4920898437499999
1.4993408203124998
1.5315673828124998
1.5106201171875
1.5138427734375
1.509814453125
1.5033691406249998
1.5283447265624999
1.529150390625
1.546875
1.5364013671874999
1.533984375
1.5347900390625
1.4526123046875
1.4864501953125
1.5057861328125
1.5090087890625
1.5347900390625
1.546875
1.5678222656249998
1.5791015625
1.554931640625
1.571044921875
1.5428466796875
1.5476806640624998
1.5533203125
1.5476806640624998
1.5460693359375
1.5492919921875
1.5404296874999999
1.5275390624999998
1.5428466796875
1.525927734375
1.52109375
1.5637939453124998
1.585546875
1.5815185546875
1.5541259765625
1.53076171875
1.5412353515625
1.5154541015624998
1.4928955078125
1.490478515625
1.496923828125
1.5146484375
1.5090087890625
1.5154541015624998
1.5235107421874998
1.53076171875
1.5436523437499998
1.525927734375
1.5355957031249998
1.5162597656249999
1.5315673828124998
1.5235107421874998
1.4276367187499999
1.4832275390624998
1.5323730468749999
1.5041748046874999
1.509814453125
1.5444580078124999
1.5492919921875
1.6056884765625
1.5670166015625
1.561376953125
1.5678222656249998
1.5492919921875
1.5380126953125
1.5347900390625
1.53720703125
1.5380126953125
1.5154541015624998
1.5444580078124999
1.5412353515625
1.5380126953125
1.5355957031249998
1.5927978515624999
1.5968261718749999
1.558154296875
1.5541259765625
1.545263671875
1.525927734375
1.5017578125
1.493701171875
1.5194824218749998
1.4840332031249999
1.5154541015624998
1.513037109375
1.5090087890625
1.529150390625
1.525927734375
1.51787109375
1.5073974609374998
1.525927734375
1.5186767578125
1.53076171875
1.525927734375
1.46630859375
1.4872558593749998
1.5106201171875
1.4920898437499999
1.5243164062499999
1.5412353515625
1.5589599609375
1.593603515625
1.5718505859374998
1.5541259765625
1.5476806640624998
1.5436523437499998
1.545263671875
1.53720703125
1.5428466796875
1.53076171875
1.5218994140625
1.554931640625
1.546875
1.5428466796875
1.5355957031249998
1.53720703125
1.5791015625
1.5533203125
1.554931640625
1.5557373046874998
1.5412353515625
1.5186767578125
1.5090087890625
1.5025634765625
1.48564453125
1.5114257812499998
1.5162597656249999
1.5146484375
1.52109375
1.5323730468749999
1.525927734375
1.5194824218749998
1.5041748046874999
1.51787109375
1.5412353515625
1.5347900390625
1.4703369140625
1.4630859374999998
1.5017578125
1.5154541015624998
1.509814453125
1.525927734375
1.5509033203125
1.5968261718749999
1.5678222656249998
1.577490234375
1.5573486328125
1.56298828125
1.5492919921875
1.5299560546875
1.5315673828124998
1.55009765625
1.533984375
1.529150390625
1.5476806640624998
1.5218994140625
1.5517089843749998
1.5573486328125
1.619384765625
1.5492919921875
1.545263671875
1.5517089843749998
1.5355957031249998
1.5106201171875
1.4977294921875
1.4848388671875
1.5106201171875
1.5235107421874998
1.5114257812499998
1.5251220703125
1.52109375
1.5235107421874998
1.5194824218749998
1.5331787109375
1.5082031249999999
1.5267333984375
1.5202880859374999
1.53720703125
1.4961181640624999
1.4606689453125
1.5162597656249999
1.4993408203124998
1.5218994140625
1.5364013671874999
1.5412353515625
1.5718505859374998
1.5968261718749999
1.5645996093749999
1.5396240234374998
1.5331787109375
1.5476806640624998
1.5476806640624998
1.53720703125
1.5557373046874998
1.5331787109375
1.5621826171875
1.5380126953125
1.5299560546875
1.5436523437499998
1.53076171875
1.606494140625
1.5718505859374998
1.546875
1.5492919921875
1.5484863281249999
1.506591796875
1.4912841796874998
1.5090087890625
1.5017578125
1.5017578125
1.5033691406249998
1.5017578125
1.5146484375
1.51787109375
1.522705078125
1.5146484375
1.538818359375
1.5194824218749998
1.5090087890625
1.5138427734375
1.5033691406249998
1.461474609375
1.5154541015624998
1.5186767578125
1.5251220703125
1.5267333984375
1.5380126953125
1.59521484375
1.5911865234375
1.5645996093749999
1.5637939453124998
1.5589599609375
1.5275390624999998
1.5412353515625
1.5428466796875
1.53720703125
1.538818359375
1.5380126953125
1.5509033203125
1.5347900390625
1.5404296874999999
1.5492919921875
1.6024658203125
1.5637939453124998
1.5533203125
1.5573486328125
1.5243164062499999
1.5275390624999998
1.5090087890625
1.4791992187499998
1.480810546875
1.5057861328125
1.5057861328125
1.5186767578125
1.52109375
1.5154541015624998
1.509814453125
1.5243164062499999
1.53076171875
1.5412353515625
1.5315673828124998
1.5194824218749998
1.5057861328125
1.442138671875
1.513037109375
1.522705078125
1.513037109375
1.525927734375
1.5186767578125
1.5605712890624999
1.593603515625
1.5686279296874999
1.5670166015625
1.5621826171875
1.5525146484374999
1.5492919921875
1.53076171875
1.5621826171875
1.5331787109375
1.5404296874999999
1.5436523437499998
1.5315673828124998
1.5347900390625
1.5396240234374998
1.611328125
1.5726562499999999
1.5541259765625
1.5589599609375
1.5460693359375
1.5194824218749998
1.4993408203124998
1.5090087890625
1.4864501953125
1.5082031249999999
1.496923828125
1.5380126953125
1.4961181640624999
1.5202880859374999
1.5170654296875
1.522705078125
1.525927734375
1.5315673828124998
1.53720703125
1.5033691406249998
1.5146484375
1.4574462890625
1.5041748046874999
1.5170654296875
1.5073974609374998
1.52109375
1.5347900390625
1.5517089843749998
1.606494140625
1.56943359375
1.5662109375
1.5605712890624999
1.558154296875
1.5541259765625
1.529150390625
1.5396240234374998
1.5444580078124999
1.546875
1.5355957031249998
1.5509033203125
1.5251220703125
1.522705078125
1.593603515625
1.5863525390625
1.558154296875
1.5662109375
1.5194824218749998
1.5073974609374998
1.5073974609374998
1.5001464843749999
1.5001464843749999
1.5025634765625
1.5017578125
1.509814453125
1.5057861328125
1.53076171875
1.5218994140625
1.5033691406249998
1.525927734375
1.53720703125
1.5364013671874999
1.5114257812499998
1.5428466796875
1.4630859374999998
1.4711425781249998
1.5146484375
1.496923828125
1.5122314453124999
1.5525146484374999
1.56298828125
1.6072998046875
1.5766845703124999
1.5597656249999998
1.5404296874999999
1.55009765625
1.5412353515625
1.5355957031249998
1.5525146484374999
1.5476806640624998
1.5283447265624999
1.53720703125
1.52109375
1.5436523437499998
1.5517089843749998
1.5670166015625
1.5678222656249998
1.538818359375
1.5557373046874998
1.5355957031249998
1.5323730468749999
1.529150390625
1.5033691406249998
1.490478515625
1.4945068359375
1.5025634765625
1.5082031249999999
1.5025634765625
1.529150390625
1.50498046875
1.5202880859374999
1.5106201171875
1.5251220703125
1.5299560546875
1.538818359375
1.5492919921875
1.461474609375
1.4759765624999999
1.48564453125
1.506591796875
1.5138427734375
1.522705078125
1.5525146484374999
1.603271484375
1.5686279296874999
1.5637939453124998
1.5637939453124998
1.533984375
1.538818359375
1.5347900390625
1.525927734375
1.546875
1.5396240234374998
1.5436523437499998
1.5533203125
1.5557373046874998
1.5299560546875
1.5718505859374998
1.5799072265624998
1.5766845703124999
1.5476806640624998
1.5509033203125
1.5251220703125
1.5146484375
1.4993408203124998
1.4832275390624998
1.5090087890625
1.5162597656249999
1.5170654296875
1.4896728515625
1.5146484375
1.5299560546875
1.5162597656249999
1.5194824218749998
1.5347900390625
1.53076171875
1.5218994140625
1.5299560546875
1.496923828125
1.4735595703125
1.5138427734375
1.5138427734375
1.5235107421874998
1.538818359375
1.5364013671874999
1.5984375
1.5436523437499998
1.5597656249999998
1.5460693359375
1.5396240234374998
1.5509033203125
1.53720703125
1.5541259765625
1.5323730468749999
1.5597656249999998
1.5364013671874999
1.5396240234374998
1.5509033203125
1.5404296874999999
1.5670166015625
1.593603515625
1.558154296875
1.5573486328125
1.5364013671874999
1.5138427734375
1.5299560546875
1.5009521484375
1.509814453125
1.4767822265625
1.513037109375
1.5122314453124999
1.5082031249999999
1.52109375
1.5283447265624999
1.5517089843749998
1.5436523437499998
1.52109375
1.5162597656249999
1.542041015625
1.5380126953125
1.4711425781249998
1.4606689453125
1.5017578125
1.5001464843749999
1.5025634765625
1.5364013671874999
1.5476806640624998
1.5968261718749999
1.5911865234375
1.5484863281249999
1.56943359375
1.542041015625
1.5436523437499998
1.5323730468749999
1.5323730468749999
1.546875
1.5315673828124998
1.5347900390625
1.529150390625
1.542041015625
1.5355957031249998
1.5484863281249999
1.6024658203125
1.5597656249999998
1.5557373046874998
1.5436523437499998
1.5412353515625
1.53720703125
1.5154541015624998
1.4953124999999998
1.5041748046874999
1.4896728515625
1.4896728515625
1.5138427734375
1.5057861328125
1.5106201171875
1.5186767578125
1.513037109375
1.5315673828124998
1.5428466796875
1.5251220703125
1.5315673828124998
1.5202880859374999
1.4751708984374998
1.509814453125
1.5041748046874999
1.513037109375
1.5251220703125
1.5380126953125
1.5944091796875
1.585546875
1.554931640625
1.5573486328125
1.5533203125
1.5484863281249999
1.5637939453124998
1.5267333984375
1.5364013671874999
1.529150390625
1.5484863281249999
1.5444580078124999
1.5283447265624999
1.5243164062499999
1.5364013671874999
1.60166015625
1.587158203125
1.5573486328125
1.5645996093749999
1.5476806640624998
1.5154541015624998
1.5041748046874999
1.49853515625
1.48564453125
1.4912841796874998
1.5025634765625
1.49853515625
1.5331787109375
1.5162597656249999
1.5283447265624999
1.5194824218749998
1.5194824218749998
1.5323730468749999
1.5315673828124998
1.55009765625
1.5460693359375
1.44052734375
1.4864501953125
1.513037109375
1.5122314453124999
1.5315673828124998
1.5364013671874999
1.5678222656249998
1.5919921874999998
1.5533203125
1.5686279296874999
1.5597656249999998
1.5428466796875
1.53720703125
1.546875
1.5686279296874999
1.5517089843749998
1.542041015625
1.5436523437499998
1.53720703125
1.5162597656249999
1.533984375
1.5976318359375
1.56943359375
1.5589599609375
1.5670166015625
1.522705078125
1.52109375
1.5033691406249998
1.48564453125
1.5025634765625
1.513037109375
1.4912841796874998
1.50498046875
1.513037109375
1.5525146484374999
1.5146484375
1.5194824218749998
1.51787109375
1.5202880859374999
1.5267333984375
1.53720703125
1.5170654296875
1.4364990234375
1.4920898437499999
1.5170654296875
1.5154541015624998
1.52109375
1.5380126953125
1.56298828125
1.5927978515624999
1.58232421875
1.558154296875
1.5533203125
1.5484863281249999
1.5444580078124999
1.5396240234374998
1.5347900390625
1.5323730468749999
1.5380126953125
1.5404296874999999
1.5404296874999999
1.5444580078124999
1.529150390625
1.590380859375
1.5782958984375
1.56298828125
1.5404296874999999
1.5517089843749998
1.53076171875
1.5001464843749999
1.490478515625
1.5033691406249998
1.4872558593749998
1.482421875
1.522705078125
1.52109375
1.5275390624999998
1.5484863281249999
1.5194824218749998
1.52109375
1.533984375
1.5299560546875
1.5299560546875
1.5299560546875
1.4461669921875
1.482421875
1.5106201171875
1.5218994140625
1.5138427734375
1.538818359375
1.5605712890624999
1.5734619140625
1.5726562499999999
1.5621826171875
1.5565429687499999
1.5364013671874999
1.5509033203125
1.5509033203125
1.545263671875
1.529150390625
1.5251220703125
1.5412353515625
1.5323730468749999
1.5492919921875
1.522705078125
1.6072998046875
1.60166015625
1.561376953125
1.53720703125
1.5492919921875
1.5275390624999998
1.4977294921875
1.493701171875
1.5033691406249998
1.5001464843749999
1.5017578125
1.5235107421874998
1.522705078125
1.5194824218749998
1.5114257812499998
1.53076171875
1.5154541015624998
1.5251220703125
1.513037109375
1.5267333984375
1.5380126953125
1.4510009765624998
1.4711425781249998
1.5033691406249998
1.5275390624999998
1.5146484375
1.5396240234374998
1.56298828125
1.6040771484374998
1.5654052734375
1.5412353515625
1.5662109375
1.5670166015625
1.5517089843749998
1.542041015625
1.5396240234374998
1.538818359375
1.53076171875
1.5283447265624999
1.5484863281249999
1.542041015625
1.53720703125
1.5557373046874998
1.5919921874999998
1.5645996093749999
1.5396240234374998
1.5484863281249999
1.5251220703125
1.5194824218749998
1.4711425781249998
1.493701171875
1.5170654296875
1.4961181640624999
1.5283447265624999
1.5243164062499999
1.522705078125
1.5146484375
1.53720703125
1.522705078125
1.5202880859374999
1.5186767578125
1.5218994140625
1.5283447265624999
1.46953125
1.464697265625
1.5267333984375
1.5138427734375
1.5202880859374999
1.5380126953125
1.56298828125
1.6081054687499998
1.5726562499999999
1.5517089843749998
1.5517089843749998
1.5597656249999998
1.5412353515625
1.5573486328125
1.5476806640624998
1.5347900390625
1.5460693359375
1.5404296874999999
1.53076171875
1.5202880859374999
1.53720703125
1.5637939453124998
1.6000488281249998
1.525927734375
1.5323730468749999
1.5299560546875
1.5396240234374998
1.5404296874999999
1.5186767578125
1.47275390625
1.493701171875
1.513037109375
1.5122314453124999
1.5170654296875
1.5082031249999999
1.538818359375
1.5170654296875
1.53076171875
1.513037109375
1.5251220703125
1.538818359375
1.538818359375
1.52109375
1.456640625
1.496923828125
1.4993408203124998
1.529150390625
1.5364013671874999
1.5380126953125
1.5847412109374999
1.5911865234375
1.5686279296874999
1.5565429687499999
1.5492919921875
1.5380126953125
1.5315673828124998
1.5396240234374998
1.538818359375
1.542041015625
1.558154296875
1.5460693359375
1.538818359375
1.5355957031249998
1.5670166015625
1.593603515625
1.5662109375
1.5347900390625
1.542041015625
1.5573486328125
1.5347900390625
1.5194824218749998
1.4912841796874998
1.4767822265625
1.5009521484375
1.51787109375
1.51787109375
1.5154541015624998
1.5162597656249999
1.52109375
1.5355957031249998
1.5275390624999998
1.50498046875
1.529150390625
1.5154541015624998
1.5057861328125
1.4679199218749999
1.5202880859374999
1.4977294921875
1.5186767578125
1.545263671875
1.529150390625
1.6040771484374998
1.5750732421875
1.55009765625
1.5597656249999998
1.5525146484374999
1.5404296874999999
1.5509033203125
1.538818359375
1.5323730468749999
1.5380126953125
1.525927734375
1.5251220703125
1.5412353515625
1.5315673828124998
1.5315673828124998
1.5992431640625
1.5492919921875
1.5734619140625
1.5492919921875
1.5299560546875
1.5251220703125
1.493701171875
1.493701171875
1.5146484375
1.493701171875
1.5017578125
1.5025634765625
1.5275390624999998
1.5218994140625
1.5202880859374999
1.53076171875
1.5323730468749999
1.545263671875
1.5235107421874998
1.51787109375
1.4928955078125
1.4550292968749998
1.4880615234374999
1.5033691406249998
1.5162597656249999
1.53720703125
1.5355957031249998
1.5976318359375
1.6008544921874999
1.574267578125
1.5557373046874998
1.5565429687499999
1.561376953125
1.5597656249999998
1.53720703125
1.5460693359375
1.545263671875
1.5380126953125
1.5589599609375
1.5170654296875
1.5218994140625
1.5315673828124998
1.5984375
1.5662109375
1.546875
1.5484863281249999
1.5557373046874998
1.513037109375
1.49853515625
1.4928955078125
1.496923828125
1.5218994140625
1.5033691406249998
1.51787109375
1.5170654296875
1.5243164062499999
1.5267333984375
1.5106201171875
1.5243164062499999
1.5275390624999998
1.5315673828124998
1.5299560546875
1.533984375
1.4767822265625
1.5033691406249998
1.5202880859374999
1.5138427734375
1.509814453125
1.5355957031249998
1.5839355468749998
1.5839355468749998
1.5509033203125
1.5637939453124998
1.5509033203125
1.5444580078124999
1.5605712890624999
1.5621826171875
1.554931640625
1.5299560546875
1.5194824218749998
1.5186767578125
1.525927734375
1.5645996093749999
1.5444580078124999
1.6072998046875
1.5815185546875
1.5573486328125
1.55009765625
1.5436523437499998
1.529150390625
1.4993408203124998
1.5025634765625
1.4864501953125
1.5082031249999999
1.4928955078125
1.4880615234374999
1.5202880859374999
1.5114257812499998
1.5154541015624998
1.5170654296875
1.525927734375
1.5484863281249999
1.522705078125
1.5331787109375
1.5444580078124999
1.448583984375
1.47275390625
1.50498046875
1.5017578125
1.5162597656249999
1.546875
1.56298828125
1.6040771484374998
1.5662109375
1.5533203125
1.5476806640624998
1.5565429687499999
1.5525146484374999
1.542041015625
1.546875
1.5347900390625
1.546875
1.5436523437499998
1.5428466796875
1.5323730468749999
1.53720703125
1.5847412109374999
1.5726562499999999
1.5565429687499999
1.546875
1.5517089843749998
1.522705078125
1.5082031249999999
1.4920898437499999
1.5073974609374998
1.509814453125
1.5001464843749999
1.5082031249999999
1.5347900390625
1.50498046875
1.5331787109375
1.529150390625
1.5017578125
1.542041015625
1.533984375
1.5122314453124999
1.5355957031249998
1.4751708984374998
1.5033691406249998
1.5082031249999999
1.4961181640624999
1.513037109375
1.5347900390625
1.5412353515625
1.6137451171875
1.5984375
1.577490234375
1.5154541015624998
1.5331787109375
1.545263671875
1.5396240234374998
1.533984375
1.5347900390625
1.5170654296875
1.5299560546875
1.5662109375
1.5380126953125
1.5533203125
1.59521484375
1.5758789062499998
1.5645996093749999
1.5605712890624999
1.5444580078124999
1.542041015625
1.5073974609374998
1.4993408203124998
1.4977294921875
1.4920898437499999
1.5033691406249998
1.5082031249999999
1.506591796875
1.5090087890625
1.513037109375
1.5251220703125
1.5235107421874998
1.5323730468749999
1.5243164062499999
1.538818359375
1.5404296874999999
1.477587890625
1.5082031249999999
1.5218994140625
1.5041748046874999
1.5218994140625
1.5194824218749998
1.5380126953125
1.5992431640625
1.5750732421875
1.55009765625
1.5589599609375
1.5484863281249999
1.5323730468749999
1.545263671875
1.5380126953125
1.5275390624999998
1.529150390625
1.5396240234374998
1.5202880859374999
1.5436523437499998
1.5484863281249999
1.5718505859374998
1.5726562499999999
1.5525146484374999
1.56298828125
1.5396240234374998
1.5323730468749999
1.5082031249999999
1.4993408203124998
1.5138427734375
1.506591796875
1.5396240234374998
1.5073974609374998
1.5146484375
1.4945068359375
1.5146484375
1.5082031249999999
1.513037109375
1.5218994140625
1.538818359375
1.542041015625
1.5218994140625
1.4655029296875
1.46630859375
1.5033691406249998
1.5323730468749999
1.5364013671874999
1.5412353515625
1.5460693359375
1.59521484375
1.5984375
1.558154296875
1.5428466796875
1.5436523437499998
1.5484863281249999
1.5428466796875
1.5283447265624999
1.5412353515625
1.5484863281249999
1.51787109375
1.542041015625
1.5662109375
1.5347900390625
1.5428466796875
1.5911865234375
1.5364013671874999
1.5509033203125
1.5347900390625
1.5170654296875
1.51787109375
1.4912841796874998
1.506591796875
1.5194824218749998
1.525927734375
1.5106201171875
1.5114257812499998
1.522705078125
1.533984375
1.5194824218749998
1.5146484375
1.522705078125
1.5299560546875
1.5509033203125
1.545263671875
1.5194824218749998
1.4461669921875
1.5025634765625
1.5082031249999999
1.5057861328125
1.5057861328125
1.52109375
1.59521484375
1.6008544921874999
1.5791015625
1.5678222656249998
1.5686279296874999
1.5436523437499998
1.5573486328125
1.56298828125
1.5444580078124999
1.546875
1.5492919921875
1.5218994140625
1.51787109375
1.529150390625
1.5355957031249998
1.6121337890624998
1.5702392578125
1.5678222656249998
1.5654052734375
1.554931640625
1.4912841796874998
1.4816162109375
1.4800048828124999
1.4953124999999998
1.4912841796874998
1.5073974609374998
1.5106201171875
1.529150390625
1.53720703125
1.5404296874999999
1.5162597656249999
1.5082031249999999
1.5251220703125
1.52109375
1.50498046875
1.5114257812499998
1.4477783203124999
1.51787109375
1.52109375
1.53720703125
1.545263671875
1.5396240234374998
1.5686279296874999
1.5815185546875
1.561376953125
1.5533203125
1.554931640625
1.5347900390625
1.5364013671874999
1.5275390624999998
1.5460693359375
1.5404296874999999
1.5380126953125
1.5605712890624999
1.5517089843749998
1.542041015625
1.5323730468749999
1.6056884765625
1.5444580078124999
1.5114257812499998
1.546875
1.5517089843749998
1.52109375
1.5041748046874999
1.4953124999999998
1.4888671875
1.5243164062499999
1.5364013671874999
1.522705078125
1.5194824218749998
1.51787109375
1.5218994140625
1.5025634765625
1.5186767578125
1.5243164062499999
1.522705078125
1.533984375
1.5251220703125
1.4526123046875
1.5057861328125
1.4767822265625
1.5017578125
1.4961181640624999
1.525927734375
1.5726562499999999
1.5992431640625
1.5782958984375
1.5541259765625
1.5476806640624998
1.5484863281249999
1.558154296875
1.585546875
1.5766845703124999
1.5573486328125
1.5597656249999998
1.5484863281249999
1.5347900390625
1.522705078125
1.5436523437499998
1.609716796875
1.5645996093749999
1.5444580078124999
1.5436523437499998
1.5235107421874998
1.52109375
1.4953124999999998
1.4840332031249999
1.4848388671875
1.4977294921875
1.53076171875
1.5347900390625
1.51787109375
1.5476806640624998
1.5565429687499999
1.53076171875
1.5412353515625
1.52109375
1.5162597656249999
1.52109375
1.506591796875
1.3994384765624999
1.4638916015624999
1.4993408203124998
1.5154541015624998
1.53076171875
1.525927734375
1.5718505859374998
1.5968261718749999
1.574267578125
1.5686279296874999
1.546875
1.5396240234374998
1.546875
1.5275390624999998
1.590380859375
1.56943359375
1.538818359375
1.5202880859374999
1.5283447265624999
1.5525146484374999
1.5484863281249999
1.62744140625
1.5968261718749999
1.5670166015625
1.5678222656249998
1.5509033203125
1.538818359375
1.4953124999999998
1.4896728515625
1.458251953125
1.4872558593749998
1.5033691406249998
1.5017578125
1.50498046875
1.5009521484375
1.5009521484375
1.5170654296875
1.546875
1.522705078125
1.5235107421874998
1.542041015625
1.5364013671874999
1.4437499999999999
1.4735595703125
1.50498046875
1.5057861328125
1.493701171875
1.50498046875
1.5484863281249999
1.62744140625
1.60166015625
1.558154296875
1.5565429687499999
1.5396240234374998
1.5863525390625
1.5782958984375
1.558154296875
1.5734619140625
1.5702392578125
1.546875
1.51787109375
1.522705078125
1.5444580078124999
1.5791015625
1.6048828124999999
1.56298828125
1.5589599609375
1.5323730468749999
1.5404296874999999
1.5404296874999999
1.4606689453125
1.4735595703125
1.4832275390624998
1.4953124999999998
1.4864501953125
1.5041748046874999
1.5033691406249998
1.5347900390625
1.4679199218749999
1.50498046875
1.51787109375
1.53720703125
1.5267333984375
1.5073974609374998
1.3897705078125
1.4276367187499999
1.474365234375
1.51787109375
1.5114257812499998
1.5662109375
1.5726562499999999
1.6685302734374998
1.6209960937499999
1.611328125
1.5782958984375
1.5509033203125
1.5597656249999998
1.542041015625
1.5557373046874998
1.545263671875
1.546875
1.5323730468749999
1.561376953125
1.5525146484374999
1.4816162109375
1.6072998046875
1.6846435546874998
1.5605712890624999
1.6024658203125
1.6161621093749998
1.5484863281249999
1.5033691406249998
1.4526123046875
1.4493896484375
1.4284423828125
1.4630859374999998
1.4219970703125
1.4679199218749999
1.4348876953124998
1.4953124999999998
1.5484863281249999
1.56943359375
1.522705078125
1.561376953125
1.5033691406249998
1.5218994140625
1.4445556640625
1.3897705078125
1.5017578125
1.4679199218749999
1.4977294921875
1.5323730468749999
1.5146484375
1.7023681640625
1.66611328125
1.6153564453125
1.654833984375
1.6242187499999998
1.542041015625
1.5396240234374998
1.5968261718749999
1.6588623046875
1.6282470703124998
1.5645996093749999
1.5460693359375
1.4735595703125
1.5476806640624998
1.7507080078125
1.7329833984374998
1.6669189453125
1.635498046875
1.6564453124999998
1.6089111328124999
1.5557373046874998
1.4332763671875
1.4276367187499999
1.3986328124999998
1.4510009765624998
1.4276367187499999
1.48564453125
1.4501953125
1.5299560546875
1.477587890625
1.5436523437499998
1.5057861328125
1.4791992187499998
1.4912841796874998
1.4961181640624999
1.3261230468749998
1.26005859375
1.3631835937499999
1.3430419921874999
1.3704345703124998
1.4348876953124998
1.6105224609375
1.8151611328125
1.7635986328125
1.7023681640625
1.6693359374999999
1.611328125
1.61455078125
1.6161621093749998
1.585546875
1.5911865234375
1.5251220703125
1.554931640625
1.4961181640624999
1.53076171875
1.5799072265624998
1.6048828124999999
1.843359375
1.770849609375
1.6910888671875
1.7184814453125
1.6008544921874999
1.5146484375
1.37607421875
1.2802001953125
1.3784912109374998
1.319677734375
1.3285400390625
1.3833251953124999
1.4413330078125
1.445361328125
1.493701171875
1.561376953125
1.58232421875
1.5919921874999998
1.4920898437499999
1.5984375
1.2334716796875
1.0594482421875
1.1013427734374999
1.2374999999999998
1.340625
1.3301513671874998
1.4308593749999998
2.0044921875
2.1245361328125
2.0391357421875
1.909423828125
1.7595703125
1.6806152343749998
1.71123046875
1.6508056640625
1.5863525390625
1.5831298828125
1.63388671875
1.641943359375
1.6669189453125
1.6894775390624999
1.687060546875
2.43955078125
2.3710693359375
2.3984619140625
2.281640625
2.2711669921874997
1.8908935546874999
1.53720703125
1.1617675781249999
0.9466552734375
0.8225830078124999
0.8451416015625
0.6968994140625
0.594580078125
0.488232421875
0.49951171875
0.597802734375
0.631640625
0.6574218749999999
0.7242919921875
0.765380859375
0.800830078125
0.02900390625
0.02900390625
0.0249755859375
0.0298095703125
0.030615234374999998
0.02900390625
0.259423828125
0.837890625
1.2938964843749998
1.461474609375
1.5839355468749998
1.7442626953125
1.8498046874999998
1.9625976562499998
2.031884765625
2.0625
2.093115234375
2.0665283203125
2.1390380859375
2.1503173828124997
2.1309814453125
2.9624267578124996
3.0309082031249996
3.0325195312499997
3.0301025390625
3.0317138671875
3.0317138671875
2.818212890625
2.3396484374999997
2.070556640625
1.8949218749999999
1.667724609375
1.37607421875
1.2930908203125
1.2012451171875
1.0465576171875
1.0489746093749999
1.0078857421875
0.897509765625
0.9087890624999999
0.9498779296875
0.9313476562499999
0.0314208984375
0.024169921875
0.0314208984375
0.0281982421875
0.02900390625
0.0298095703125
0.31259765624999997
0.9329589843749999
1.2737548828124998
1.445361328125
1.59521484375
1.79501953125
1.8578613281249998
1.90458984375
1.9223144531249998
1.9593749999999999
2.0004638671875
2.023828125
2.0302734375
1.9384277343749998
1.9617919921875
2.719921875
3.027685546875
3.0317138671875
3.0333251953125
3.0317138671875
3.027685546875
2.8447998046875
2.479833984375
2.1140624999999997
1.8151611328125
1.5476806640624998
1.3510986328124999
1.0433349609375
0.942626953125
0.9071777343749999
0.8193603515625
0.8048583984375
0.865283203125
0.9112060546874999
0.9498779296875
1.003857421875
0.21269531249999998
0.0298095703125
0.0298095703125
0.0249755859375
0.0281982421875
0.0298095703125
0.054785156249999994
0.6840087890625
1.248779296875
1.429248046875
1.5122314453124999
1.6572509765624999
1.7692382812499998
1.7490966796874998
1.8167724609375
1.8981445312499998
1.896533203125
1.80791015625
1.9384277343749998
1.9891845703125
1.977099609375
2.6578857421874997
3.021240234375
3.0325195312499997
3.0301025390625
3.0357421875
3.034130859375
3.0317138671875
2.5160888671875
2.0826416015625
1.7595703125
1.4638916015624999
1.3188720703124999
1.155322265625
1.087646484375
1.0014404296875
0.9208740234374999
0.894287109375
1.019970703125
0.95390625
1.0417236328125
0.9861328125
0.3826904296875
0.02900390625
0.027392578124999997
0.02578125
0.033837890625
0.0298095703125
0.023364257812499997
0.6372802734374999
0.942626953125
1.1778808593749999
1.4687255859375
1.6967285156249998
1.770849609375
1.819189453125
1.928759765625
2.0625
2.044775390625
2.0407470703125
1.9988525390624998
1.9956298828124999
2.0971435546875
2.5740966796875
3.0317138671875
3.0317138671875
3.0325195312499997
3.0284912109374997
3.02607421875
3.0309082031249996
2.747314453125
2.437939453125
1.973876953125
1.7901855468749999
1.6443603515624998
1.1915771484375
1.1738525390624999
1.0167480468749999
0.881396484375
0.8274169921875
0.797607421875
0.8999267578125
0.758935546875
0.749267578125
0.1393798828125
0.0346435546875
0.02578125
0.030615234374999998
0.02578125
0.02900390625
0.02578125
0.533349609375
0.9740478515625
1.13115234375
1.3784912109374998
1.4719482421874999
1.6830322265625
1.8006591796875
1.8908935546874999
1.9988525390624998
2.0947265625
2.1116455078125
2.0713623046875
2.0923095703125
2.1164794921875
2.1342041015624997
3.0317138671875
3.0309082031249996
3.0309082031249996
3.0317138671875
3.0446044921874997
3.0333251953125
2.737646484375
2.257470703125
1.9706542968749998
1.6894775390624999
1.429248046875
1.248779296875
1.1150390625
1.023193359375
0.936181640625
0.9232910156249999
0.8958984375
0.8548095703124999
0.839501953125
0.7210693359375
0.19497070312499998
0.0281982421875
0.0314208984375
0.02900390625
0.027392578124999997
0.0314208984375
0.02578125
0.459228515625
0.9853271484374999
1.198828125
1.4848388671875
1.5517089843749998
1.6121337890624998
1.7418457031249999
1.8046875
2.02060546875
1.9867675781249998
1.973876953125
2.0214111328124997
1.9787109374999998
2.102783203125
2.0874755859375
3.0317138671875
3.034130859375
3.0325195312499997
3.0325195312499997
3.0301025390625
3.029296875
2.8270751953124997
2.5201171875
2.0729736328125
1.7861572265624999
1.5428466796875
1.4091064453125
1.0546142578125
0.9418212890625
0.7863281249999999
0.678369140625
0.75087890625
0.7162353515625
0.7242919921875
0.7073730468749999
0.7943847656249999
0.0298095703125
0.027392578124999997
0.03544921875
0.02900390625
0.02900390625
0.0298095703125
0.2537841796875
0.7806884765625
1.1448486328125
1.43408203125
1.622607421875
1.8731689453125
1.9859619140625
2.0560546875
2.038330078125
2.0181884765625
2.0600830078125
1.98515625
2.0504150390625
2.0818359374999997
2.1100341796874997
3.0268798828124996
3.0325195312499997
3.027685546875
3.0268798828124996
3.0325195312499997
3.0317138671875
2.827880859375
2.4234375
2.115673828125
1.8135498046874998
1.5895751953125
1.587158203125
1.3994384765624999
1.203662109375
1.0336669921875
0.9418212890625
0.8854248046875
0.8032470703125
0.752490234375
0.758935546875
0.839501953125
0.0314208984375
0.02900390625
0.0281982421875
0.02900390625
0.0298095703125
0.0281982421875
0.13212890624999998
0.936181640625
1.24072265625
1.5275390624999998
1.7442626953125
1.7909912109375
2.018994140625
2.0947265625
2.0923095703125
2.144677734375
2.2051025390625
2.1599853515625
2.102783203125
1.96904296875
2.031884765625
2.76826171875
3.0301025390625
3.034130859375
3.0325195312499997
3.0309082031249996
3.0325195312499997
2.9745117187499996
2.5595947265624996
2.11728515625
1.6814208984374999
1.456640625
1.1053710937499999
0.8282226562499999
0.9192626953124999
0.816943359375
0.7669921875
0.7637695312499999
0.6082763671875
0.6227783203124999
0.7959960937499999
0.7387939453125
0.0281982421875
0.0298095703125
0.027392578124999997
0.02900390625
0.02900390625
0.02900390625
0.02900390625
0.6187499999999999
1.1190673828125
1.413134765625
1.4461669921875
1.6379150390625
1.9352050781249999
1.9384277343749998
2.012548828125
2.0254394531249997
1.96904296875
2.038330078125
2.1382324218749997
2.0415527343749997
2.10439453125
2.6361328124999996
3.0309082031249996
3.0301025390625
3.0301025390625
3.0333251953125
3.0325195312499997
3.0317138671875
2.51044921875
2.11083984375
1.8788085937499999
1.609716796875
1.2423339843749999
1.055419921875
0.863671875
0.7645751953125
0.6968994140625
0.6018310546875
0.5124023437499999
0.5115966796875
0.6034423828125
0.6090820312499999
0.0281982421875
0.02900390625
0.02578125
0.02900390625
0.0281982421875
0.030615234374999998
0.0298095703125
0.9152343749999999
1.4276367187499999
1.6830322265625
1.8780029296874998
1.977099609375
2.0923095703125
2.1503173828124997
2.2534423828125
2.3082275390625
2.4081298828124997
2.34609375
2.3074218749999997
2.263916015625
2.273583984375
2.8214355468749996
3.027685546875
3.0325195312499997
3.0325195312499997
3.0309082031249996
3.034130859375
3.0325195312499997
2.7674560546875
2.2179931640625
1.783740234375
1.351904296875
1.0812011718749999
0.8000244140624999
0.5422119140625
0.523681640625
0.40605468749999996
0.362548828125
0.3279052734375
0.39316406249999997
0.32871093749999997
0.301318359375
0.018530273437499998
0.033837890625
0.033837890625
0.02900390625
0.027392578124999997
0.0298095703125
0.0281982421875
0.6711181640624999
1.4034667968749999
1.8344970703124999
2.21396484375
2.418603515625
2.5821533203125
2.6643310546874996
2.5483154296875
2.6119628906249996
2.616796875
2.5934326171874997
2.5370361328124997
2.370263671875
2.3694580078125
2.2212158203125
3.0309082031249996
3.0252685546875
3.0325195312499997
3.0325195312499997
3.0301025390625
3.02607421875
2.6876953125
2.1720703125
1.3502929687499998
0.9257080078125
0.5196533203125
0.27231445312499997
0.0217529296875
0.027392578124999997
0.0346435546875
0.026586914062499998
0.02900390625
0.027392578124999997
0.049145507812499996
0.0749267578125
0.12890625
0.033837890625
0.0298095703125
0.0346435546875
0.0281982421875
0.02900390625
0.0322265625
0.02900390625
0.49870605468749996
1.147265625
1.69189453125
2.064111328125
2.34609375
2.41376953125
2.5676513671874996
2.70703125
2.8125732421875
2.8109619140624997
2.8335205078124996
2.8536621093749996
2.8141845703125
2.81015625
3.0301025390625
3.0268798828124996
3.0309082031249996
3.0309082031249996
3.0325195312499997
3.0309082031249996
3.0357421875
2.3001708984375
0.9482666015625
0.20866699218749998
0.0298095703125
0.0298095703125
0.02900390625
0.02900390625
0.030615234374999998
0.0314208984375
0.02900390625
0.0281982421875
0.033032226562499996
0.0298095703125
0.02900390625
0.0281982421875
0.027392578124999997
0.02900390625
0.0281982421875
0.030615234374999998
0.02578125
0.033032226562499996
0.026586914062499998
0.02900390625
0.42136230468749997
1.110205078125
1.6089111328124999
2.2405517578125
2.4709716796875
2.9020019531249996
3.0325195312499997
3.0389648437499996
3.0317138671875
3.0349365234374996
3.0357421875
3.0470214843749996
3.0317138671875
3.0357421875
3.0309082031249996
3.0284912109374997
3.0309082031249996
3.0349365234374996
3.0317138671875
1.5992431640625
0.0217529296875
0.0281982421875
0.0281982421875
0.02900390625
0.0298095703125
0.0281982421875
0.026586914062499998
0.02900390625
0.02900390625
0.0281982421875
0.0281982421875
0.033032226562499996
0.02900390625
0.0298095703125
0.023364257812499997
0.0249755859375
0.02578125
0.022558593749999998
0.024169921875
0.0298095703125
0.033032226562499996
0.0281982421875
0.024169921875
0.02900390625
0.0249755859375
0.7412109375
1.590380859375
2.0431640625
2.5152832031249996
2.8133789062499996
3.0301025390625
3.0325195312499997
3.0317138671875
3.034130859375
3.0268798828124996
3.0309082031249996
3.0325195312499997
3.0317138671875
3.0309082031249996
3.0333251953125
3.0317138671875
0.0281982421875
0.0322265625
0.0249755859375
0.0281982421875
0.0298095703125
0.02900390625
0.02900390625
0.02900390625
0.0281982421875
0.02900390625
0.0298095703125
0.02900390625
0.0298095703125
0.030615234374999998
0.0298095703125
0.022558593749999998
0.02900390625
0.0298095703125
0.02900390625
0.0314208984375
0.02578125
0.0217529296875
0.0281982421875
0.02900390625
0.0281982421875
0.0298095703125
0.0281982421875
0.5607421874999999
1.03125
1.7055908203124999
2.1068115234375
2.4282714843749997
2.8157958984375
3.0309082031249996
3.0309082031249996
3.0309082031249996
3.0325195312499997
3.0349365234374996
3.0333251953125
3.0309082031249996
3.0325195312499997
3.0317138671875
3.0381591796875
0.027392578124999997
0.030615234374999998
0.027392578124999997
0.0281982421875
0.02900390625
0.02900390625
0.0298095703125
0.030615234374999998
0.0314208984375
0.026586914062499998
0.02900390625
0.02900390625
0.0298095703125
0.0281982421875
0.0298095703125
0.026586914062499998
0.0346435546875
0.0281982421875
0.027392578124999997
0.023364257812499997
0.023364257812499997
0.0298095703125
0.02900390625
0.024169921875
0.0281982421875
0.0281982421875
0.0249755859375
0.6703125
1.413134765625
2.0012695312499997
2.3630126953125
2.7739013671875
3.0309082031249996
3.029296875
3.0204345703124997
3.0309082031249996
3.0309082031249996
3.0309082031249996
3.0333251953125
3.0301025390625
3.029296875
3.037353515625
3.027685546875
3.0309082031249996
1.4236083984374999
0.02578125
0.02900390625
0.0314208984375
0.02578125
0.0298095703125
0.0281982421875
0.024169921875
0.0314208984375
0.0298095703125
0.0298095703125
0.0249755859375
0.0281982421875
0.02900390625
0.02900390625
0.0281982421875
0.02900390625
0.02900390625
0.030615234374999998
0.026586914062499998
0.033837890625
0.02900390625
0.0298095703125
0.0314208984375
0.6268066406249999
1.377685546875
1.948095703125
2.4371337890625
2.7771240234374996
2.9519531249999997
3.037353515625
3.0317138671875
3.0268798828124996
3.029296875
3.0325195312499997
3.0325195312499997
3.0309082031249996
3.027685546875
3.0325195312499997
3.029296875
3.0325195312499997
3.029296875
1.9682373046875
0.8386962890624999
0.026586914062499998
0.027392578124999997
0.030615234374999998
0.0281982421875
0.02900390625
0.0298095703125
0.0281982421875
0.0281982421875
0.030615234374999998
0.0281982421875
0.026586914062499998
0.0281982421875
0.0281982421875
0.026586914062499998
0.02900390625
0.0362548828125
0.0281982421875
0.0314208984375
0.02578125
0.02900390625
0.023364257812499997
0.03544921875
0.0717041015625
1.09892578125
1.2262207031249999
2.112451171875
2.6949462890625
2.972900390625
3.0325195312499997
3.0309082031249996
3.0325195312499997
3.029296875
3.02607421875
3.0309082031249996
3.0301025390625
3.02607421875
3.02607421875
3.0309082031249996
3.034130859375
3.0309082031249996
3.0333251953125
0.926513671875
0.0298095703125
0.0281982421875
0.02900390625
0.02900390625
0.030615234374999998
0.030615234374999998
0.02900390625
0.0281982421875
0.030615234374999998
0.02900390625
0.02900390625
0.0298095703125
0.030615234374999998
0.0298095703125
0.02900390625
0.02900390625
0.030615234374999998
0.033032226562499996
0.0362548828125
0.0281982421875
0.030615234374999998
0.037060546874999996
0.104736328125
0.48662109374999996
1.4195800781249999
1.7660156249999999
2.2679443359375
2.7392578125
3.0309082031249996
3.02607421875
3.0357421875
3.0252685546875
3.0309082031249996
3.0317138671875
3.029296875
3.0317138671875
3.0317138671875
3.02607421875
3.0317138671875
3.0317138671875
3.0309082031249996
0.8241943359374999
0.024169921875
0.0298095703125
0.0298095703125
0.02578125
0.027392578124999997
0.027392578124999997
0.02900390625
0.0281982421875
0.0298095703125
0.033837890625
0.0322265625
0.0281982421875
0.0298095703125
0.0314208984375
0.027392578124999997
0.030615234374999998
0.02900390625
0.027392578124999997
0.030615234374999998
0.030615234374999998
0.0298095703125
0.1264892578125
0.20061035156249998
0.26425781249999997
1.3382080078124998
1.944873046875
2.18818359375
2.56201171875
2.8528564453125
3.0284912109374997
3.0317138671875
3.0333251953125
3.0301025390625
3.0284912109374997
3.0309082031249996
3.0284912109374997
3.0268798828124996
3.0325195312499997
3.0317138671875
3.0317138671875
3.0349365234374996
1.1480712890625
0.02900390625
0.033837890625
0.02900390625
0.0249755859375
0.0298095703125
0.024169921875
0.0322265625
0.0249755859375
0.03544921875
0.0281982421875
0.033032226562499996
0.02900390625
0.037060546874999996
0.024169921875
0.027392578124999997
0.026586914062499998
0.027392578124999997
0.033032226562499996
0.0298095703125
0.037060546874999996
0.1039306640625
0.17724609375
0.2715087890625
0.3343505859375
0.58330078125
1.4735595703125
1.9231201171874999
2.358984375
2.8359375
3.021240234375
3.027685546875
3.037353515625
3.0325195312499997
3.0301025390625
3.0309082031249996
3.0317138671875
3.0284912109374997
3.0309082031249996
3.0301025390625
3.0325195312499997
3.0309082031249996
3.0309082031249996
0.024169921875
0.02900390625
0.02578125
0.022558593749999998
0.02900390625
0.02900390625
0.030615234374999998
0.02578125
0.0298095703125
0.0298095703125
0.02900390625
0.02900390625
0.046728515624999994
0.026586914062499998
0.037060546874999996
0.026586914062499998
0.0281982421875
0.026586914062499998
0.026586914062499998
0.10634765624999999
0.17885742187499998
0.2457275390625
0.3343505859375
0.39799804687499996
0.45036621093749996
1.0223876953125
1.5114257812499998
2.051220703125
2.3791259765625
2.7722900390625
3.0139892578125
3.0301025390625
3.0325195312499997
3.027685546875
3.0309082031249996
3.037353515625
3.027685546875
3.0301025390625
3.0325195312499997
3.0317138671875
3.029296875
3.0325195312499997
0.359326171875
0.02900390625
0.022558593749999998
0.022558593749999998
0.0314208984375
0.0281982421875
0.02900390625
0.0314208984375
0.0322265625
0.0249755859375
0.026586914062499998
0.027392578124999997
0.02900390625
0.027392578124999997
0.0314208984375
0.0281982421875
0.02900390625
0.033837890625
0.10231933593749999
0.1973876953125
0.269091796875
0.330322265625
0.3955810546875
0.475341796875
0.5228759765625
0.575244140625
0.7557128906249999
1.37607421875
1.8747802734374999
2.2179931640625
2.663525390625
2.8802490234375
2.9978759765625
3.0301025390625
3.0333251953125
3.0405761718749997
3.0301025390625
3.0301025390625
3.0333251953125
3.0284912109374997
3.0301025390625
3.027685546875
1.2173583984375
0.0298095703125
0.0298095703125
0.02578125
0.027392578124999997
0.030615234374999998
0.022558593749999998
0.033032226562499996
0.026586914062499998
0.0298095703125
0.02900390625
0.02900390625
0.027392578124999997
0.0281982421875
0.030615234374999998
0.0322265625
0.1168212890625
0.185302734375
0.262646484375
0.32951660156249996
0.40524902343749997
0.46647949218749996
0.517236328125
0.5905517578125
0.6372802734374999
1.3019531249999998
1.9658203125
2.373486328125
2.7400634765625
2.956787109375
3.0325195312499997
3.0317138671875
3.029296875
3.0317138671875
3.0381591796875
3.0252685546875
3.0309082031249996
3.0268798828124996
3.0325195312499997
3.0309082031249996
3.0325195312499997
3.0333251953125
3.0349365234374996
0.0298095703125
0.0217529296875
0.033837890625
0.02900390625
0.030615234374999998
0.02900390625
0.0298095703125
0.030615234374999998
0.0314208984375
0.0249755859375
0.033032226562499996
0.02578125
0.033837890625
0.024169921875
0.0281982421875
0.027392578124999997
0.030615234374999998
0.0523681640625
0.12890625
0.223974609375
0.29245605468749997
0.35368652343749996
0.41411132812499996
0.49306640625
1.1013427734374999
2.01416015625
2.2212158203125
2.7569824218749996
2.9422851562499996
3.0357421875
3.0309082031249996
3.0309082031249996
3.0309082031249996
3.0309082031249996
3.0284912109374997
3.027685546875
3.0333251953125
3.0309082031249996
3.0325195312499997
3.0325195312499997
3.0333251953125
3.0268798828124996
0.9337646484375
0.0249755859375
0.030615234374999998
0.030615234374999998
0.02900390625
0.027392578124999997
0.0249755859375
0.027392578124999997
0.0298095703125
0.02578125
0.0314208984375
0.030615234374999998
0.0281982421875
0.0314208984375
0.026586914062499998
0.0314208984375
0.0281982421875
0.0281982421875
0.030615234374999998
0.078955078125
0.1732177734375
0.24814453125
0.310986328125
0.378662109375
1.3204833984375
1.998046875
2.3436767578124997
2.81982421875
3.0317138671875
3.0301025390625
3.02607421875
3.0301025390625
3.0325195312499997
3.0317138671875
3.0309082031249996
3.0333251953125
3.037353515625
3.0284912109374997
3.029296875
3.0333251953125
3.0301025390625
3.0309082031249996
1.3913818359374999
0.033837890625
0.02900390625
0.0298095703125
0.0314208984375
0.02900390625
0.027392578124999997
0.02900390625
0.030615234374999998
0.033837890625
0.0298095703125
0.02900390625
0.02900390625
0.027392578124999997
0.0298095703125
0.0249755859375
0.0298095703125
0.0298095703125
0.023364257812499997
0.0298095703125
0.03544921875
0.10151367187499999
0.1796630859375
0.5607421874999999
1.1609619140625
1.7571533203124998
2.3678466796874997
2.8294921874999996
3.0172119140625
3.0317138671875
3.0325195312499997
3.034130859375
3.0301025390625
3.0317138671875
3.0172119140625
3.0389648437499996
3.0309082031249996
3.0268798828124996
3.0365478515624997
3.0325195312499997
3.029296875
3.0317138671875
3.034130859375
0.21511230468749998
0.02900390625
0.027392578124999997
0.02900390625
0.02578125
0.0322265625
0.02900390625
0.02900390625
0.02900390625
0.0281982421875
0.02900390625
0.026586914062499998
0.027392578124999997
0.02900390625
0.0281982421875
0.024169921875
0.0281982421875
0.02900390625
0.0249755859375
0.02578125
0.030615234374999998
0.0749267578125
0.17644042968749998
0.9434326171874999
1.4719482421874999
2.2534423828125
2.357373046875
2.8794433593749997
3.0268798828124996
3.0357421875
3.0317138671875
3.0301025390625
3.0333251953125
3.0244628906249997
3.0309082031249996
3.0325195312499997
3.0309082031249996
3.029296875
3.0309082031249996
3.0333251953125
3.029296875
3.029296875
0.8499755859375
0.0281982421875
0.0281982421875
0.02578125
0.0298095703125
0.033032226562499996
0.0298095703125
0.0298095703125
0.02578125
0.027392578124999997
0.033032226562499996
0.030615234374999998
0.0281982421875
0.0249755859375
0.02900390625
0.02900390625
0.02900390625
0.033837890625
0.033032226562499996
0.02900390625
0.02900390625
0.038671874999999994
0.103125
0.984521484375
1.50498046875
2.18173828125
2.8415771484374996
2.9060302734374996
3.034130859375
3.029296875
3.0317138671875
3.0333251953125
3.0301025390625
3.0309082031249996
3.0349365234374996
3.0317138671875
3.02607421875
3.0309082031249996
3.0309082031249996
3.0333251953125
3.0301025390625
3.0284912109374997
1.3575439453125
0.0249755859375
0.02900390625
0.0298095703125
0.027392578124999997
0.02900390625
0.0322265625
0.0281982421875
0.0298095703125
0.0322265625
0.02900390625
0.033032226562499996
0.027392578124999997
0.0281982421875
0.027392578124999997
0.0281982421875
0.02900390625
0.030615234374999998
0.026586914062499998
0.033837890625
0.030615234374999998
0.0298095703125
0.02578125
0.6195556640625
1.200439453125
1.851416015625
2.4927246093749997
2.7328124999999996
3.0172119140625
3.0325195312499997
3.0284912109374997
3.034130859375
3.0317138671875
3.0268798828124996
3.0268798828124996
3.0349365234374996
3.0325195312499997
3.029296875
3.0284912109374997
3.0301025390625
3.0333251953125
3.0325195312499997
3.0333251953125
0.30615234375
0.026586914062499998
0.02578125
0.0281982421875
0.0281982421875
0.02578125
0.033032226562499996
0.0281982421875
0.02900390625
0.02900390625
0.02900390625
0.026586914062499998
0.030615234374999998
0.026586914062499998
0.024169921875
0.0322265625
0.0298095703125
0.0281982421875
0.02900390625
0.0298095703125
0.0298095703125
0.02578125
0.6815917968749999
1.20849609375
1.6862548828125
2.4274658203125
2.4822509765625
3.0333251953125
3.02607421875
3.0325195312499997
3.0317138671875
3.0365478515624997
3.0317138671875
3.0268798828124996
3.0325195312499997
3.0317138671875
3.0325195312499997
3.0317138671875
3.0309082031249996
3.029296875
3.0284912109374997
3.0301025390625
0.8386962890624999
0.02578125
0.0314208984375
0.02900390625
0.0298095703125
0.02900390625
0.030615234374999998
0.0298095703125
0.02900390625
0.0298095703125
0.030615234374999998
0.0298095703125
0.027392578124999997
0.0249755859375
0.02900390625
0.02900390625
0.030615234374999998
0.02900390625
0.027392578124999997
0.0298095703125
0.0314208984375
0.027392578124999997
0.024169921875
1.094091796875
1.7982421874999999
2.257470703125
2.578125
3.0309082031249996
3.029296875
3.0317138671875
3.0317138671875
3.0349365234374996
3.0309082031249996
2.9712890625
3.0333251953125
3.0268798828124996
3.0317138671875
3.0357421875
3.0309082031249996
3.0325195312499997
3.0333251953125
3.0317138671875
1.1150390625
0.030615234374999998
0.0298095703125
0.02900390625
0.0298095703125
0.0298095703125
0.0298095703125
0.0249755859375
0.0298095703125
0.02900390625
0.02900390625
0.033837890625
0.0281982421875
0.0298095703125
0.0281982421875
0.02900390625
0.023364257812499997
0.02900390625
0.02900390625
0.0281982421875
0.0281982421875
0.02900390625
0.02900390625
0.81533203125
1.6008544921874999
2.0165771484375
2.6401611328124996
2.8939453124999996
3.0317138671875
3.0357421875
3.034130859375
3.0325195312499997
3.0357421875
3.0349365234374996
3.0309082031249996
3.0268798828124996
3.0317138671875
3.029296875
3.0268798828124996
3.0301025390625
3.029296875
3.0325195312499997
3.0317138671875
0.030615234374999998
0.0298095703125
0.02900390625
0.026586914062499998
0.0281982421875
0.02900390625
0.0281982421875
0.0249755859375
0.0298095703125
0.0314208984375
0.030615234374999998
0.02900390625
0.02900390625
0.0281982421875
0.0298095703125
0.02578125
0.0281982421875
0.02900390625
0.0322265625
0.02900390625
0.0281982421875
0.0298095703125
0.6735351562499999
1.4308593749999998
2.035107421875
2.6611083984375
2.98095703125
3.0309082031249996
3.0349365234374996
3.037353515625
3.0317138671875
3.034130859375
3.0325195312499997
3.0325195312499997
3.034130859375
3.0309082031249996
3.0325195312499997
3.0317138671875
3.0357421875
3.0317138671875
3.0349365234374996
3.02607421875
0.062841796875
0.02900390625
0.0281982421875
0.033032226562499996
0.02900390625
0.030615234374999998
0.0281982421875
0.02900390625
0.0314208984375
0.023364257812499997
0.027392578124999997
0.0281982421875
0.02900390625
0.023364257812499997
0.030615234374999998
0.030615234374999998
0.0362548828125
0.0314208984375
0.026586914062499998
0.0314208984375
0.02900390625
0.02900390625
0.02578125
1.0006347656249999
1.64677734375
2.3525390625
2.115673828125
2.86494140625
2.9672607421875
3.0317138671875
3.0325195312499997
3.029296875
3.0349365234374996
2.96162109375
3.0325195312499997
3.0317138671875
3.0309082031249996
3.029296875
3.029296875
3.0309082031249996
3.0317138671875
3.0325195312499997
0.027392578124999997
0.027392578124999997
0.02900390625
0.02900390625
0.027392578124999997
0.02900390625
0.0281982421875
0.026586914062499998
0.3262939453125
3.0284912109374997
3.0349365234374996
3.034130859375
3.037353515625
0.0322265625
0.0314208984375
0.030615234374999998
0.0298095703125
2.9704833984374996
3.0309082031249996
3.034130859375
3.0325195312499997
3.0349365234374996
3.0309082031249996
3.0333251953125
3.0325195312499997
3.0325195312499997
3.0317138671875
3.0268798828124996
3.0333251953125
3.018017578125
3.0357421875
3.0252685546875
3.0309082031249996
3.0309082031249996
3.0317138671875
3.0470214843749996
3.0244628906249997
3.0309082031249996
3.0325195312499997
3.034130859375
3.0301025390625
3.0317138671875
3.0357421875
3.0268798828124996
3.0309082031249996
3.029296875
3.0317138671875
3.034130859375
3.0317138671875
3.0317138671875
3.0309082031249996
3.0309082031249996
3.0317138671875
3.0333251953125
3.0268798828124996
3.0317138671875
2.47177734375
3.0357421875
3.029296875
3.0333251953125
3.0325195312499997
3.0333251953125
3.027685546875
3.029296875
3.0309082031249996
3.0317138671875
3.0309082031249996
3.0317138671875
3.0349365234374996
3.0309082031249996
2.972900390625
2.7577880859375
2.5177001953125
2.309033203125
2.126953125
2.01416015625
1.9392333984374999
3.0333251953125
2.0657226562499997
2.067333984375
2.1865722656249997
1.8900878906249998
1.6000488281249998
0.217529296875
0.02900390625
0.10231933593749999
0.50595703125
0.8612548828125
1.02802734375
1.0086914062499999
1.1093994140624999
1.1512939453125
1.2987304687499999
1.426025390625
1.429248046875
1.3768798828125
1.3253173828125
1.3446533203125
0.026586914062499998
1.1529052734375
1.0256103515625
0.865283203125
1.061865234375
1.48564453125
2.334814453125
2.65546875
1.7200927734375
1.393798828125
1.068310546875
0.9692138671874999
1.0288330078124999
0.8048583984375
0.88623046875
0.8644775390624999
0.84755859375
0.8048583984375
0.8056640625
0.7968017578125
0.8757568359375
3.02607421875
1.5009521484375
0.9192626953124999
0.9434326171874999
0.7395996093749999
0.2634521484375
0.02900390625
0.0281982421875
0.03544921875
0.32951660156249996
0.49870605468749996
0.5986083984375
0.54140625
0.78955078125
0.7565185546875
0.7919677734374999
0.8201660156249999
0.8451416015625
0.8701171875
0.9208740234374999
0.9659912109375
0.033032226562499996
0.6936767578124999
1.1279296875
0.863671875
1.018359375
1.380908203125
1.812744140625
2.7489257812499996
1.7015624999999999
1.1851318359375
1.1512939453125
1.1657958984374999
1.200439453125
1.12470703125
1.16337890625
1.1641845703125
1.1617675781249999
1.1899658203124999
1.203662109375
1.1939941406249999
1.2028564453125
2.5410644531249997
2.2647216796875
1.2737548828124998
1.3631835937499999
1.248779296875
0.9394042968749999
0.75087890625
0.5091796875
0.546240234375
0.9563232421875
1.1053710937499999
1.1867431640625
1.1674072265625
1.3043701171875
1.313232421875
1.335791015625
1.3414306640625
1.332568359375
1.3422363281249998
1.3559326171875
1.3470703124999999
0.0314208984375
0.410888671875
1.4638916015624999
1.3059814453124998
1.3962158203125
1.72412109375
1.8119384765625
2.8979736328124996
2.131787109375
1.538818359375
1.482421875
1.4590576171874998
1.480810546875
1.4510009765624998
1.4759765624999999
1.4493896484375
1.448583984375
1.4364990234375
1.445361328125
1.4203857421875
1.416357421875
1.5033691406249998
2.354150390625
1.4638916015624999
1.522705078125
1.5170654296875
1.1802978515625
1.0973144531249999
0.620361328125
0.8346679687499999
1.095703125
1.2745605468749999
1.3212890625
1.3414306640625
1.4091064453125
1.4751708984374998
1.46953125
1.4767822265625
1.4880615234374999
1.4912841796874998
1.4848388671875
1.4800048828124999
1.3631835937499999
0.565576171875
1.5968261718749999
1.4606689453125
1.5170654296875
1.699951171875
1.8312744140625
2.8536621093749996
2.157568359375
1.7072021484375
1.5670166015625
1.5476806640624998
1.5573486328125
1.5557373046874998
1.5315673828124998
1.5331787109375
1.5082031249999999
1.51787109375
1.5218994140625
1.5009521484375
1.496923828125
1.5299560546875
2.8552734374999997
1.6290527343749999
1.5637939453124998
1.5444580078124999
1.4010498046875
1.173046875
0.760546875
0.9095947265625
1.0626708984375
1.3261230468749998
1.368017578125
1.3946044921874998
1.3849365234375
1.5235107421874998
1.4888671875
1.5025634765625
1.5082031249999999
1.509814453125
1.5122314453124999
1.51787109375
1.4574462890625
0.13857421875
1.4252197265625
1.5033691406249998
1.5090087890625
1.6008544921874999
1.848193359375
2.4427734375
2.441162109375
1.71123046875
1.5887695312499999
1.5686279296874999
1.574267578125
1.5782958984375
1.53076171875
1.5428466796875
1.5323730468749999
1.5218994140625
1.522705078125
1.5154541015624998
1.50498046875
1.5106201171875
2.8633300781249997
1.638720703125
1.5605712890624999
1.5750732421875
1.3994384765624999
1.2238037109375
0.9192626953124999
0.9788818359375
1.106982421875
1.3124267578125
1.3784912109374998
1.4300537109375
1.3954101562499999
1.5323730468749999
1.482421875
1.5146484375
1.522705078125
1.51787109375
1.5315673828124998
1.533984375
1.5186767578125
0.19658203124999998
1.429248046875
1.5791015625
1.529150390625
1.6081054687499998
1.7893798828124998
1.96904296875
2.383154296875
1.7990478515625
1.606494140625
1.5782958984375
1.5799072265624998
1.5887695312499999
1.456640625
1.5670166015625
1.5436523437499998
1.5243164062499999
1.5331787109375
1.5299560546875
1.5114257812499998
1.5146484375
2.7666503906249997
1.9021728515624998
1.4920898437499999
1.571044921875
1.4888671875
1.2624755859374999
0.9853271484374999
1.06025390625
1.074755859375
1.329345703125
1.37607421875
1.4284423828125
1.409912109375
1.5428466796875
1.509814453125
1.52109375
1.5275390624999998
1.5170654296875
1.5243164062499999
1.5283447265624999
1.5194824218749998
0.19497070312499998
1.126318359375
1.58232421875
1.4751708984374998
1.5895751953125
1.7853515624999998
2.0117431640625
2.6111572265625
1.9053955078125
1.6169677734374999
1.5919921874999998
1.5557373046874998
1.5911865234375
1.5396240234374998
1.5589599609375
1.5476806640624998
1.533984375
1.5331787109375
1.5364013671874999
1.5162597656249999
1.5162597656249999
2.0761962890625
1.9198974609375
1.5033691406249998
1.5879638671874998
1.5017578125
1.2785888671874999
1.20849609375
1.0433349609375
1.0820068359375
1.2785888671874999
1.3736572265625
1.4332763671875
1.4139404296875
1.5114257812499998
1.5057861328125
1.493701171875
1.5267333984375
1.5218994140625
1.5243164062499999
1.5355957031249998
1.5331787109375
0.2586181640625
1.1126220703125
1.63388671875
1.5009521484375
1.587158203125
1.7724609375
1.8224121093749999
2.5918212890624996
1.9150634765624999
1.65
1.5927978515624999
1.5686279296874999
1.5654052734375
1.5525146484374999
1.5726562499999999
1.5509033203125
1.5299560546875
1.5299560546875
1.5331787109375
1.5194824218749998
1.52109375
2.02060546875
2.328369140625
1.525927734375
1.590380859375
1.5194824218749998
1.335791015625
1.2125244140625
0.978076171875
1.071533203125
1.2383056640624999
1.3873535156249999
1.4244140625
1.4381103515625
1.4961181640624999
1.513037109375
1.5009521484375
1.5202880859374999
1.533984375
1.5347900390625
1.5396240234374998
1.5315673828124998
0.88623046875
0.6735351562499999
1.6137451171875
1.4872558593749998
1.5484863281249999
1.6862548828125
1.8175781249999998
2.57490234375
2.086669921875
1.638720703125
1.5944091796875
1.5831298828125
1.577490234375
1.5718505859374998
1.5565429687499999
1.5412353515625
1.5331787109375
1.533984375
1.53720703125
1.538818359375
1.5436523437499998
1.5331787109375
2.3323974609375
1.5251220703125
1.571044921875
1.561376953125
1.340625
1.2592529296875
0.9160400390625
1.0610595703124999
1.2350830078125
1.368017578125
1.4155517578124999
1.4244140625
1.4606689453125
1.5347900390625
1.5235107421874998
1.5347900390625
1.525927734375
1.5412353515625
1.5235107421874998
1.5267333984375
1.509814453125
0.646142578125
1.593603515625
1.5275390624999998
1.5331787109375
1.6806152343749998
1.8095214843749998
2.5177001953125
2.1261474609374997
1.722509765625
1.6000488281249998
1.5637939453124998
1.5637939453124998
1.5879638671874998
1.5525146484374999
1.5509033203125
1.5331787109375
1.5331787109375
1.5404296874999999
1.5283447265624999
1.5138427734375
1.525927734375
2.68125
1.6685302734374998
1.5686279296874999
1.5662109375
1.46953125
1.2721435546875
0.9095947265625
1.069921875
1.15048828125
1.3462646484374998
1.4066894531249998
1.4542236328125
1.4719482421874999
1.5436523437499998
1.5146484375
1.5170654296875
1.529150390625
1.5283447265624999
1.5283447265624999
1.5331787109375
1.5170654296875
0.30856933593749997
1.5847412109374999
1.5404296874999999
1.5162597656249999
1.5944091796875
1.8022705078124999
2.1760986328125
2.3614013671875
1.71123046875
1.6048828124999999
1.5750732421875
1.5654052734375
1.585546875
1.5509033203125
1.5637939453124998
1.5460693359375
1.5315673828124998
1.5347900390625
1.5275390624999998
1.525927734375
1.5138427734375
2.6611083984375
1.6588623046875
1.545263671875
1.5718505859374998
1.4783935546875
1.2818115234374998
1.10859375
1.0868408203125
1.1545166015625
1.3317626953125
1.4107177734374998
1.4469726562499998
1.4155517578124999
1.5476806640624998
1.5194824218749998
1.529150390625
1.5275390624999998
1.5299560546875
1.5315673828124998
1.533984375
1.525927734375
0.30615234375
1.38896484375
1.6056884765625
1.5194824218749998
1.590380859375
1.7716552734375
2.11083984375
2.3871826171875
1.835302734375
1.651611328125
1.5637939453124998
1.5847412109374999
1.6048828124999999
1.5517089843749998
1.55009765625
1.53720703125
1.5243164062499999
1.545263671875
1.5267333984375
1.5138427734375
1.5162597656249999
2.512060546875
1.948095703125
1.5589599609375
1.5944091796875
1.4977294921875
1.2914794921875
1.1432373046875
1.055419921875
1.1126220703125
1.3510986328124999
1.3881591796875
1.4244140625
1.4195800781249999
1.538818359375
1.5396240234374998
1.5243164062499999
1.525927734375
1.5106201171875
1.5283447265624999
1.538818359375
1.525927734375
0.44230957031249996
1.3986328124999998
1.6000488281249998
1.496923828125
1.5879638671874998
1.7587646484375
1.85302734375
2.537841796875
1.8216064453124998
1.6322753906249998
1.58232421875
1.574267578125
1.5831298828125
1.542041015625
1.5597656249999998
1.5460693359375
1.529150390625
1.5283447265624999
1.5412353515625
1.5315673828124998
1.5194824218749998
2.4911132812499996
1.9666259765624998
1.496923828125
1.5791015625
1.506591796875
1.303564453125
1.2656982421874998
1.071533203125
1.1239013671875
1.2866455078124999
1.3792968749999999
1.4381103515625
1.4284423828125
1.5017578125
1.5162597656249999
1.5106201171875
1.5243164062499999
1.5154541015624998
1.5323730468749999
1.5364013671874999
1.5323730468749999
0.43344726562499997
1.0610595703124999
1.625830078125
1.49853515625
1.5807128906249999
1.75634765625
1.867529296875
2.5330078124999997
1.9118408203125
1.635498046875
1.5839355468749998
1.5984375
1.593603515625
1.5315673828124998
1.5573486328125
1.546875
1.5283447265624999
1.533984375
1.5355957031249998
1.5380126953125
1.5235107421874998
1.796630859375
2.373486328125
1.5041748046874999
1.590380859375
1.5396240234374998
1.3067871093749999
1.2568359375
0.9498779296875
1.1021484375
1.2938964843749998
1.3792968749999999
1.409912109375
1.4236083984374999
1.5073974609374998
1.5315673828124998
1.5170654296875
1.53076171875
1.5243164062499999
1.5275390624999998
1.5404296874999999
1.5355957031249998
1.17626953125
1.0167480468749999
1.6169677734374999
1.493701171875
1.533984375
1.7595703125
1.7974365234374998
2.383154296875
1.9827392578124998
1.6814208984374999
1.5927978515624999
1.5702392578125
1.5758789062499998
1.5654052734375
1.5476806640624998
1.5597656249999998
1.5436523437499998
1.5484863281249999
1.53720703125
1.5267333984375
1.5146484375
1.525927734375
2.3887939453125
1.5460693359375
1.5645996093749999
1.5404296874999999
1.40185546875
1.2850341796875
0.97646484375
1.0868408203125
1.216552734375
1.3591552734374999
1.4171630859375
1.4316650390624999
1.4469726562499998
1.5380126953125
1.5202880859374999
1.522705078125
1.5186767578125
1.5194824218749998
1.5235107421874998
1.5412353515625
1.2334716796875
0.5776611328125
1.5533203125
1.49853515625
1.5404296874999999
1.6363037109374998
1.7740722656249999
2.3581787109375
2.1744873046874997
1.7531249999999998
1.6008544921874999
1.5799072265624998
1.58232421875
1.5799072265624998
1.561376953125
1.554931640625
1.5275390624999998
1.5380126953125
1.5484863281249999
1.5315673828124998
1.525927734375
1.529150390625
2.6361328124999996
1.5533203125
1.5686279296874999
1.5726562499999999
1.4848388671875
1.2689208984375
0.990966796875
1.0997314453125
1.2173583984375
1.3551269531249999
1.4066894531249998
1.4493896484375
1.4445556640625
1.5355957031249998
1.5001464843749999
1.522705078125
1.5331787109375
1.5315673828124998
1.5347900390625
1.53720703125
1.525927734375
0.322265625
1.5460693359375
1.5412353515625
1.5122314453124999
1.6451660156249999
1.7748779296875
2.044775390625
2.3396484374999997
1.7418457031249999
1.6153564453125
1.5807128906249999
1.561376953125
1.593603515625
1.558154296875
1.5718505859374998
1.5404296874999999
1.5331787109375
1.5396240234374998
1.529150390625
1.5186767578125
1.5218994140625
2.6490234375
1.7257324218749999
1.5299560546875
1.5766845703124999
1.4953124999999998
1.3148437499999999
1.2044677734375
1.0820068359375
1.15693359375
1.3261230468749998
1.4058837890625
1.4356933593749999
1.4139404296875
1.53076171875
1.5106201171875
1.5138427734375
1.525927734375
1.5170654296875
1.522705078125
1.5404296874999999
1.5412353515625
0.32145996093749996
1.3309570312499999
1.5484863281249999
1.4953124999999998
1.5766845703124999
1.7555419921875
2.0536376953124997
2.4169921875
1.8385253906249999
1.6056884765625
1.5782958984375
1.5637939453124998
1.5887695312499999
1.554931640625
1.5702392578125
1.5476806640624998
1.5380126953125
1.545263671875
1.5380126953125
1.5275390624999998
1.5017578125
2.3356201171874997
2.0584716796875
1.533984375
1.5984375
1.5251220703125
1.3188720703124999
1.198828125
1.0675048828125
1.14404296875
1.3229003906249999
1.37607421875
1.4276367187499999
1.4228027343749998
1.53720703125
1.5073974609374998
1.5114257812499998
1.5315673828124998
1.53076171875
1.533984375
1.53720703125
1.51787109375
0.5824951171875
1.3220947265624998
1.6056884765625
1.4928955078125
1.5847412109374999
1.7603759765625
1.8336914062499998
2.4065185546875
1.8393310546875
1.6379150390625
1.5968261718749999
1.5758789062499998
1.59521484375
1.55009765625
1.5621826171875
1.542041015625
1.545263671875
1.546875
1.5275390624999998
1.52109375
1.5106201171875
2.32998046875
2.0625
1.4920898437499999
1.5879638671874998
1.52109375
1.3333740234375
1.2890625
1.0489746093749999
1.10859375
1.26005859375
1.3728515625
1.429248046875
1.4445556640625
1.5218994140625
1.496923828125
1.51787109375
1.522705078125
1.5243164062499999
1.5275390624999998
1.533984375
1.5315673828124998
0.6243896484375
0.9490722656249999
1.6266357421875
1.4888671875
1.5637939453124998
1.7257324218749999
1.832080078125
2.5152832031249996
1.9795166015624999
1.6451660156249999
1.6056884765625
1.60166015625
1.5831298828125
1.5251220703125
1.5517089843749998
1.5517089843749998
1.5283447265624999
1.5331787109375
1.538818359375
1.5267333984375
1.5218994140625
1.6483886718749998
2.447607421875
1.5114257812499998
1.5895751953125
1.5597656249999998
1.3341796874999998
1.268115234375
0.9804931640625
1.0868408203125
1.2656982421874998
1.3801025390625
1.3994384765624999
1.4308593749999998
1.4832275390624998
1.53720703125
1.52109375
1.5275390624999998
1.533984375
1.5243164062499999
1.5315673828124998
1.5315673828124998
1.335791015625
0.9289306640624999
1.6177734375
1.5033691406249998
1.4800048828124999
1.7168701171874998
1.796630859375
2.3517333984374997
1.989990234375
1.67578125
1.6161621093749998
1.5831298828125
1.5702392578125
1.5863525390625
1.5573486328125
1.5476806640624998
1.5444580078124999
1.538818359375
1.5428466796875
1.52109375
1.52109375
1.6282470703124998
2.4604980468749997
1.5887695312499999
1.585546875
1.5484863281249999
1.409912109375
1.2850341796875
0.9756591796874999
1.0787841796875
1.190771484375
1.353515625
1.4139404296875
1.4469726562499998
1.4356933593749999
1.53076171875
1.509814453125
1.5275390624999998
1.5299560546875
1.522705078125
1.5380126953125
1.5162597656249999
1.353515625
0.5132080078125
1.5235107421874998
1.5082031249999999
1.5299560546875
1.6218017578125
1.7845458984375
2.354150390625
