1.1480712890625
1.0739501953125
0.9498779296875
0.8419189453125
1.2479736328125
1.5251220703125
1.5525146484374999
1.56298828125
1.509814453125
1.6121337890624998
1.5662109375
1.5662109375
1.6483886718749998
1.5895751953125
1.5670166015625
1.5557373046874998
1.5380126953125
0.41330566406249997
1.8788085937499999
1.7829345703125
1.6000488281249998
1.8578613281249998
1.9376220703125
3.0317138671875
1.7740722656249999
1.464697265625
1.3639892578125
1.40830078125
1.442138671875
1.522705078125
1.4928955078125
1.509814453125
1.4437499999999999
1.4622802734375
1.4928955078125
1.4880615234374999
1.4864501953125
1.4888671875
3.0236572265625
1.6056884765625
1.2834228515625
1.4630859374999998
1.32451171875
1.142431640625
0.733154296875
0.8822021484375
1.0820068359375
1.4308593749999998
1.5509033203125
1.5662109375
1.4961181640624999
1.6177734375
1.5645996093749999
1.587158203125
1.6403320312499998
1.5847412109374999
1.56943359375
1.5533203125
1.5275390624999998
0.026586914062499998
1.5090087890625
1.7740722656249999
1.6201904296874998
1.7490966796874998
1.9182861328124998
3.0284912109374997
2.2341064453125
1.5444580078124999
1.3784912109374998
1.3962158203125
1.4308593749999998
1.522705078125
1.490478515625
1.5082031249999999
1.4928955078125
1.429248046875
1.4751708984374998
1.4888671875
1.4888671875
1.4961181640624999
2.6047119140625
1.7120361328125
1.2616699218749998
1.4493896484375
1.3857421875
1.11826171875
0.69609375
0.913623046875
1.071533203125
1.4034667968749999
1.5090087890625
1.5718505859374998
1.493701171875
1.5734619140625
1.5718505859374998
1.6403320312499998
1.6314697265625
1.5831298828125
1.5662109375
1.5734619140625
1.554931640625
0.2618408203125
1.3704345703124998
1.8876708984375
1.6048828124999999
1.7297607421874999
2.0407470703125
2.26875
2.51044921875
1.6040771484374998
1.393798828125
1.3825195312499998
1.40830078125
1.4671142578124998
1.4961181640624999
1.53076171875
1.4953124999999998
1.445361328125
1.4896728515625
1.50498046875
1.4928955078125
1.5025634765625
2.2566650390625
2.4484130859374997
1.3067871093749999
1.45341796875
1.4042724609375
1.09892578125
0.8048583984375
0.9611572265624999
0.9402099609375
1.281005859375
1.533984375
1.561376953125
1.5662109375
1.571044921875
1.5807128906249999
1.5726562499999999
1.5766845703124999
1.6169677734374999
1.5799072265624998
1.56298828125
1.558154296875
0.578466796875
0.5438232421875
1.8957275390625
1.65966796875
1.6185791015625
1.8586669921874999
2.38154296875
2.9318115234374997
1.7394287109375
1.3825195312499998
1.3712402343749999
1.3994384765624999
1.46953125
1.4993408203124998
1.5146484375
1.5138427734375
1.442138671875
1.4880615234374999
1.5170654296875
1.4993408203124998
1.4880615234374999
1.490478515625
2.6449951171875
1.3470703124999999
1.3704345703124998
1.4590576171874998
1.1577392578124999
1.1053710937499999
1.0014404296875
0.8483642578124999
1.2310546875
1.4993408203124998
1.5605712890624999
1.5662109375
1.5162597656249999
1.6209960937499999
1.5573486328125
1.585546875
1.6234130859375
1.593603515625
1.5662109375
1.55009765625
1.529150390625
0.339990234375
1.8618896484374998
1.7901855468749999
1.59521484375
1.8747802734374999
1.9327880859375
3.0002929687499997
1.812744140625
1.4550292968749998
1.3752685546874999
1.40830078125
1.4510009765624998
1.5218994140625
1.496923828125
1.513037109375
1.4791992187499998
1.4356933593749999
1.480810546875
1.4928955078125
1.4912841796874998
1.4945068359375
3.0301025390625
1.6636962890625
1.3583496093749998
1.4735595703125
1.3124267578125
1.1416259765624999
0.9772705078124999
0.8193603515625
1.0803955078125
1.464697265625
1.529150390625
1.5815185546875
1.49853515625
1.6298583984375
1.5718505859374998
1.6008544921874999
1.5944091796875
1.5380126953125
1.585546875
1.5702392578125
1.554931640625
0.018530273437499998
1.764404296875
1.7942138671874999
1.619384765625
1.751513671875
1.89169921875
2.9076416015624997
2.4766113281249997
1.5090087890625
1.3784912109374998
1.3986328124999998
1.4493896484375
1.4993408203124998
1.4928955078125
1.5283447265624999
1.4912841796874998
1.4244140625
1.48564453125
1.48564453125
1.4872558593749998
1.4864501953125
2.383154296875
1.7853515624999998
1.2673095703125
1.448583984375
1.3494873046875
1.095703125
0.6985107421875
0.9716308593749999
1.0368896484374999
1.3986328124999998
1.5347900390625
1.585546875
1.5082031249999999
1.5517089843749998
1.5919921874999998
1.6121337890624998
1.64677734375
1.6024658203125
1.5750732421875
1.56943359375
1.5533203125
0.02578125
1.2745605468749999
1.9037841796875
1.6830322265625
1.7039794921875
2.0262451171875
2.370263671875
2.4194091796875
1.60166015625
1.384130859375
1.3712402343749999
1.4276367187499999
1.4751708984374998
1.4928955078125
1.5202880859374999
1.4993408203124998
1.4493896484375
1.4912841796874998
1.4993408203124998
1.4945068359375
1.4896728515625
2.0947265625
2.55234375
1.3156494140625
1.4268310546874998
1.400244140625
1.1480712890625
0.926513671875
0.9603515625
0.894287109375
1.24072265625
1.522705078125
1.5597656249999998
1.5541259765625
1.6024658203125
1.5919921874999998
1.5605712890624999
1.6322753906249998
1.603271484375
1.5799072265624998
1.5662109375
1.5525146484374999
0.7806884765625
0.4197509765625
1.920703125
1.6773925781249999
1.6177734375
1.8578613281249998
1.993212890625
3.027685546875
2.02060546875
1.4203857421875
1.35673828125
1.3929931640625
1.4429443359374998
1.52109375
1.5162597656249999
1.5001464843749999
1.45341796875
1.445361328125
1.480810546875
1.496923828125
1.4912841796874998
1.48564453125
2.7166992187499996
1.3390136718749999
1.348681640625
1.4590576171874998
1.22783203125
1.132763671875
0.9063720703125
0.8805908203124999
1.224609375
1.4606689453125
1.5323730468749999
1.5670166015625
1.4840332031249999
1.5960205078124998
1.5726562499999999
1.6395263671875
1.6169677734374999
1.574267578125
1.56298828125
1.5605712890624999
1.53076171875
0.2360595703125
1.851416015625
1.7829345703125
1.6371093749999999
1.864306640625
1.9198974609375
3.0244628906249997
1.9593749999999999
1.4864501953125
1.3752685546874999
1.3978271484375
1.4091064453125
1.5090087890625
1.5001464843749999
1.5235107421874998
1.4816162109375
1.456640625
1.4920898437499999
1.49853515625
1.4953124999999998
1.5041748046874999
3.027685546875
1.7152587890625
1.35673828125
1.4759765624999999
1.3390136718749999
1.12470703125
0.7065673828125
0.894287109375
1.0449462890624999
1.48564453125
1.542041015625
1.571044921875
1.4953124999999998
1.6161621093749998
1.5637939453124998
1.5879638671874998
1.6459716796875
1.5355957031249998
1.5815185546875
1.5960205078124998
1.5557373046874998
0.02578125
1.3897705078125
1.8167724609375
1.6153564453125
1.7080078125
1.912646484375
3.005126953125
2.42666015625
1.6798095703125
1.368017578125
1.3881591796875
1.4268310546874998
1.5243164062499999
1.4791992187499998
1.5251220703125
1.4461669921875
1.4501953125
1.4912841796874998
1.4953124999999998
1.493701171875
1.493701171875
2.325146484375
1.8369140625
1.2479736328125
1.4389160156249998
1.335791015625
1.1126220703125
0.7460449218749999
0.9498779296875
1.00546875
1.3720458984375
1.5170654296875
1.5758789062499998
1.5186767578125
1.5412353515625
1.5887695312499999
1.5984375
1.6435546875
1.590380859375
1.577490234375
1.5702392578125
1.5476806640624998
0.02578125
1.2431396484375
1.9134521484375
1.6612792968749999
1.69833984375
2.01416015625
2.0415527343749997
2.7569824218749996
1.7088134765624998
1.3994384765624999
1.3817138671875
1.413134765625
1.4735595703125
1.529150390625
1.5194824218749998
1.4912841796874998
1.442138671875
1.46630859375
1.4872558593749998
1.480810546875
1.490478515625
2.0665283203125
2.5853759765624997
1.300341796875
1.4437499999999999
1.4308593749999998
1.142431640625
0.708984375
0.9627685546875
0.8822021484375
1.219775390625
1.5017578125
1.561376953125
1.5662109375
1.5799072265624998
1.60166015625
1.5670166015625
1.6435546875
1.5831298828125
1.5670166015625
1.5734619140625
1.5573486328125
0.845947265625
0.362548828125
1.9327880859375
1.6781982421875
1.6089111328124999
1.8256347656249998
2.0093261718749997
3.0301025390625
1.9601806640625
1.3978271484375
1.3688232421875
1.3954101562499999
1.4413330078125
1.5001464843749999
1.513037109375
1.5186767578125
1.4308593749999998
1.46953125
1.4920898437499999
1.4832275390624998
1.4840332031249999
1.5033691406249998
2.7900146484375
1.3333740234375
1.3672119140624999
1.45341796875
1.1996337890625
1.1255126953124999
0.7226806640625
0.8483642578124999
1.18916015625
1.4928955078125
1.5541259765625
1.5782958984375
1.461474609375
1.611328125
1.5992431640625
1.611328125
1.6451660156249999
1.5831298828125
1.5662109375
1.574267578125
1.5267333984375
0.18852539062499998
1.8506103515624999
1.84013671875
1.5807128906249999
1.8183837890624999
1.9182861328124998
3.0268798828124996
1.90458984375
1.4945068359375
1.3704345703124998
1.400244140625
1.4469726562499998
1.5057861328125
1.5033691406249998
1.5138427734375
1.4381103515625
1.4389160156249998
1.49853515625
1.4872558593749998
1.4832275390624998
1.4928955078125
3.0309082031249996
1.74345703125
1.351904296875
1.4767822265625
1.32451171875
1.0973144531249999
0.6985107421875
0.8564208984374999
1.0143310546875
1.4679199218749999
1.5412353515625
1.5782958984375
1.5082031249999999
1.6169677734374999
1.5525146484374999
1.5847412109374999
1.6330810546874999
1.561376953125
1.5799072265624998
1.6056884765625
1.538818359375
0.024169921875
1.32451171875
1.8248291015625
1.6201904296874998
1.7233154296875
1.9279541015625
2.682861328125
2.6885009765624996
1.5533203125
1.3817138671875
1.3865478515624998
1.4236083984374999
1.4912841796874998
1.496923828125
1.522705078125
1.4896728515625
1.4107177734374998
1.4767822265625
1.48564453125
1.4759765624999999
1.4953124999999998
2.2598876953125
1.877197265625
1.2302490234374999
1.4284423828125
1.3527099609375
1.0739501953125
0.7114013671874999
0.9418212890625
1.010302734375
1.36962890625
1.4977294921875
1.5766845703124999
1.5082031249999999
1.51787109375
1.585546875
1.609716796875
1.6532226562499999
1.58232421875
1.5726562499999999
1.5726562499999999
1.558154296875
0.027392578124999997
1.1859374999999999
1.9231201171874999
1.6572509765624999
1.7184814453125
2.038330078125
1.9795166015624999
2.7851806640624996
1.7329833984374998
1.4228027343749998
1.368017578125
1.4026611328124998
1.448583984375
1.4920898437499999
1.533984375
1.4928955078125
1.4219970703125
1.4759765624999999
1.4961181640624999
1.4872558593749998
1.4880615234374999
1.8925048828125
2.7005859374999996
1.340625
1.409912109375
1.4316650390624999
1.1577392578124999
0.9321533203125
0.9273193359374999
0.8596435546875
1.206884765625
1.5315673828124998
1.5702392578125
1.5726562499999999
1.5718505859374998
1.5927978515624999
1.5726562499999999
1.5895751953125
1.622607421875
1.5807128906249999
1.5831298828125
1.5509033203125
0.974853515625
0.2892333984375
1.9489013671875
1.6910888671875
1.6056884765625
1.8304687499999999
2.0101318359375
3.021240234375
1.944873046875
1.429248046875
1.3704345703124998
1.3865478515624998
1.448583984375
1.5138427734375
1.5154541015624998
1.5146484375
1.4228027343749998
1.4671142578124998
1.49853515625
1.4872558593749998
1.4912841796874998
1.4945068359375
3.0268798828124996
1.3865478515624998
1.3623779296874998
1.4767822265625
1.2052734375
1.1512939453125
0.6767578125
0.833056640625
1.1835205078125
1.4671142578124998
1.5315673828124998
1.5662109375
1.5122314453124999
1.6081054687499998
1.554931640625
1.5927978515624999
1.6153564453125
1.5887695312499999
1.5791015625
1.5879638671874998
1.5428466796875
0.1345458984375
1.815966796875
1.8240234375
1.6185791015625
1.8095214843749998
1.9271484374999999
2.8270751953124997
2.1301757812499997
1.5235107421874998
1.3664062499999998
1.3946044921874998
1.41796875
1.5235107421874998
1.5041748046874999
1.5218994140625
1.47275390625
1.416357421875
1.4840332031249999
1.4928955078125
1.4832275390624998
1.493701171875
3.029296875
1.7845458984375
1.252001953125
1.4751708984374998
1.3285400390625
1.094091796875
0.6751464843749999
0.8435302734375
1.029638671875
1.3792968749999999
1.5146484375
1.5702392578125
1.5082031249999999
1.6137451171875
1.5758789062499998
1.5678222656249998
1.6290527343749999
1.5782958984375
1.5734619140625
1.5734619140625
1.5484863281249999
0.024169921875
1.2777832031249998
1.8336914062499998
1.5919921874999998
1.719287109375
2.0415527343749997
2.63291015625
2.7432861328125
1.72734375
1.3873535156249999
1.3784912109374998
1.4042724609375
1.49853515625
1.47275390625
1.5283447265624999
1.4872558593749998
1.4356933593749999
1.4864501953125
1.4848388671875
1.4800048828124999
1.49853515625
2.1019775390624997
1.9456787109375
1.2495849609374998
1.41796875
1.4139404296875
1.0739501953125
0.91845703125
0.8926757812499999
0.9796874999999999
1.3502929687499998
1.5323730468749999
1.55009765625
1.5331787109375
1.558154296875
1.58232421875
1.5815185546875
1.6443603515624998
1.6250244140624999
1.574267578125
1.5686279296874999
1.5670166015625
0.736376953125
1.1158447265625
1.9215087890625
1.674169921875
1.7055908203124999
2.0214111328124997
2.0536376953124997
3.0317138671875
1.699951171875
1.4091064453125
1.3849365234375
1.4058837890625
1.4550292968749998
1.5057861328125
1.533984375
1.4928955078125
1.41796875
1.4800048828124999
1.5009521484375
1.4832275390624998
1.48564453125
1.8143554687499999
2.745703125
1.340625
1.3994384765624999
1.4389160156249998
1.168212890625
1.1271240234375
0.9224853515625
0.8668945312499999
1.1923828125
1.4993408203124998
1.5637939453124998
1.574267578125
1.5919921874999998
1.590380859375
1.5637939453124998
1.6161621093749998
1.6008544921874999
1.5758789062499998
1.5750732421875
1.5621826171875
1.123095703125
0.2384765625
1.8143554687499999
1.6765869140624998
1.5984375
1.8409423828125
1.9948242187499998
3.0317138671875
2.1841552734375
1.4542236328125
1.3784912109374998
1.3865478515624998
1.4381103515625
1.5114257812499998
1.506591796875
1.5114257812499998
1.4735595703125
1.4308593749999998
1.4848388671875
1.4888671875
1.4896728515625
1.496923828125
3.0228515624999996
1.3857421875
1.34384765625
1.4888671875
1.235888671875
1.13115234375
0.7218749999999999
0.84111328125
1.1609619140625
1.4542236328125
1.529150390625
1.5758789062499998
1.4791992187499998
1.6201904296874998
1.5766845703124999
1.6153564453125
1.6177734375
1.577490234375
1.5726562499999999
1.5782958984375
1.542041015625
0.08701171875
1.754736328125
1.8014648437499998
1.6121337890624998
1.8062988281249999
1.9118408203125
2.689306640625
2.2196044921875
1.5605712890624999
1.3873535156249999
1.3720458984375
1.4364990234375
1.5025634765625
1.4840332031249999
1.5202880859374999
1.4638916015624999
1.4308593749999998
1.493701171875
1.4920898437499999
1.4759765624999999
1.4848388671875
3.02607421875
1.84013671875
1.2415283203124998
1.4791992187499998
1.3422363281249998
1.0868408203125
0.58974609375
0.9095947265625
1.003857421875
1.3672119140624999
1.5396240234374998
1.58232421875
1.5194824218749998
1.6056884765625
1.5597656249999998
1.585546875
1.6363037109374998
1.590380859375
1.5734619140625
1.5726562499999999
1.5283447265624999
0.0249755859375
1.2141357421874999
1.8900878906249998
1.5863525390625
1.7072021484375
2.0681396484375
2.6860839843749997
2.6981689453124997
1.7072021484375
1.3929931640625
1.3784912109374998
1.4107177734374998
1.4598632812499999
1.4896728515625
1.5243164062499999
1.4864501953125
1.426025390625
1.482421875
1.4961181640624999
1.4791992187499998
1.4816162109375
2.038330078125
2.60712890625
1.2592529296875
1.4252197265625
1.4203857421875
1.0650878906249999
0.9547119140625
0.903955078125
0.9708251953125
1.3365966796875
1.5009521484375
1.5686279296874999
1.509814453125
1.5879638671874998
1.5887695312499999
1.5637939453124998
1.6346923828125
1.5863525390625
1.5678222656249998
1.5766845703124999
1.5637939453124998
0.8693115234375
1.0385009765625
1.9311767578124999
1.65
1.60166015625
2.022216796875
2.0069091796875
3.0252685546875
1.8473876953125
1.448583984375
1.3857421875
1.40830078125
1.4598632812499999
1.522705078125
1.5082031249999999
1.5001464843749999
1.4542236328125
1.4445556640625
1.4864501953125
1.5017578125
1.4783935546875
1.754736328125
2.7787353515624997
1.353515625
1.3559326171875
1.4501953125
1.17626953125
1.1303466796875
0.903955078125
0.87333984375
1.197216796875
1.4711425781249998
1.5460693359375
1.5662109375
1.496923828125
1.5968261718749999
1.5782958984375
1.6218017578125
1.6056884765625
1.577490234375
1.5766845703124999
1.56943359375
1.187548828125
0.18691406249999998
1.8014648437499998
1.6725585937499998
1.6218017578125
1.819189453125
1.9521240234375
3.0204345703124997
2.131787109375
1.5404296874999999
1.3792968749999999
1.3954101562499999
1.4316650390624999
1.5017578125
1.4945068359375
1.5218994140625
1.4389160156249998
1.4655029296875
1.49853515625
1.4928955078125
1.48564453125
1.5017578125
3.0268798828124996
1.4171630859375
1.3382080078124998
1.4719482421874999
1.22783203125
1.148876953125
0.5663818359375
0.9112060546874999
1.1496826171874999
1.4687255859375
1.5323730468749999
1.5654052734375
1.4928955078125
1.6048828124999999
1.5525146484374999
1.58232421875
1.6556396484375
1.5944091796875
1.5895751953125
1.5734619140625
1.5323730468749999
0.0620361328125
1.735400390625
1.8175781249999998
1.5847412109374999
1.7740722656249999
1.9198974609375
2.7948486328124997
2.1664306640624997
1.546875
1.3784912109374998
1.4107177734374998
1.4461669921875
1.5251220703125
1.4961181640624999
1.5315673828124998
1.4920898437499999
1.4268310546874998
1.5114257812499998
1.5283447265624999
1.4961181640624999
1.5025634765625
3.027685546875
1.8417480468749998
1.2270263671875
1.4308593749999998
1.3261230468749998
1.0787841796875
0.6324462890625
0.8910644531249999
1.0062744140625
1.368017578125
1.529150390625
1.5750732421875
1.5218994140625
1.6403320312499998
1.56298828125
1.5654052734375
1.611328125
1.585546875
1.60166015625
1.5621826171875
1.5299560546875
0.024169921875
1.147265625
1.899755859375
1.625830078125
1.72412109375
2.038330078125
2.344482421875
2.914892578125
1.8006591796875
1.3897705078125
1.3688232421875
1.4091064453125
1.474365234375
1.4687255859375
1.4864501953125
1.4397216796874999
1.3744628906249998
1.44052734375
1.5025634765625
1.509814453125
1.5114257812499998
2.0310791015625
2.7166992187499996
1.2495849609374998
1.4300537109375
1.4493896484375
1.074755859375
0.8628662109374999
0.920068359375
0.9087890624999999
1.4155517578124999
1.542041015625
1.571044921875
1.5323730468749999
1.5476806640624998
1.5509033203125
1.590380859375
1.6451660156249999
1.6105224609375
1.5799072265624998
1.587158203125
1.5525146484374999
0.920068359375
0.9796874999999999
1.944873046875
1.6991455078125
1.6250244140624999
2.07216796875
2.0117431640625
3.0317138671875
1.8498046874999998
1.4510009765624998
1.4010498046875
1.4155517578124999
1.44052734375
1.506591796875
1.5299560546875
1.5541259765625
1.4526123046875
1.4195800781249999
1.45341796875
1.4832275390624998
1.4912841796874998
1.735400390625
2.9519531249999997
1.3994384765624999
1.3817138671875
1.4413330078125
1.1375976562499999
1.0610595703124999
0.5615478515625
0.7138183593749999
1.0505859375
1.4574462890625
1.571044921875
1.6008544921874999
1.5251220703125
1.6201904296874998
1.5968261718749999
1.6185791015625
1.67900390625
1.6081054687499998
1.6040771484374998
1.5895751953125
1.1029541015625
0.0201416015625
1.75634765625
1.6910888671875
1.5492919921875
1.832080078125
2.0987548828125
3.0252685546875
2.334814453125
1.6234130859375
1.3446533203125
1.3341796874999998
1.3720458984375
1.5009521484375
1.4791992187499998
1.4961181640624999
1.4638916015624999
1.4115234374999999
1.477587890625
1.4783935546875
1.4735595703125
1.4864501953125
3.027685546875
1.4348876953124998
1.2987304687499999
1.4574462890625
1.2511962890625
0.94423828125
0.15791015625
0.4680908203125
0.920068359375
1.3913818359374999
1.5726562499999999
1.658056640625
1.55009765625
1.714453125
1.654833984375
1.71123046875
1.7047851562499998
1.63388671875
1.6306640625
1.6250244140624999
1.5637939453124998
0.024169921875
1.8312744140625
1.9698486328125
1.662890625
1.9134521484375
2.1221191406249997
2.9422851562499996
3.0446044921874997
1.64677734375
1.284228515625
1.2536132812499998
1.3285400390625
1.47275390625
1.4816162109375
1.5218994140625
1.4501953125
1.3414306640625
1.429248046875
1.4558349609374999
1.4542236328125
1.4735595703125
3.0236572265625
2.015771484375
1.1335693359374999
1.4429443359374998
1.26328125
0.8209716796875
0.323876953125
0.40122070312499997
0.655810546875
1.2624755859374999
1.5992431640625
1.714453125
1.5984375
1.6483886718749998
1.6459716796875
1.674169921875
1.7909912109375
1.6806152343749998
1.651611328125
1.641943359375
1.5887695312499999
0.02578125
0.952294921875
2.0818359374999997
1.6822265625
1.819189453125
2.383154296875
3.0244628906249997
3.0284912109374997
1.9013671875
1.368017578125
1.2238037109375
1.2576416015624998
1.3510986328124999
1.4074951171874999
1.5645996093749999
1.5323730468749999
1.4187744140624998
1.4687255859375
1.4630859374999998
1.4526123046875
1.4622802734375
2.18173828125
3.0252685546875
1.1794921875
1.3172607421875
1.3382080078124998
0.7379882812499999
0.5921630859375
0.22478027343749998
0.2827880859375
1.0981201171875
1.5364013671874999
1.687060546875
1.662890625
1.6951171875
1.67900390625
1.651611328125
1.7772949218749998
1.7531249999999998
1.69833984375
1.6451660156249999
1.6000488281249998
0.613916015625
0.024169921875
2.173681640625
1.8256347656249998
1.7265380859375
2.31064453125
2.3307861328125
3.0284912109374997
1.998046875
1.3768798828125
1.235888671875
1.2640869140625
1.3631835937499999
1.45341796875
1.4864501953125
1.5170654296875
1.3575439453125
1.3639892578125
1.4203857421875
1.4348876953124998
1.458251953125
1.4671142578124998
3.0220458984375
1.3849365234375
1.3341796874999998
1.4558349609374999
1.0046630859374999
0.84111328125
0.307763671875
0.34160156249999996
0.8572265625
1.4058837890625
1.667724609375
1.6685302734374998
1.52109375
1.6975341796874999
1.6830322265625
1.75634765625
1.7233154296875
1.6395263671875
1.6346923828125
1.635498046875
1.2101074218749999
0.0249755859375
1.8538330078124998
1.88525390625
1.6975341796874999
2.0391357421875
2.2429687499999997
3.0236572265625
2.7722900390625
1.670947265625
1.3059814453124998
1.2858398437499998
1.3285400390625
1.4832275390624998
1.482421875
1.5017578125
1.432470703125
1.3390136718749999
1.409912109375
1.426025390625
1.4332763671875
1.4558349609374999
3.027685546875
1.45341796875
1.2938964843749998
1.432470703125
1.2270263671875
0.929736328125
0.15791015625
0.19658203124999998
0.7436279296874999
1.3897705078125
1.5911865234375
1.6854492187499999
1.4864501953125
1.7507080078125
1.6910888671875
1.687060546875
1.7942138671874999
1.699951171875
1.6773925781249999
1.658056640625
1.60166015625
0.0249755859375
1.8248291015625
2.0584716796875
1.6878662109375
1.93681640625
2.2614990234375
3.0268798828124996
3.0268798828124996
1.6395263671875
1.2938964843749998
1.2310546875
1.3100097656249998
1.482421875
1.41796875
1.5073974609374998
1.409912109375
1.4123291015625
1.4622802734375
1.4945068359375
1.4759765624999999
1.4783935546875
3.034130859375
2.2268554687499997
1.1722412109375
1.4348876953124998
1.2181640624999999
0.7557128906249999
0.5937744140625
0.33515625
0.485009765625
1.142431640625
1.5887695312499999
1.6951171875
1.65
1.7184814453125
1.6781982421875
1.6886718749999998
1.7845458984375
1.7096191406249999
1.6588623046875
1.641943359375
1.5734619140625
0.02578125
0.8483642578124999
2.0947265625
1.7152587890625
1.78857421875
2.421826171875
3.029296875
3.0309082031249996
1.92392578125
1.4034667968749999
1.235888671875
1.2536132812499998
1.3744628906249998
1.43408203125
1.55009765625
1.509814453125
1.3551269531249999
1.4316650390624999
1.4655029296875
1.4719482421874999
1.4630859374999998
2.0923095703125
3.0268798828124996
1.1931884765625
1.3494873046875
1.361572265625
0.69609375
0.4793701171875
0.34965820312499996
0.3117919921875
1.095703125
1.4880615234374999
1.683837890625
1.6459716796875
1.7168701171874998
1.716064453125
1.65966796875
1.7595703125
1.6951171875
1.6395263671875
1.638720703125
1.5919921874999998
0.8483642578124999
0.0281982421875
2.1213134765625
1.8095214843749998
1.683837890625
2.334814453125
2.402490234375
3.0236572265625
2.1728759765625
1.4518066406249999
1.2536132812499998
1.2423339843749999
1.327734375
1.4671142578124998
1.48564453125
1.48564453125
1.4187744140624998
1.3865478515624998
1.4630859374999998
1.4783935546875
1.4751708984374998
1.493701171875
3.0301025390625
1.4364990234375
1.3365966796875
1.4558349609374999
1.00546875
0.8040527343749999
0.26425781249999997
0.23203125
0.7798828124999999
1.3792968749999999
1.6556396484375
1.6765869140624998
1.4912841796874998
1.7370117187499998
1.6927001953124998
1.719287109375
1.7813232421874998
1.6943115234375
1.6927001953124998
1.6846435546874998
1.219775390625
0.02578125
1.8707519531249999
1.8264404296874999
1.7015624999999999
1.8667236328124999
2.325146484375
3.0252685546875
1.7845458984375
1.4284423828125
1.22783203125
1.2624755859374999
1.3212890625
1.5404296874999999
1.5162597656249999
1.5380126953125
1.4219970703125
1.4300537109375
1.474365234375
1.490478515625
1.4888671875
1.48564453125
3.0268798828124996
2.070556640625
1.32451171875
1.4671142578124998
1.2157470703125
0.889453125
0.1168212890625
0.2376708984375
0.48581542968749997
1.368017578125
1.60166015625
1.719287109375
1.561376953125
1.7748779296875
1.6846435546874998
1.6991455078125
1.8240234375
1.72734375
1.699951171875
1.6475830078125
1.58232421875
0.026586914062499998
1.8248291015625
2.1076171875
1.6894775390624999
1.82724609375
2.2993652343749997
3.0284912109374997
2.9882080078124997
1.574267578125
1.2689208984375
1.248779296875
1.3148437499999999
1.480810546875
1.4518066406249999
1.533984375
1.4816162109375
1.3575439453125
1.45341796875
1.4816162109375
1.4606689453125
1.4840332031249999
3.027685546875
2.29775390625
1.203662109375
1.3857421875
1.2656982421874998
0.736376953125
0.02578125
0.16838378906249998
0.4318359375
1.100537109375
1.4888671875
1.6886718749999998
1.619384765625
1.7128417968749998
1.674169921875
1.6798095703125
1.7692382812499998
1.7055908203124999
1.7015624999999999
1.7007568359374998
1.6322753906249998
0.017724609375
0.742822265625
2.1221191406249997
1.670947265625
1.8095214843749998
2.37509765625
2.4274658203125
3.027685546875
1.864306640625
1.4058837890625
1.27939453125
1.2777832031249998
1.3551269531249999
1.432470703125
1.538818359375
1.480810546875
1.3986328124999998
1.4107177734374998
1.4501953125
1.47275390625
1.477587890625
1.957763671875
3.027685546875
1.2584472656249999
1.3639892578125
1.4171630859375
0.9901611328125
0.191748046875
0.4648681640625
0.2102783203125
1.052197265625
1.4928955078125
1.6612792968749999
1.722509765625
1.6475830078125
1.7104248046875
1.683837890625
1.8038818359375
1.7555419921875
1.71123046875
1.6733642578124999
1.625830078125
0.9345703125
0.01611328125
2.126953125
1.7829345703125
1.6177734375
2.31708984375
2.357373046875
3.0301025390625
2.2260498046875
1.4445556640625
1.2665039062499999
1.2640869140625
1.3599609375
1.4719482421874999
1.4783935546875
1.4896728515625
1.4147460937499998
1.44052734375
1.4630859374999998
1.4638916015624999
1.464697265625
1.482421875
3.0325195312499997
1.4638916015624999
1.3543212890624998
1.416357421875
1.0691162109374999
0.9071777343749999
0.0249755859375
0.2731201171875
0.7557128906249999
1.3623779296874998
1.6177734375
1.6894775390624999
1.56298828125
1.7490966796874998
1.6798095703125
1.6806152343749998
1.8119384765625
1.6959228515625
1.658056640625
1.61455078125
1.571044921875
0.023364257812499997
1.832080078125
1.9658203125
1.6588623046875
1.925537109375
2.20751953125
3.0284912109374997
2.5201171875
1.6612792968749999
1.3543212890624998
1.271337890625
1.3365966796875
1.5017578125
1.496923828125
1.525927734375
1.490478515625
1.348681640625
1.442138671875
1.4461669921875
1.4437499999999999
1.4735595703125
3.0301025390625
2.1615966796875
1.313232421875
1.482421875
1.264892578125
0.7726318359375
0.14824218749999998
0.22719726562499998
0.530126953125
1.3067871093749999
1.5404296874999999
1.6604736328124998
1.5887695312499999
1.7716552734375
1.670947265625
1.722509765625
1.7184814453125
1.667724609375
1.670947265625
1.6636962890625
1.6000488281249998
0.0249755859375
0.903955078125
1.9891845703125
1.6620849609375
1.8224121093749999
2.2832519531249997
3.018017578125
3.0268798828124996
1.9698486328125
1.3494873046875
1.303564453125
1.3067871093749999
1.442138671875
1.4228027343749998
1.5476806640624998
1.4719482421874999
1.3575439453125
1.4276367187499999
1.46630859375
1.4759765624999999
1.46953125
2.1744873046874997
2.4049072265625
1.2383056640624999
1.3873535156249999
1.2826171874999999
0.7718261718749999
0.4600341796875
0.42941894531249997
0.47856445312499996
1.0892578124999999
1.496923828125
1.6822265625
1.61455078125
1.6564453124999998
1.69833984375
1.6725585937499998
1.7732666015624998
1.7233154296875
1.6604736328124998
1.6427490234375
1.6040771484374998
0.0298095703125
0.6332519531249999
2.0504150390625
1.7345947265625
1.7499023437499999
2.2598876953125
2.3307861328125
3.029296875
1.9650146484375
1.46953125
1.3108154296874999
1.3027587890624999
1.3712402343749999
1.46630859375
1.5299560546875
1.496923828125
1.4091064453125
1.2955078125
1.397021484375
1.45341796875
1.464697265625
1.7096191406249999
3.027685546875
1.397021484375
1.3913818359374999
1.4429443359374998
1.07958984375
0.8701171875
0.37060546875
0.5285156249999999
0.952294921875
1.545263671875
1.63388671875
1.6483886718749998
1.622607421875
1.6693359374999999
1.6508056640625
1.6604736328124998
1.6701416015625
1.625830078125
1.6282470703124998
1.5927978515624999
1.26005859375
0.022558593749999998
1.9190917968749999
1.7571533203124998
1.6209960937499999
1.9311767578124999
2.1809326171875
3.0268798828124996
2.3799316406249997
1.4364990234375
1.303564453125
1.3333740234375
1.397021484375
1.538818359375
1.5017578125
1.5186767578125
1.4493896484375
1.40185546875
1.45341796875
1.4526123046875
1.4671142578124998
1.4816162109375
3.0325195312499997
1.4469726562499998
1.3043701171875
1.480810546875
1.1778808593749999
1.026416015625
0.388330078125
0.578466796875
0.9933837890624999
1.4123291015625
1.55009765625
1.6266357421875
1.5009521484375
1.67900390625
1.6209960937499999
1.7168701171874998
1.6508056640625
1.6201904296874998
1.5863525390625
1.5726562499999999
1.55009765625
0.023364257812499997
1.7410400390624998
1.87236328125
1.6040771484374998
1.8538330078124998
2.0576660156249997
2.784375
2.5354248046874996
1.5799072265624998
1.3607666015625
1.327734375
1.3986328124999998
1.5122314453124999
1.4397216796874999
1.474365234375
1.4397216796874999
1.3583496093749998
1.4413330078125
1.4977294921875
1.4501953125
1.4437499999999999
3.027685546875
2.0625
1.19560546875
1.4518066406249999
1.29228515625
0.974853515625
0.36979980468749996
0.6904541015625
0.8612548828125
1.3172607421875
1.590380859375
1.6330810546874999
1.6000488281249998
1.6653076171874999
1.5428466796875
1.5879638671874998
1.7635986328125
1.6137451171875
1.5791015625
1.5887695312499999
1.5565429687499999
0.023364257812499997
1.042529296875
1.9762939453125
1.6886718749999998
1.635498046875
2.0165771484375
2.8077392578125
3.0059326171875
1.8014648437499998
1.353515625
1.335791015625
1.4268310546874998
1.5001464843749999
1.442138671875
1.5267333984375
1.4945068359375
1.4598632812499999
1.4888671875
1.4888671875
1.4783935546875
1.4791992187499998
1.85302734375
2.2494140625
1.2624755859374999
1.429248046875
1.45341796875
1.0167480468749999
0.7959960937499999
0.8024414062499999
0.8032470703125
1.2689208984375
1.58232421875
1.5895751953125
1.5791015625
1.5919921874999998
1.6105224609375
1.60166015625
1.6564453124999998
1.6636962890625
1.5887695312499999
1.5911865234375
1.5831298828125
1.132763671875
0.7275146484374999
1.9658203125
1.651611328125
1.64677734375
2.0455810546874997
2.083447265625
3.0228515624999996
1.9303710937499998
1.4437499999999999
1.3817138671875
1.4123291015625
1.4606689453125
1.5670166015625
1.5355957031249998
1.4638916015624999
1.400244140625
1.4074951171874999
1.4316650390624999
1.4735595703125
1.52109375
1.59521484375
3.0204345703124997
1.41796875
1.3583496093749998
1.4364990234375
1.2415283203124998
1.10859375
0.7025390625
0.7291259765625
1.084423828125
1.4123291015625
1.5347900390625
1.5734619140625
1.5138427734375
1.6604736328124998
1.6000488281249998
1.6314697265625
1.5879638671874998
1.5799072265624998
1.609716796875
1.5863525390625
1.4558349609374999
0.02578125
1.7595703125
1.71123046875
1.5702392578125
1.8393310546875
2.0085205078125
3.027685546875
2.5112548828124996
1.6435546875
1.361572265625
1.3784912109374998
1.409912109375
1.52109375
1.5243164062499999
1.5323730468749999
1.458251953125
1.40185546875
1.482421875
1.4848388671875
1.4655029296875
1.46630859375
3.0309082031249996
1.4848388671875
1.3543212890624998
1.47275390625
1.224609375
1.1150390625
0.45761718749999997
0.813720703125
1.0852294921874999
1.4195800781249999
1.5106201171875
1.5662109375
1.5186767578125
1.6564453124999998
1.577490234375
1.5895751953125
1.6532226562499999
1.5944091796875
1.587158203125
1.58232421875
1.5645996093749999
0.0201416015625
1.6411376953124999
1.8498046874999998
1.5992431640625
1.803076171875
2.02705078125
2.578125
2.421826171875
1.6379150390625
1.4034667968749999
1.3704345703124998
1.4026611328124998
1.4912841796874998
1.4373046875
1.5114257812499998
1.4348876953124998
1.4477783203124999
1.4848388671875
1.4759765624999999
1.464697265625
1.477587890625
3.027685546875
2.0939208984374997
1.2745605468749999
1.490478515625
1.3591552734374999
1.0352783203125
0.646142578125
0.7669921875
0.9015380859375
1.3857421875
1.6346923828125
1.62744140625
1.5807128906249999
1.687060546875
1.59521484375
1.6185791015625
1.667724609375
1.6209960937499999
1.587158203125
1.5847412109374999
1.561376953125
0.023364257812499997
0.974853515625
1.94970703125
1.5839355468749998
1.654833984375
2.00771484375
2.312255859375
2.9559814453124997
1.84013671875
1.3994384765624999
1.3817138671875
1.3801025390625
1.4300537109375
1.4606689453125
1.5186767578125
1.4735595703125
1.3897705078125
1.4413330078125
1.480810546875
1.482421875
1.4679199218749999
1.6935058593749999
2.8633300781249997
1.2608642578125
1.3873535156249999
1.4461669921875
1.010302734375
0.974853515625
0.8314453125
0.8668945312499999
1.27294921875
1.4880615234374999
1.5380126953125
1.606494140625
1.5533203125
1.611328125
1.5968261718749999
1.6371093749999999
1.5944091796875
1.5726562499999999
1.585546875
1.5758789062499998
1.297119140625
0.0990966796875
1.948095703125
1.7128417968749998
1.6218017578125
1.9658203125
1.9190917968749999
3.021240234375
1.977099609375
1.448583984375
1.3478759765625
1.377685546875
1.4276367187499999
1.4920898437499999
1.506591796875
1.5001464843749999
1.4679199218749999
1.4389160156249998
1.4783935546875
1.4759765624999999
1.480810546875
1.4953124999999998
2.9801513671874997
1.405078125
1.3502929687499998
1.461474609375
1.239111328125
1.1319580078125
0.6010253906249999
0.8902587890625
1.1432373046875
1.480810546875
1.5791015625
1.5815185546875
1.4767822265625
1.611328125
1.5726562499999999
1.5702392578125
1.6435546875
1.561376953125
1.561376953125
1.5887695312499999
1.5202880859374999
0.043505859375
1.716064453125
1.7990478515625
1.5984375
1.7861572265624999
1.9150634765624999
3.0236572265625
2.2623046875
1.5992431640625
1.405078125
1.351904296875
1.413134765625
1.4896728515625
1.4461669921875
1.496923828125
1.4606689453125
1.4630859374999998
1.4880615234374999
1.5017578125
1.4872558593749998
1.5073974609374998
3.029296875
1.9311767578124999
1.327734375
1.4590576171874998
1.3269287109374999
1.1529052734375
0.6413085937499999
0.894287109375
1.0159423828125
1.456640625
1.5243164062499999
1.593603515625
1.5122314453124999
1.625830078125
1.5637939453124998
1.6072998046875
1.651611328125
1.558154296875
1.590380859375
1.587158203125
1.5218994140625
0.027392578124999997
1.0763671875
1.8626953124999999
1.5960205078124998
1.6773925781249999
1.9811279296875
2.3549560546875
2.818212890625
1.5944091796875
1.377685546875
1.4091064453125
1.4316650390624999
1.5025634765625
1.493701171875
1.5041748046874999
1.490478515625
1.405078125
1.4679199218749999
1.49853515625
1.5090087890625
1.4872558593749998
1.8570556640625
2.0987548828125
1.222998046875
1.3913818359374999
1.42119140625
1.119873046875
0.920068359375
0.903955078125
0.9643798828125
1.3309570312499999
1.4316650390624999
1.5218994140625
1.5484863281249999
1.619384765625
1.638720703125
1.6830322265625
1.6234130859375
1.5243164062499999
1.558154296875
1.52109375
1.5799072265624998
0.0281982421875
0.9611572265624999
1.883642578125
1.6282470703124998
1.6403320312499998
1.9698486328125
1.9464843749999998
2.98095703125
1.8763916015625
1.477587890625
1.4091064453125
1.4171630859375
1.4574462890625
1.5057861328125
1.5267333984375
1.5057861328125
1.4461669921875
1.4590576171874998
1.4751708984374998
1.4920898437499999
1.490478515625
1.6121337890624998
2.8657470703124996
1.38896484375
1.409912109375
1.464697265625
1.229443359375
1.0570312499999999
0.9224853515625
0.9095947265625
1.1915771484375
1.5082031249999999
1.5436523437499998
1.5637939453124998
1.5162597656249999
1.5944091796875
1.5726562499999999
1.6081054687499998
1.6153564453125
1.5670166015625
1.5670166015625
1.5758789062499998
1.35673828125
0.12568359375
1.89169921875
1.6822265625
1.5992431640625
1.7845458984375
1.9400390625
3.02607421875
1.925537109375
1.4510009765624998
1.397021484375
1.3921875
1.4477783203124999
1.5218994140625
1.4977294921875
1.5235107421874998
1.4276367187499999
1.46953125
1.4961181640624999
1.46953125
1.4896728515625
1.513037109375
2.9680664062499997
1.46953125
1.368017578125
1.4791992187499998
1.2777832031249998
1.187548828125
0.8274169921875
0.8660888671875
1.119873046875
1.4598632812499999
1.5243164062499999
1.5734619140625
1.5009521484375
1.619384765625
1.5799072265624998
1.5831298828125
1.6524169921874998
1.5807128906249999
1.5782958984375
1.574267578125
1.5637939453124998
0.0346435546875
1.6701416015625
1.8175781249999998
1.5919921874999998
1.7490966796874998
1.9408447265625
3.0252685546875
2.2663330078125
1.5807128906249999
1.393798828125
1.4219970703125
1.4542236328125
1.49853515625
1.4767822265625
1.4928955078125
1.4679199218749999
1.42119140625
1.4953124999999998
1.496923828125
1.4977294921875
1.4945068359375
3.01962890625
1.964208984375
1.3333740234375
1.4606689453125
1.3494873046875
1.0707275390625
0.7863281249999999
0.8846191406249999
1.0143310546875
1.4300537109375
1.5114257812499998
1.5396240234374998
1.5275390624999998
1.6346923828125
1.5662109375
1.61455078125
1.5960205078124998
1.5702392578125
1.571044921875
1.5686279296874999
1.5492919921875
0.024169921875
1.0513916015625
1.8385253906249999
1.5654052734375
1.6862548828125
1.9779052734375
2.115673828125
2.9519531249999997
1.8506103515624999
1.4252197265625
1.400244140625
1.4219970703125
1.480810546875
1.4598632812499999
1.5347900390625
1.480810546875
1.4171630859375
1.4598632812499999
1.4832275390624998
1.480810546875
1.48564453125
1.7313720703125
2.1462890624999997
1.276171875
1.4123291015625
1.3744628906249998
1.061865234375
1.0239990234375
0.8822021484375
0.9853271484374999
1.3390136718749999
1.5347900390625
1.5557373046874998
1.5202880859374999
1.5267333984375
1.587158203125
1.5807128906249999
1.6153564453125
1.6282470703124998
1.5791015625
1.5758789062499998
1.5605712890624999
0.0797607421875
0.84111328125
1.9086181640625
1.6604736328124998
1.6451660156249999
1.9706542968749998
1.9384277343749998
2.9036132812499997
1.7934082031249998
1.4437499999999999
1.3784912109374998
1.4107177734374998
1.4816162109375
1.5138427734375
1.5218994140625
1.4920898437499999
1.4413330078125
1.4735595703125
1.4832275390624998
1.4816162109375
1.4840332031249999
1.546875
2.9140869140624996
1.413134765625
1.413134765625
1.4759765624999999
1.2374999999999998
1.1206787109375
0.7355712890624999
0.9208740234374999
1.1593505859375
1.5017578125
1.533984375
1.5533203125
1.5847412109374999
1.6161621093749998
1.5887695312499999
1.593603515625
1.6105224609375
1.5758789062499998
1.5702392578125
1.5637939453124998
1.4622802734375
0.0797607421875
1.69833984375
1.6773925781249999
1.5670166015625
1.7635986328125
1.9593749999999999
3.02607421875
2.2236328125
1.4735595703125
1.3946044921874998
1.4066894531249998
1.4501953125
1.533984375
1.509814453125
1.5122314453124999
1.4735595703125
1.4171630859375
1.4896728515625
1.4783935546875
1.47275390625
1.4759765624999999
3.027685546875
1.4816162109375
1.3470703124999999
1.4703369140625
1.2898681640624998
1.1851318359375
0.6912597656249999
0.8846191406249999
1.1384033203125
1.4469726562499998
1.5154541015624998
1.5637939453124998
1.480810546875
1.63388671875
1.5895751953125
1.6322753906249998
1.603271484375
1.5815185546875
1.5766845703124999
1.571044921875
1.546875
0.0249755859375
1.6612792968749999
1.8014648437499998
1.542041015625
1.7595703125
1.9787109374999998
2.255859375
2.441162109375
1.6201904296874998
1.4026611328124998
1.397021484375
1.43408203125
1.4864501953125
1.4759765624999999
1.5073974609374998
1.46953125
1.429248046875
1.4816162109375
1.4961181640624999
1.4872558593749998
1.4800048828124999
2.9261718749999996
2.022216796875
1.26328125
1.493701171875
1.3575439453125
1.0505859375
0.6501708984375
0.945849609375
0.98291015625
1.3414306640625
1.529150390625
1.5621826171875
1.52109375
1.6290527343749999
1.5734619140625
1.5895751953125
1.6612792968749999
1.619384765625
1.5726562499999999
1.571044921875
1.5380126953125
0.0249755859375
0.9659912109375
1.8361083984375
1.5960205078124998
1.6886718749999998
2.0004638671875
2.3887939453125
2.8222412109375
1.7579589843749999
1.400244140625
1.3994384765624999
1.4123291015625
1.4864501953125
1.4622802734375
1.5202880859374999
1.4888671875
1.44052734375
1.48564453125
1.4912841796874998
1.4880615234374999
1.4896728515625
1.662890625
2.81982421875
1.2785888671874999
1.4074951171874999
1.458251953125
1.0707275390625
1.0852294921874999
0.807275390625
0.9007324218749999
1.3059814453124998
1.529150390625
1.561376953125
1.5436523437499998
1.58232421875
1.587158203125
1.5678222656249998
1.6056884765625
1.6314697265625
1.6000488281249998
1.5799072265624998
1.5605712890624999
1.2882568359375
0.791162109375
1.9021728515624998
1.6604736328124998
1.587158203125
1.94970703125
1.9762939453125
3.0268798828124996
1.893310546875
1.4501953125
1.3865478515624998
1.4123291015625
1.448583984375
1.5331787109375
1.509814453125
1.4888671875
1.46953125
1.4268310546874998
1.4896728515625
1.4848388671875
1.480810546875
1.5251220703125
2.9583984374999996
1.4437499999999999
1.35673828125
1.482421875
1.2511962890625
1.147265625
0.8644775390624999
0.8588378906249999
1.1480712890625
1.426025390625
1.542041015625
1.5645996093749999
1.480810546875
1.603271484375
1.5895751953125
1.6314697265625
1.59521484375
1.585546875
1.5847412109374999
1.5960205078124998
1.513037109375
0.0362548828125
1.7072021484375
1.6959228515625
1.6040771484374998
1.783740234375
1.9513183593749999
3.0252685546875
2.3823486328125
1.6081054687499998
1.3752685546874999
1.3897705078125
1.4308593749999998
1.5122314453124999
1.4977294921875
1.5251220703125
1.4703369140625
1.4413330078125
1.4791992187499998
1.4912841796874998
1.4920898437499999
1.490478515625
3.027685546875
1.4687255859375
1.313232421875
1.4630859374999998
1.34384765625
1.103759765625
0.5091796875
0.8427246093749999
1.042529296875
1.41796875
1.522705078125
1.5750732421875
1.4791992187499998
1.6201904296874998
1.587158203125
1.6081054687499998
1.6951171875
1.6169677734374999
1.59521484375
1.587158203125
1.5621826171875
0.02578125
1.6137451171875
1.8038818359375
1.5992431640625
1.7748779296875
2.0423583984375
2.7344238281249997
2.8697753906249996
1.6435546875
1.4123291015625
1.3897705078125
1.4203857421875
1.49853515625
1.4445556640625
1.529150390625
1.4598632812499999
1.4469726562499998
1.47275390625
1.490478515625
1.477587890625
1.490478515625
3.0333251953125
2.1696533203125
1.2938964843749998
1.4840332031249999
1.3551269531249999
0.994189453125
0.9812988281249999
0.7460449218749999
0.855615234375
1.271337890625
1.52109375
1.5839355468749998
1.5509033203125
1.625830078125
1.59521484375
1.6161621093749998
1.6717529296875
1.619384765625
1.6056884765625
1.5919921874999998
1.5525146484374999
0.0217529296875
0.8419189453125
1.9464843749999998
1.5670166015625
1.7152587890625
2.070556640625
2.1213134765625
3.029296875
1.925537109375
1.45341796875
1.3551269531249999
1.36962890625
1.4356933593749999
1.4526123046875
1.5162597656249999
1.493701171875
1.456640625
1.4268310546874998
1.4759765624999999
1.4719482421874999
1.477587890625
1.7047851562499998
2.9962646484374997
1.2777832031249998
1.3905761718749998
1.4461669921875
1.134375
0.8926757812499999
0.765380859375
0.7315429687499999
1.2383056640624999
1.4759765624999999
1.5621826171875
1.5758789062499998
1.587158203125
1.6403320312499998
1.6056884765625
1.66611328125
1.6185791015625
1.5863525390625
1.590380859375
1.5807128906249999
1.248779296875
0.026586914062499998
1.9666259765624998
1.670947265625
1.6403320312499998
1.8240234375
2.031884765625
3.0268798828124996
2.3968505859375
1.4719482421874999
1.3502929687499998
1.3559326171875
1.4058837890625
1.4832275390624998
1.4896728515625
1.4896728515625
1.4606689453125
1.4228027343749998
1.48564453125
1.5017578125
1.4928955078125
1.4848388671875
3.0309082031249996
1.44052734375
1.3398193359375
1.4896728515625
1.1867431640625
1.0546142578125
0.37785644531249996
0.72509765625
1.0159423828125
1.442138671875
1.558154296875
1.6072998046875
1.4880615234374999
1.65
1.609716796875
1.6089111328124999
1.7055908203124999
1.6403320312499998
1.59521484375
1.5927978515624999
1.5525146484374999
0.02578125
1.7281494140625
1.8336914062499998
1.5919921874999998
1.8248291015625
2.0471923828125
3.0325195312499997
2.3033935546874997
1.590380859375
1.3825195312499998
1.353515625
1.3921875
1.513037109375
1.442138671875
1.4961181640624999
1.4252197265625
1.4316650390624999
1.4872558593749998
1.490478515625
1.4751708984374998
1.4791992187499998
3.0309082031249996
2.0181884765625
1.2568359375
1.4783935546875
1.3075927734375
0.9635742187499999
0.391552734375
0.7130126953125
0.8338623046875
1.2930908203125
1.5170654296875
1.585546875
1.53720703125
1.6959228515625
1.6081054687499998
1.6153564453125
1.67900390625
1.61455078125
1.6056884765625
1.5927978515624999
1.5436523437499998
0.024169921875
0.9869384765625
1.8586669921874999
1.611328125
1.7233154296875
2.1438720703125
2.463720703125
3.027685546875
1.899755859375
1.397021484375
1.35673828125
1.36962890625
1.4767822265625
1.4429443359374998
1.50498046875
1.482421875
1.377685546875
1.4429443359374998
1.4816162109375
1.46953125
1.4630859374999998
2.0246337890625
2.17529296875
1.252001953125
1.4268310546874998
1.4510009765624998
0.926513671875
0.7242919921875
0.7452392578125
0.8354736328125
1.2673095703125
1.48564453125
1.5678222656249998
1.56943359375
1.6024658203125
1.6443603515624998
1.635498046875
1.6693359374999999
1.6153564453125
1.5911865234375
1.5984375
1.5718505859374998
0.9627685546875
0.7935791015625
1.9223144531249998
1.6451660156249999
1.7152587890625
2.112451171875
2.064111328125
3.029296875
1.9674316406249999
1.4800048828124999
1.36962890625
1.36962890625
1.4074951171874999
1.4832275390624998
1.5090087890625
1.4953124999999998
1.4155517578124999
1.4268310546874998
1.4928955078125
1.4800048828124999
1.4719482421874999
1.6483886718749998
3.0244628906249997
1.4373046875
1.3792968749999999
1.4679199218749999
1.1577392578124999
1.0175537109375
0.5841064453125
0.597802734375
1.095703125
1.461474609375
1.5799072265624998
1.6056884765625
1.49853515625
1.6298583984375
1.619384765625
1.6177734375
1.6814208984374999
1.6209960937499999
1.6177734375
1.5927978515624999
1.2221923828124999
0.026586914062499998
1.7418457031249999
1.7055908203124999
1.6089111328124999
1.8602783203125
1.98193359375
3.0236572265625
2.22041015625
1.609716796875
1.3768798828125
1.3752685546874999
1.4034667968749999
1.509814453125
1.4977294921875
1.49853515625
1.4171630859375
1.4518066406249999
1.47275390625
1.4816162109375
1.474365234375
1.477587890625
3.0268798828124996
1.5525146484374999
1.3583496093749998
1.46953125
1.332568359375
1.0497802734375
0.4310302734375
0.6791748046874999
0.994189453125
1.3881591796875
1.5025634765625
1.585546875
1.5476806640624998
1.670947265625
1.6081054687499998
1.6306640625
1.6935058593749999
1.6105224609375
1.61455078125
1.58232421875
1.5476806640624998
0.024169921875
1.6185791015625
1.815966796875
1.5573486328125
1.815966796875
2.067333984375
2.5048095703124997
2.6401611328124996
1.6443603515624998
1.4332763671875
1.4244140625
1.445361328125
1.5509033203125
1.5170654296875
1.554931640625
1.4356933593749999
1.2689208984375
1.3261230468749998
1.490478515625
1.3857421875
1.3792968749999999
3.0252685546875
2.0987548828125
1.3237060546875
1.4767822265625
1.3575439453125
0.9990234375
0.75087890625
0.6936767578124999
0.8805908203124999
1.2737548828124998
1.4800048828124999
1.5815185546875
1.5799072265624998
1.58232421875
1.55009765625
1.5879638671874998
1.5412353515625
1.5895751953125
1.6572509765624999
1.6475830078125
1.62744140625
0.030615234374999998
0.897509765625
1.9142578124999998
1.6306640625
1.7257324218749999
2.0431640625
2.312255859375
3.0244628906249997
1.9916015624999999
1.5589599609375
1.480810546875
1.3905761718749998
1.3994384765624999
1.41796875
1.5138427734375
1.482421875
1.4300537109375
1.4437499999999999
1.4840332031249999
1.4791992187499998
1.46953125
1.8957275390625
2.9672607421875
1.3575439453125
1.4155517578124999
1.5025634765625
0.9732421874999999
0.8386962890624999
0.5293212890625
0.7927734375
1.19560546875
1.4219970703125
1.574267578125
1.5347900390625
1.5517089843749998
1.5799072265624998
1.658056640625
1.638720703125
1.554931640625
1.6008544921874999
1.5968261718749999
1.5565429687499999
1.0062744140625
0.6912597656249999
1.8538330078124998
1.7104248046875
1.6693359374999999
2.0939208984374997
2.08828125
3.0244628906249997
1.9811279296875
1.533984375
1.3954101562499999
1.384130859375
1.429248046875
1.5001464843749999
1.4864501953125
1.4630859374999998
1.4107177734374998
1.4622802734375
1.48564453125
1.4945068359375
1.5170654296875
1.47275390625
3.029296875
1.490478515625
1.3768798828125
1.5186767578125
1.3124267578125
1.0167480468749999
0.515625
0.66064453125
0.9490722656249999
1.31162109375
1.5476806640624998
1.5791015625
1.4767822265625
1.6081054687499998
1.538818359375
1.6266357421875
1.7450683593749998
1.66611328125
1.6588623046875
1.56298828125
1.3502929687499998
0.02578125
1.5944091796875
1.6894775390624999
1.5968261718749999
1.8546386718749999
2.1068115234375
3.02607421875
2.6482177734374996
1.69833984375
1.3817138671875
1.3978271484375
1.4437499999999999
1.5267333984375
1.4066894531249998
1.493701171875
1.6346923828125
1.482421875
1.31162109375
1.3913818359374999
1.429248046875
1.4348876953124998
3.0268798828124996
2.2663330078125
1.3728515625
1.5766845703124999
1.3212890625
0.765380859375
0.08620605468749999
0.362548828125
0.8386962890624999
1.416357421875
1.300341796875
1.3349853515624999
1.5766845703124999
1.7370117187499998
1.7507080078125
1.6129394531249999
1.6846435546874998
1.72412109375
1.6806152343749998
1.6105224609375
1.587158203125
0.0249755859375
1.754736328125
1.8957275390625
1.4590576171874998
1.7990478515625
2.3074218749999997
2.2389404296874997
3.0301025390625
1.74345703125
1.6306640625
1.364794921875
1.1093994140624999
1.2906738281249999
1.2383056640624999
1.670947265625
1.4912841796874998
1.2850341796875
1.5678222656249998
1.7217041015624999
1.529150390625
1.5380126953125
3.02607421875
2.2429687499999997
1.0385009765625
1.1738525390624999
1.4091064453125
1.155322265625
0.7073730468749999
0.6082763671875
0.889453125
1.6081054687499998
1.3422363281249998
1.3390136718749999
1.2423339843749999
1.53076171875
1.4791992187499998
1.7781005859374999
1.7748779296875
1.9215087890625
1.8336914062499998
1.5718505859374998
1.4139404296875
0.024169921875
0.7774658203125
1.85302734375
1.6846435546874998
1.7426513671875
2.24619140625
2.231689453125
3.0301025390625
1.9891845703125
1.4638916015624999
1.2665039062499999
1.38896484375
1.6830322265625
1.5525146484374999
1.732177734375
1.2270263671875
1.2769775390625
1.4429443359374998
1.5202880859374999
1.4888671875
1.4993408203124998
2.0536376953124997
3.0228515624999996
1.4356933593749999
1.4236083984374999
1.4840332031249999
1.0401123046875
0.6993164062499999
0.5285156249999999
0.45761718749999997
0.9563232421875
1.51787109375
1.4445556640625
1.59521484375
1.73056640625
1.6693359374999999
1.6177734375
1.6524169921874998
1.5509033203125
1.571044921875
1.58232421875
1.585546875
0.7943847656249999
0.024169921875
1.9505126953124998
1.69833984375
1.60166015625
1.93681640625
2.2067138671874997
3.029296875
2.5740966796875
1.4679199218749999
1.3011474609375
1.2890625
1.3801025390625
1.5492919921875
1.5251220703125
1.5299560546875
1.4679199218749999
1.4139404296875
1.4469726562499998
1.4800048828124999
1.4848388671875
1.46630859375
3.0284912109374997
1.5621826171875
1.44052734375
1.55009765625
1.0787841796875
0.8201660156249999
0.214306640625
0.136962890625
0.6598388671875
1.235888671875
1.4719482421874999
1.670947265625
1.506591796875
1.74345703125
1.699951171875
1.8377197265624998
1.77890625
1.67578125
1.6653076171874999
1.6322753906249998
1.5444580078124999
0.02578125
1.716064453125
1.9070068359374999
1.5992431640625
1.9658203125
2.260693359375
3.0268798828124996
2.69091796875
1.780517578125
1.393798828125
1.2938964843749998
1.313232421875
1.4711425781249998
1.4389160156249998
1.4759765624999999
1.361572265625
1.319677734375
1.4115234374999999
1.4389160156249998
1.429248046875
1.45341796875
3.02607421875
2.1325927734375
1.413134765625
1.5170654296875
1.3059814453124998
0.8322509765624999
0.020947265625
0.3101806640625
0.47453613281249996
1.2834228515625
1.529150390625
1.6153564453125
1.5799072265624998
1.72734375
1.6975341796874999
1.6967285156249998
1.8304687499999999
1.7257324218749999
1.722509765625
1.6435546875
1.61455078125
0.0249755859375
0.9627685546875
1.9215087890625
1.6089111328124999
1.8280517578125
2.26875
3.027685546875
3.0252685546875
2.0117431640625
1.4397216796874999
1.3422363281249998
1.3414306640625
1.5162597656249999
1.4542236328125
1.5283447265624999
1.5033691406249998
1.3897705078125
1.432470703125
1.4630859374999998
1.4469726562499998
1.4655029296875
2.731201171875
2.3791259765625
1.3744628906249998
1.5162597656249999
1.3688232421875
0.765380859375
0.2827880859375
0.2425048828125
0.3117919921875
0.9571289062499999
1.2737548828124998
1.6250244140624999
1.6443603515624998
1.6814208984374999
1.71123046875
1.7249267578124998
1.7926025390625
1.7668212890625
1.6886718749999998
1.6733642578124999
1.6105224609375
0.020947265625
0.7283203125
1.9400390625
1.56298828125
1.7893798828124998
2.4758056640625
2.6498291015624997
3.0301025390625
2.012548828125
1.5186767578125
1.332568359375
1.3140380859374998
1.377685546875
1.51787109375
1.5525146484374999
1.46953125
1.3857421875
1.3825195312499998
1.4429443359374998
1.47275390625
1.46630859375
2.3178955078125
3.0309082031249996
1.4445556640625
1.482421875
1.4445556640625
0.958740234375
0.024169921875
0.2618408203125
0.1353515625
0.6888427734375
1.3833251953124999
1.5645996093749999
1.6250244140624999
1.4848388671875
1.735400390625
1.6959228515625
1.8135498046874998
1.7523193359375
1.7313720703125
1.6886718749999998
1.65966796875
0.501123046875
0.02578125
1.843359375
1.6910888671875
1.6427490234375
2.0455810546874997
2.4169921875
3.029296875
2.4129638671875
1.5444580078124999
1.3720458984375
1.3204833984375
1.3382080078124998
1.5057861328125
1.5154541015624998
1.5509033203125
1.4115234374999999
1.409912109375
1.4767822265625
1.4719482421874999
1.4598632812499999
1.4671142578124998
3.0284912109374997
1.5347900390625
1.4606689453125
1.5194824218749998
1.0159423828125
0.7726318359375
0.026586914062499998
0.1297119140625
0.6123046875
1.2721435546875
1.5154541015624998
1.6806152343749998
1.5911865234375
1.8216064453124998
1.7579589843749999
1.7499023437499999
1.9021728515624998
1.77568359375
1.7249267578124998
1.6951171875
1.6081054687499998
0.024169921875
1.7490966796874998
1.909423828125
1.587158203125
1.9593749999999999
2.2429687499999997
3.029296875
2.4427734375
1.7531249999999998
1.4139404296875
1.3019531249999998
1.3261230468749998
1.50498046875
1.4945068359375
1.509814453125
1.4389160156249998
1.3664062499999998
1.44052734375
1.448583984375
1.4550292968749998
1.474365234375
3.0252685546875
2.1873779296875
1.3543212890624998
1.5541259765625
1.2568359375
0.6912597656249999
0.024169921875
0.0378662109375
0.2666748046875
0.9498779296875
1.4719482421874999
1.6129394531249999
1.5267333984375
1.77568359375
1.6959228515625
1.7055908203124999
1.791796875
1.7128417968749998
1.714453125
1.690283203125
1.6411376953124999
0.0249755859375
0.9087890624999999
1.9142578124999998
1.6532226562499999
1.8425537109374999
2.505615234375
3.0317138671875
3.0309082031249996
2.12373046875
1.4638916015624999
1.3301513671874998
1.22138671875
1.3382080078124998
1.364794921875
1.4389160156249998
1.4155517578124999
1.3075927734375
1.3962158203125
1.4542236328125
1.4574462890625
1.458251953125
2.85849609375
2.3372314453125
1.2955078125
1.4606689453125
1.3929931640625
0.7097900390624999
0.0249755859375
0.2731201171875
0.32065429687499997
1.0006347656249999
1.4058837890625
1.6234130859375
1.611328125
1.6636962890625
1.7233154296875
1.738623046875
1.8892822265625
1.7909912109375
1.6749755859375
1.7007568359374998
1.5968261718749999
0.024169921875
0.7677978515624999
2.0133544921874997
1.7249267578124998
1.7829345703125
2.489501953125
3.0309082031249996
3.02607421875
1.791796875
1.4268310546874998
1.3591552734374999
1.353515625
1.4042724609375
1.4928955078125
1.5404296874999999
1.513037109375
1.3978271484375
1.4397216796874999
1.47275390625
1.4791992187499998
1.4783935546875
2.2083251953125
3.02607421875
1.482421875
1.400244140625
1.4477783203124999
0.91845703125
0.734765625
0.262646484375
0.1409912109375
0.708984375
1.3478759765625
1.6234130859375
1.6862548828125
1.5517089843749998
1.7265380859375
1.714453125
1.703173828125
1.8087158203125
1.7362060546875
1.6975341796874999
1.6733642578124999
0.588134765625
0.027392578124999997
1.8151611328125
1.754736328125
1.6169677734374999
2.0520263671875
2.289697265625
3.027685546875
2.302587890625
1.6612792968749999
1.3341796874999998
1.303564453125
1.3510986328124999
1.5041748046874999
1.5057861328125
1.5122314453124999
1.4477783203124999
1.4066894531249998
1.4550292968749998
1.4679199218749999
1.4759765624999999
1.4719482421874999
3.0301025390625
1.5162597656249999
1.4147460937499998
1.4800048828124999
1.2616699218749998
0.8314453125
0.0829833984375
0.127294921875
0.6743408203125
1.2955078125
1.542041015625
1.6645019531249998
1.5879638671874998
1.754736328125
1.7015624999999999
1.780517578125
1.77890625
1.6991455078125
1.6846435546874998
1.6620849609375
1.5927978515624999
0.022558593749999998
1.7660156249999999
1.8892822265625
1.6056884765625
1.9746826171874998
2.260693359375
3.0333251953125
3.0268798828124996
1.7652099609374998
1.397021484375
1.2938964843749998
1.3422363281249998
1.482421875
1.4671142578124998
1.522705078125
1.4590576171874998
1.327734375
1.416357421875
1.4397216796874999
1.4469726562499998
1.442138671875
3.029296875
2.1100341796874997
1.3092041015625
1.477587890625
1.2697265624999998
0.8177490234375
0.02578125
0.16838378906249998
0.46567382812499997
1.1351806640625
1.53076171875
1.6765869140624998
1.5605712890624999
1.69833984375
1.690283203125
1.703173828125
1.8006591796875
1.6894775390624999
1.6781982421875
1.6604736328124998
1.6008544921874999
0.02578125
1.0046630859374999
1.9472900390624999
1.6024658203125
1.82724609375
2.408935546875
3.0333251953125
3.0284912109374997
1.964208984375
1.48564453125
1.313232421875
1.303564453125
1.3631835937499999
1.4195800781249999
1.5194824218749998
1.4864501953125
1.3986328124999998
1.4477783203124999
1.4679199218749999
1.461474609375
1.4711425781249998
2.6788330078125
3.0244628906249997
1.2866455078124999
1.4783935546875
1.4155517578124999
0.7532958984375
0.45761718749999997
0.343212890625
0.281982421875
1.0852294921874999
1.4622802734375
1.65
1.6177734375
1.687060546875
1.6943115234375
1.683837890625
1.7684326171875
1.751513671875
1.699951171875
1.6443603515624998
1.6105224609375
0.12890625
0.0249755859375
1.960986328125
1.71123046875
1.6572509765624999
2.3452880859375
2.4468017578125
3.0252685546875
2.012548828125
1.4920898437499999
1.3309570312499999
1.329345703125
1.4091064453125
1.4928955078125
1.5025634765625
1.464697265625
1.3446533203125
1.4147460937499998
1.4542236328125
1.4598632812499999
1.48564453125
1.493701171875
3.0284912109374997
1.4389160156249998
1.3704345703124998
1.41796875
0.9627685546875
0.833056640625
0.43828124999999996
0.3053466796875
0.8572265625
1.327734375
1.5831298828125
1.6532226562499999
1.593603515625
1.7281494140625
1.6814208984374999
1.7499023437499999
1.7257324218749999
1.6564453124999998
1.6564453124999998
1.62744140625
0.7226806640625
0.0249755859375
1.815966796875
1.6975341796874999
1.6427490234375
2.0214111328124997
2.1970458984375
3.0309082031249996
2.5740966796875
1.7120361328125
1.345458984375
1.319677734375
1.3551269531249999
1.4993408203124998
1.5025634765625
1.525927734375
1.46630859375
1.3792968749999999
1.448583984375
1.464697265625
1.4832275390624998
1.477587890625
3.027685546875
1.4872558593749998
1.3946044921874998
1.480810546875
1.3067871093749999
0.878173828125
0.1345458984375
0.31743164062499996
0.8588378906249999
1.3639892578125
1.5573486328125
1.67578125
1.5082031249999999
1.7007568359374998
1.65
1.7023681640625
1.7257324218749999
1.6636962890625
1.6669189453125
1.667724609375
1.5944091796875
0.023364257812499997
1.7539306640624999
1.8763916015625
1.6218017578125
1.9432617187499999
2.1946289062499997
3.0268798828124996
2.4121582031249997
1.6806152343749998
1.36962890625
1.3092041015625
1.3817138671875
1.5017578125
1.4735595703125
1.5218994140625
1.4389160156249998
1.3946044921874998
1.458251953125
1.4711425781249998
1.474365234375
1.4751708984374998
3.0268798828124996
2.0415527343749997
1.2930908203125
1.4767822265625
1.2995361328125
0.8741455078125
0.330322265625
0.439892578125
0.5969970703124999
1.190771484375
1.50498046875
1.6048828124999999
1.5517089843749998
1.6765869140624998
1.6620849609375
1.6806152343749998
1.7539306640624999
1.6943115234375
1.670947265625
1.635498046875
1.56943359375
0.026586914062499998
1.0723388671875
1.93359375
1.6443603515624998
1.7829345703125
2.3074218749999997
3.027685546875
3.0236572265625
1.9545410156249998
1.4832275390624998
1.3398193359375
1.3559326171875
1.43408203125
1.4711425781249998
1.52109375
1.4638916015624999
1.3664062499999998
1.4679199218749999
1.4832275390624998
1.4767822265625
1.4703369140625
2.5031982421874996
2.9455078125
1.2705322265624999
1.44052734375
1.4228027343749998
0.8451416015625
0.40605468749999996
0.5567138671874999
0.49306640625
1.1464599609375
1.4445556640625
1.5726562499999999
1.53076171875
1.654833984375
1.674169921875
1.6781982421875
1.7249267578124998
1.6588623046875
1.6282470703124998
1.6048828124999999
1.5799072265624998
0.3343505859375
0.849169921875
1.9223144531249998
1.6604736328124998
1.6693359374999999
2.260693359375
2.280029296875
3.029296875
2.07861328125
1.5267333984375
1.380908203125
1.3551269531249999
1.4244140625
1.5017578125
1.5218994140625
1.4751708984374998
1.393798828125
1.4034667968749999
1.4719482421874999
1.4558349609374999
1.4711425781249998
1.4679199218749999
3.027685546875
1.506591796875
1.40185546875
1.4429443359374998
1.0626708984375
0.9240966796875
0.501123046875
0.4922607421875
0.9514892578124999
1.3817138671875
1.5726562499999999
1.603271484375
1.5476806640624998
1.64677734375
1.6266357421875
1.6886718749999998
1.7015624999999999
1.6371093749999999
1.62744140625
1.6129394531249999
0.8967041015624999
0.02578125
1.719287109375
1.6846435546874998
1.6346923828125
1.9311767578124999
2.083447265625
3.027685546875
2.4202148437499997
1.6894775390624999
1.3704345703124998
1.3349853515624999
1.38896484375
1.4783935546875
1.4888671875
1.5073974609374998
1.4381103515625
1.4316650390624999
1.4622802734375
1.46953125
1.4888671875
1.4767822265625
3.0236572265625
1.9625976562499998
1.4236083984374999
1.46630859375
1.2858398437499998
0.961962890625
0.13615722656249998
0.5470458984375
0.889453125
1.3623779296874998
1.533984375
1.5919921874999998
1.5275390624999998
1.6645019531249998
1.6105224609375
1.6161621093749998
1.7208984374999998
1.6693359374999999
1.6540283203125
1.6153564453125
1.5815185546875
0.02900390625
1.69189453125
1.8199951171875
1.5927978515624999
1.8788085937499999
2.0947265625
3.027685546875
2.9422851562499996
1.7104248046875
1.4155517578124999
1.3551269531249999
1.3720458984375
1.5073974609374998
1.47275390625
1.506591796875
1.461474609375
1.4091064453125
1.4606689453125
1.4679199218749999
1.4816162109375
1.4735595703125
3.02607421875
2.05927734375
1.3382080078124998
1.464697265625
1.3237060546875
0.9466552734375
0.439892578125
0.49387207031249997
0.7194580078124999
1.213330078125
1.5057861328125
1.590380859375
1.5138427734375
1.6459716796875
1.6443603515624998
1.6459716796875
1.6886718749999998
1.6395263671875
1.6282470703124998
1.635498046875
1.5766845703124999
0.0314208984375
0.9885498046875
1.8715576171875
1.611328125
1.7571533203124998
2.1922119140625
2.8311035156249997
3.029296875
2.1164794921875
1.5976318359375
1.405078125
1.405078125
1.429248046875
1.4679199218749999
1.50498046875
1.4671142578124998
1.3607666015625
1.432470703125
1.46630859375
1.464697265625
1.4300537109375
2.2429687499999997
2.7916259765625
1.22783203125
1.3639892578125
1.3623779296874998
0.9466552734375
0.591357421875
0.7194580078124999
0.71220703125
1.2745605468749999
1.509814453125
1.5927978515624999
1.5138427734375
1.4332763671875
1.5243164062499999
1.5686279296874999
1.6814208984374999
1.63388671875
1.6072998046875
1.5976318359375
1.5734619140625
0.5857177734375
0.9273193359374999
1.8925048828125
1.6451660156249999
1.6282470703124998
2.075390625
2.102783203125
3.029296875
1.861083984375
1.42119140625
1.3148437499999999
1.335791015625
1.42119140625
1.4574462890625
1.4928955078125
1.4598632812499999
1.4042724609375
1.4501953125
1.4864501953125
1.4880615234374999
1.4961181640624999
1.490478515625
2.900390625
1.4026611328124998
1.33740234375
1.3817138671875
1.123095703125
1.0433349609375
0.708984375
0.8040527343749999
1.1835205078125
1.5122314453124999
1.5968261718749999
1.6282470703124998
1.5460693359375
1.6371093749999999
1.6209960937499999
1.60166015625
1.6967285156249998
1.609716796875
1.6040771484374998
1.590380859375
1.0352783203125
0.127294921875
1.8119384765625
1.7007568359374998
1.6540283203125
1.8828369140624999
1.98193359375
3.0284912109374997
2.08505859375
1.50498046875
1.3285400390625
1.3527099609375
1.409912109375
1.509814453125
1.4953124999999998
1.5041748046874999
1.47275390625
1.4445556640625
1.4791992187499998
1.4920898437499999
1.480810546875
1.4912841796874998
3.0301025390625
1.7579589843749999
1.3341796874999998
1.4244140625
1.3269287109374999
1.0997314453125
0.5551025390625
0.8024414062499999
1.158544921875
1.4630859374999998
1.56943359375
1.6024658203125
1.53720703125
1.6532226562499999
1.6081054687499998
1.6572509765624999
1.6298583984375
1.5960205078124998
1.585546875
1.5919921874999998
1.5637939453124998
0.02578125
1.7313720703125
1.8240234375
1.6451660156249999
1.8296630859374998
1.9891845703125
2.6594970703125
2.8512451171874997
1.5782958984375
1.345458984375
1.340625
1.3954101562499999
1.4896728515625
1.4928955078125
1.5170654296875
1.4800048828124999
1.409912109375
1.4671142578124998
1.477587890625
1.4783935546875
1.490478515625
3.0333251953125
1.883642578125
1.26328125
1.448583984375
1.3478759765625
