0.2183349609375
0.407666015625
0.2634521484375
0.894287109375
1.239111328125
1.4469726562499998
1.496923828125
1.6056884765625
1.7096191406249999
1.6153564453125
1.7257324218749999
1.699951171875
1.6540283203125
1.6209960937499999
1.5927978515624999
0.3544921875
0.5067626953125
1.5807128906249999
1.5919921874999998
1.6266357421875
2.228466796875
2.225244140625
3.0284912109374997
2.2880859375
1.7845458984375
1.53076171875
1.464697265625
1.4679199218749999
1.5057861328125
1.5106201171875
1.525927734375
1.442138671875
1.4477783203124999
1.46953125
1.477587890625
1.48564453125
2.07216796875
3.027685546875
1.7603759765625
1.5839355468749998
1.46953125
1.0707275390625
0.8958984375
0.269091796875
0.20463867187499998
0.646142578125
1.16015625
1.4501953125
1.5275390624999998
1.5355957031249998
1.6846435546874998
1.6395263671875
1.6266357421875
1.7426513671875
1.6491943359374999
1.63388671875
1.6161621093749998
0.6517822265625
0.0249755859375
1.4316650390624999
1.45341796875
1.625830078125
1.9948242187499998
2.1591796875
3.0325195312499997
2.599072265625
1.9408447265625
1.554931640625
1.4880615234374999
1.4711425781249998
1.5412353515625
1.5025634765625
1.5275390624999998
1.5154541015624998
1.426025390625
1.4791992187499998
1.4840332031249999
1.46953125
1.4638916015624999
3.02607421875
1.780517578125
1.5927978515624999
1.538818359375
1.3212890625
0.91845703125
0.4487548828125
0.165966796875
0.6372802734374999
1.069921875
1.3607666015625
1.4888671875
1.5235107421874998
1.7217041015624999
1.6491943359374999
1.7039794921875
1.6886718749999998
1.6403320312499998
1.625830078125
1.6266357421875
1.5847412109374999
0.0217529296875
1.3994384765624999
1.6056884765625
1.5412353515625
1.9102294921874998
2.1309814453125
3.0284912109374997
3.029296875
2.0536376953124997
1.6612792968749999
1.5041748046874999
1.477587890625
1.545263671875
1.5243164062499999
1.55009765625
1.5073974609374998
1.3817138671875
1.4510009765624998
1.4542236328125
1.4671142578124998
1.45341796875
3.0317138671875
2.2727783203125
1.587158203125
1.5670166015625
1.332568359375
0.9595458984374999
0.1732177734375
0.18852539062499998
0.4245849609375
0.95390625
1.345458984375
1.506591796875
1.4268310546874998
1.6604736328124998
1.635498046875
1.5863525390625
1.722509765625
1.6798095703125
1.667724609375
1.635498046875
1.5718505859374998
0.0249755859375
0.8048583984375
1.5919921874999998
1.571044921875
1.7877685546875
2.2292724609375
3.029296875
3.0284912109374997
2.193017578125
1.6411376953124999
1.4920898437499999
1.4558349609374999
1.5218994140625
1.456640625
1.513037109375
1.4800048828124999
1.43408203125
1.4920898437499999
1.4872558593749998
1.46630859375
1.4493896484375
2.843994140625
3.0002929687499997
1.5992431640625
1.611328125
1.4550292968749998
0.9385986328125
0.630029296875
0.26748046875
0.2811767578125
0.9418212890625
1.2689208984375
1.4493896484375
1.4630859374999998
1.6540283203125
1.66611328125
1.6298583984375
1.7184814453125
1.6822265625
1.641943359375
1.638720703125
1.577490234375
0.024169921875
0.66064453125
1.5492919921875
1.4928955078125
1.6806152343749998
2.2590820312499997
2.3960449218749997
3.027685546875
2.26875
1.7772949218749998
1.546875
1.4679199218749999
1.5057861328125
1.5275390624999998
1.5041748046874999
1.513037109375
1.4026611328124998
1.4284423828125
1.4735595703125
1.461474609375
1.4816162109375
1.4800048828124999
3.029296875
1.716064453125
1.5758789062499998
1.4373046875
1.0304443359375
0.863671875
0.3544921875
0.2513671875
0.7387939453125
1.1641845703125
1.4195800781249999
1.509814453125
1.5484863281249999
1.662890625
1.6379150390625
1.6862548828125
1.674169921875
1.6234130859375
1.6185791015625
1.6242187499999998
0.29245605468749997
0.02578125
1.4864501953125
1.5267333984375
1.6298583984375
2.006103515625
2.1793212890625
3.029296875
2.7835693359375
1.9746826171874998
1.5960205078124998
1.482421875
1.47275390625
1.5025634765625
1.5090087890625
1.5218994140625
1.4872558593749998
1.4276367187499999
1.4687255859375
1.4679199218749999
1.4711425781249998
1.47275390625
3.0244628906249997
1.7466796875
1.5976318359375
1.5347900390625
1.252001953125
0.829833984375
0.1877197265625
0.21914062499999998
0.6952880859374999
1.1666015625
1.3728515625
1.5057861328125
1.5073974609374998
1.687060546875
1.65
1.6298583984375
1.732177734375
1.658056640625
1.635498046875
1.6081054687499998
1.561376953125
0.0217529296875
1.4735595703125
1.545263671875
1.5702392578125
1.980322265625
2.1052001953125
3.029296875
2.60712890625
1.98193359375
1.62744140625
1.4840332031249999
1.4655029296875
1.5428466796875
1.47275390625
1.5243164062499999
1.4397216796874999
1.4429443359374998
1.477587890625
1.480810546875
1.4638916015624999
1.4840332031249999
3.027685546875
2.1390380859375
1.6298583984375
1.5565429687499999
1.2890625
0.9893554687499999
0.3794677734375
0.2586181640625
0.47775878906249997
1.026416015625
1.3768798828125
1.513037109375
1.4300537109375
1.65966796875
1.6306640625
1.6242187499999998
1.71123046875
1.6862548828125
1.6451660156249999
1.609716796875
1.571044921875
0.024169921875
0.9611572265624999
1.5758789062499998
1.571044921875
1.786962890625
2.1704589843749997
3.0252685546875
3.0268798828124996
2.1785156249999997
1.6725585937499998
1.525927734375
1.4542236328125
1.5017578125
1.4800048828124999
1.4993408203124998
1.5243164062499999
1.3801025390625
1.4542236328125
1.48564453125
1.490478515625
1.4791992187499998
3.027685546875
2.8431884765624997
1.6153564453125
1.6201904296874998
1.3744628906249998
0.9772705078124999
0.291650390625
0.2972900390625
0.48178710937499997
0.9796874999999999
1.2576416015624998
1.4687255859375
1.43408203125
1.662890625
1.6403320312499998
1.67578125
1.6693359374999999
1.6371093749999999
1.6532226562499999
1.619384765625
1.5799072265624998
0.024169921875
0.855615234375
1.5484863281249999
1.5146484375
1.767626953125
2.176904296875
2.36865234375
3.027685546875
2.309033203125
1.8328857421875
1.5944091796875
1.4638916015624999
1.5122314453124999
1.4703369140625
1.5138427734375
1.522705078125
1.3962158203125
1.4171630859375
1.4493896484375
1.4493896484375
1.4719482421874999
2.94873046875
2.9398681640624997
1.6975341796874999
1.61455078125
1.4115234374999999
0.95068359375
0.8282226562499999
0.32145996093749996
0.3359619140625
0.7782714843749999
1.2640869140625
1.4501953125
1.4671142578124998
1.5573486328125
1.6588623046875
1.6346923828125
1.667724609375
1.6604736328124998
1.6411376953124999
1.6177734375
1.5678222656249998
0.0249755859375
0.088623046875
1.522705078125
1.5380126953125
1.6588623046875
2.075390625
2.434716796875
3.0244628906249997
2.4685546874999997
1.8820312499999998
1.561376953125
1.4848388671875
1.4920898437499999
1.4429443359374998
1.5082031249999999
1.5243164062499999
1.4461669921875
1.4622802734375
1.4703369140625
1.46630859375
1.490478515625
1.5267333984375
3.0325195312499997
1.7362060546875
1.5927978515624999
1.525927734375
0.9893554687499999
0.87333984375
0.078955078125
0.26425781249999997
0.760546875
1.187548828125
1.4091064453125
1.4993408203124998
1.56943359375
1.6604736328124998
1.6242187499999998
1.6451660156249999
1.6765869140624998
1.6234130859375
1.6234130859375
1.6089111328124999
1.5017578125
0.02578125
1.5041748046874999
1.53720703125
1.606494140625
2.0439697265625
2.1615966796875
3.0309082031249996
2.5128662109374997
1.9166748046875
1.6201904296874998
1.4816162109375
1.4703369140625
1.5517089843749998
1.5186767578125
1.5267333984375
1.5154541015624998
1.384130859375
1.4679199218749999
1.4630859374999998
1.4759765624999999
1.474365234375
3.027685546875
2.0069091796875
1.6129394531249999
1.5243164062499999
1.26005859375
1.007080078125
0.40927734374999997
0.25620117187499997
0.555908203125
1.0376953125
1.3502929687499998
1.4735595703125
1.4252197265625
1.65966796875
1.6346923828125
1.690283203125
1.6781982421875
1.6282470703124998
1.6201904296874998
1.609716796875
1.5791015625
0.02578125
1.16337890625
1.5122314453124999
1.5758789062499998
1.7732666015624998
2.1180908203124997
3.0309082031249996
3.027685546875
2.2051025390625
1.6669189453125
1.5315673828124998
1.47275390625
1.5251220703125
1.4920898437499999
1.5533203125
1.5235107421874998
1.4058837890625
1.4501953125
1.461474609375
1.4848388671875
1.448583984375
3.0268798828124996
2.0794189453125
1.5984375
1.577490234375
1.3784912109374998
1.00546875
0.24331054687499998
0.31904296875
0.5365722656249999
1.0570312499999999
1.3188720703124999
1.4961181640624999
1.4381103515625
1.6822265625
1.6298583984375
1.6056884765625
1.6991455078125
1.641943359375
1.6234130859375
1.6081054687499998
1.5670166015625
0.026586914062499998
1.09248046875
1.5758789062499998
1.5001464843749999
1.7781005859374999
2.151123046875
2.65869140625
3.029296875
2.2018798828125
1.7490966796874998
1.5509033203125
1.4953124999999998
1.5331787109375
1.43408203125
1.4993408203124998
1.4437499999999999
1.4348876953124998
1.4598632812499999
1.5033691406249998
1.4945068359375
1.4735595703125
3.0268798828124996
2.760205078125
1.6846435546874998
1.585546875
1.3905761718749998
0.9498779296875
0.43828124999999996
0.327099609375
0.36496582031249997
0.8306396484374999
1.2890625
1.46630859375
1.4687255859375
1.6749755859375
1.6048828124999999
1.6201904296874998
1.6685302734374998
1.6604736328124998
1.6363037109374998
1.6072998046875
1.5807128906249999
0.030615234374999998
0.2505615234375
1.5476806640624998
1.506591796875
1.662890625
2.11083984375
2.431494140625
3.027685546875
2.5007812499999997
1.7877685546875
1.5726562499999999
1.477587890625
1.4880615234374999
1.46630859375
1.5364013671874999
1.5235107421874998
1.4042724609375
1.4381103515625
1.461474609375
1.4751708984374998
1.482421875
1.7249267578124998
3.027685546875
1.6943115234375
1.5766845703124999
1.4751708984374998
0.9369873046874999
0.8282226562499999
0.2908447265625
0.38591308593749996
0.8129150390625
1.1923828125
1.3720458984375
1.456640625
1.5670166015625
1.6556396484375
1.6330810546874999
1.6556396484375
1.6572509765624999
1.6443603515624998
1.6161621093749998
1.5839355468749998
1.235888671875
0.14824218749999998
1.525927734375
1.490478515625
1.6451660156249999
2.096337890625
2.189794921875
3.0236572265625
2.6353271484375
1.9384277343749998
1.6540283203125
1.477587890625
1.490478515625
1.542041015625
1.513037109375
1.5251220703125
1.4920898437499999
1.416357421875
1.4767822265625
1.4832275390624998
1.4719482421874999
1.533984375
3.0301025390625
1.9102294921874998
1.6475830078125
1.5186767578125
1.2334716796875
0.9571289062499999
0.2344482421875
0.252978515625
0.6163330078125
1.116650390625
1.3865478515624998
1.4888671875
1.4558349609374999
1.619384765625
1.625830078125
1.6000488281249998
1.6806152343749998
1.6363037109374998
1.6242187499999998
1.6089111328124999
1.4171630859375
0.022558593749999998
1.2689208984375
1.5194824218749998
1.56298828125
1.8441650390625
2.0761962890625
3.027685546875
2.8874999999999997
2.096337890625
1.6540283203125
1.482421875
1.50498046875
1.5170654296875
1.49853515625
1.5154541015624998
1.4397216796874999
1.4574462890625
1.4920898437499999
1.4920898437499999
1.4791992187499998
1.4687255859375
3.0284912109374997
1.993212890625
1.6379150390625
1.5396240234374998
1.3905761718749998
1.0119140625
0.24895019531249998
0.30937499999999996
0.572021484375
1.0787841796875
1.3212890625
1.474365234375
1.4598632812499999
1.6645019531249998
1.6121337890624998
1.6024658203125
1.7168701171874998
1.6588623046875
1.6209960937499999
1.6089111328124999
1.5911865234375
0.019335937499999997
1.1915771484375
1.5702392578125
1.5355957031249998
1.7813232421874998
2.1164794921875
2.8254638671874996
3.018017578125
2.1205078125
1.722509765625
1.5484863281249999
1.456640625
1.5444580078124999
1.5138427734375
1.5267333984375
1.53076171875
1.397021484375
1.4510009765624998
1.4630859374999998
1.4880615234374999
1.4840332031249999
3.027685546875
2.5740966796875
1.6201904296874998
1.6105224609375
1.3946044921874998
0.9289306640624999
0.6469482421874999
0.2779541015625
0.4406982421875
0.913623046875
1.2850341796875
1.4389160156249998
1.4356933593749999
1.5831298828125
1.6363037109374998
1.6830322265625
1.670947265625
1.6282470703124998
1.590380859375
1.606494140625
1.6137451171875
0.030615234374999998
0.43828124999999996
1.5541259765625
1.509814453125
1.7249267578124998
2.17529296875
2.4903076171875
3.0333251953125
2.47822265625
1.7571533203124998
1.5492919921875
1.4888671875
1.5106201171875
1.4872558593749998
1.513037109375
1.5162597656249999
1.405078125
1.4373046875
1.4655029296875
1.4759765624999999
1.480810546875
2.0858642578124997
3.0268798828124996
1.6153564453125
1.5758789062499998
1.4848388671875
0.920068359375
0.7210693359375
0.301318359375
0.262646484375
0.8741455078125
1.2544189453124999
1.4252197265625
1.46953125
1.5621826171875
1.6371093749999999
1.60166015625
1.674169921875
1.6814208984374999
1.651611328125
1.638720703125
1.5799072265624998
0.75087890625
0.37302246093749997
1.606494140625
1.5122314453124999
1.6435546875
2.1503173828124997
2.25263671875
3.0309082031249996
2.3718749999999997
1.8103271484374999
1.5807128906249999
1.4284423828125
1.4477783203124999
1.4961181640624999
1.5033691406249998
1.51787109375
1.474365234375
1.4622802734375
1.50498046875
1.5017578125
1.4945068359375
1.783740234375
3.0301025390625
1.8071044921875
1.5968261718749999
1.4759765624999999
1.1021484375
0.93779296875
0.18288574218749998
0.265869140625
0.652587890625
1.1496826171874999
1.4042724609375
1.5041748046874999
1.5355957031249998
1.6878662109375
1.62744140625
1.619384765625
1.69189453125
1.6427490234375
1.6314697265625
1.6048828124999999
1.0143310546875
0.0249755859375
1.3857421875
1.5122314453124999
1.574267578125
1.8844482421875
2.13662109375
3.027685546875
2.8681640625
2.0496093749999997
1.6403320312499998
1.5194824218749998
1.4832275390624998
1.53720703125
1.5106201171875
1.55009765625
1.4679199218749999
1.3962158203125
1.461474609375
1.480810546875
1.4791992187499998
1.4759765624999999
3.0284912109374997
1.8763916015625
1.6209960937499999
1.6177734375
1.3825195312499998
0.9531005859374999
0.1716064453125
0.259423828125
0.6582275390625
1.148876953125
1.3768798828125
1.5082031249999999
1.2511962890625
1.4308593749999998
1.41796875
1.5807128906249999
1.7313720703125
1.7861572265624999
1.6894775390624999
1.61455078125
1.5428466796875
0.02578125
1.416357421875
1.5960205078124998
1.5645996093749999
2.02060546875
2.260693359375
3.0284912109374997
3.02607421875
2.047998046875
1.5960205078124998
1.393798828125
1.3543212890624998
1.4703369140625
1.426025390625
1.5218994140625
1.5041748046874999
1.3261230468749998
1.4091064453125
1.4413330078125
1.4783935546875
1.5057861328125
3.02607421875
2.6272705078125
1.5847412109374999
1.69833984375
1.538818359375
0.8403076171874999
0.02578125
0.020947265625
0.02578125
0.0281982421875
0.21672363281249998
0.39799804687499996
0.1071533203125
0.0249755859375
0.024169921875
0.02578125
0.026586914062499998
0.02578125
0.0249755859375
0.02900390625
0.0314208984375
0.02900390625
0.0217529296875
0.022558593749999998
0.0314208984375
0.02578125
0.02578125
0.0217529296875
0.0249755859375
0.026586914062499998
0.02578125
0.026586914062499998
0.6598388671875
1.5484863281249999
2.028662109375
2.7303955078124997
2.89716796875
3.0309082031249996
3.0309082031249996
3.027685546875
3.0244628906249997
3.02607421875
3.0284912109374997
3.029296875
3.0236572265625
3.0301025390625
3.027685546875
3.02607421875
2.8294921874999996
0.020947265625
0.02578125
0.02578125
0.0249755859375
0.0314208984375
0.0249755859375
0.020947265625
0.026586914062499998
0.024169921875
0.024169921875
0.026586914062499998
0.02578125
0.027392578124999997
0.019335937499999997
0.027392578124999997
0.023364257812499997
0.027392578124999997
0.022558593749999998
0.02578125
0.0217529296875
0.02578125
0.0249755859375
0.024169921875
0.020947265625
0.02578125
0.026586914062499998
0.6114990234375
1.4356933593749999
2.20751953125
2.7384521484374997
3.029296875
3.0236572265625
3.027685546875
3.029296875
3.0252685546875
3.0268798828124996
3.0301025390625
3.02607421875
3.027685546875
3.0220458984375
3.029296875
3.029296875
1.26328125
0.0298095703125
0.0249755859375
0.02900390625
0.02578125
0.02578125
0.023364257812499997
0.022558593749999998
0.0249755859375
0.02578125
0.02578125
0.0249755859375
0.02578125
0.02578125
0.0249755859375
0.019335937499999997
0.0249755859375
0.020947265625
0.020947265625
0.024169921875
0.020947265625
0.026586914062499998
0.0298095703125
0.0249755859375
0.02578125
0.027392578124999997
0.02900390625
0.8588378906249999
1.3623779296874998
2.199462890625
2.8681640625
2.8125732421875
3.029296875
3.0325195312499997
3.0325195312499997
3.02607421875
3.0325195312499997
3.0301025390625
3.0252685546875
3.0284912109374997
3.0268798828124996
3.027685546875
0.4962890625
0.027392578124999997
0.02900390625
0.0249755859375
0.0281982421875
0.026586914062499998
0.02578125
0.0249755859375
0.02578125
0.02578125
0.0281982421875
0.023364257812499997
0.026586914062499998
0.0201416015625
0.0249755859375
0.0249755859375
0.026586914062499998
0.024169921875
0.02578125
0.0281982421875
0.0249755859375
0.027392578124999997
0.024169921875
0.0217529296875
0.0249755859375
0.023364257812499997
0.024169921875
0.765380859375
0.8000244140624999
1.8062988281249999
2.3614013671875
2.6748046875
2.9970703125
3.029296875
3.0268798828124996
3.0228515624999996
3.029296875
3.0268798828124996
3.0244628906249997
3.0284912109374997
3.02607421875
3.027685546875
3.0268798828124996
0.29326171875
0.024169921875
0.026586914062499998
0.02578125
0.027392578124999997
0.023364257812499997
0.023364257812499997
0.0298095703125
0.0249755859375
0.024169921875
0.0281982421875
0.02578125
0.02900390625
0.022558593749999998
0.026586914062499998
0.02578125
0.0249755859375
0.02578125
0.030615234374999998
0.026586914062499998
0.02578125
0.0314208984375
0.026586914062499998
0.0604248046875
0.1353515625
0.2135009765625
0.2747314453125
1.055419921875
1.67900390625
2.55234375
3.0268798828124996
3.02607421875
3.0284912109374997
3.0244628906249997
3.027685546875
3.02607421875
3.0268798828124996
3.0268798828124996
3.0252685546875
3.0268798828124996
3.02607421875
3.027685546875
3.027685546875
3.027685546875
0.8765624999999999
0.023364257812499997
0.02578125
0.0249755859375
0.0217529296875
0.02578125
0.0201416015625
0.027392578124999997
0.024169921875
0.024169921875
0.02578125
0.0249755859375
0.02578125
0.02578125
0.02578125
0.024169921875
0.023364257812499997
0.02578125
0.0298095703125
0.026586914062499998
0.04189453125
0.11359863281249999
0.1812744140625
0.269091796875
0.339990234375
1.3551269531249999
2.1221191406249997
2.7972656249999996
3.0268798828124996
3.0268798828124996
3.029296875
3.0252685546875
3.0284912109374997
3.0244628906249997
3.0228515624999996
3.027685546875
3.0268798828124996
3.02607421875
3.0317138671875
3.02607421875
3.0252685546875
3.0220458984375
1.5718505859374998
0.024169921875
0.030615234374999998
0.024169921875
0.02578125
0.024169921875
0.0217529296875
0.0217529296875
0.02578125
0.0249755859375
0.024169921875
0.02578125
0.0249755859375
0.0249755859375
0.0249755859375
0.0201416015625
0.023364257812499997
0.02578125
0.0217529296875
0.0249755859375
0.0217529296875
0.033032226562499996
0.12890625
0.19899902343749998
0.26748046875
1.2987304687499999
2.255859375
2.6683593749999996
2.8915283203124997
3.027685546875
3.02607421875
3.027685546875
3.027685546875
3.027685546875
3.029296875
3.0244628906249997
3.0284912109374997
3.0284912109374997
3.027685546875
3.02607421875
3.0268798828124996
3.027685546875
1.6298583984375
0.17241210937499998
0.023364257812499997
0.026586914062499998
0.023364257812499997
0.024169921875
0.024169921875
0.024169921875
0.02578125
0.026586914062499998
0.0249755859375
0.02578125
0.024169921875
0.02578125
0.02578125
0.0249755859375
0.022558593749999998
0.023364257812499997
0.0298095703125
0.02578125
0.026586914062499998
0.026586914062499998
0.0717041015625
0.14824218749999998
0.217529296875
1.11181640625
1.8199951171875
2.4210205078125
3.0309082031249996
3.0325195312499997
3.0317138671875
3.029296875
3.0268798828124996
3.02607421875
3.029296875
3.02607421875
3.027685546875
3.02607421875
3.029296875
3.0284912109374997
3.0309082031249996
3.029296875
2.2268554687499997
0.394775390625
0.0249755859375
0.02578125
0.02578125
0.024169921875
0.0314208984375
0.02900390625
0.0201416015625
0.02578125
0.023364257812499997
0.024169921875
0.019335937499999997
0.0249755859375
0.0249755859375
0.02900390625
0.0249755859375
0.02578125
0.02578125
0.0217529296875
0.026586914062499998
0.02900390625
0.0829833984375
0.1571044921875
0.249755859375
0.314208984375
1.2850341796875
1.8264404296874999
2.7126708984374996
3.02607421875
3.027685546875
3.0252685546875
3.0309082031249996
3.0317138671875
3.029296875
3.0284912109374997
3.027685546875
3.029296875
3.0301025390625
3.027685546875
3.0317138671875
3.02607421875
3.0236572265625
0.45842285156249996
0.024169921875
0.027392578124999997
0.0249755859375
0.0201416015625
0.017724609375
0.02578125
0.024169921875
0.02578125
0.027392578124999997
0.026586914062499998
0.024169921875
0.026586914062499998
0.02578125
0.026586914062499998
0.02578125
0.02900390625
0.027392578124999997
0.027392578124999997
0.0217529296875
0.07814941406249999
0.15791015625
0.23283691406249998
0.3158203125
0.37785644531249996
1.3301513671874998
1.9134521484375
2.5305908203125
2.7448974609374996
2.9745117187499996
3.0301025390625
3.02607421875
3.0284912109374997
3.0284912109374997
3.0236572265625
3.029296875
3.029296875
3.027685546875
3.0309082031249996
3.0284912109374997
3.027685546875
3.0268798828124996
1.2785888671874999
0.0217529296875
0.02578125
0.0217529296875
0.02578125
0.027392578124999997
0.026586914062499998
0.02900390625
0.02578125
0.0249755859375
0.026586914062499998
0.0298095703125
0.02578125
0.02578125
0.026586914062499998
0.030615234374999998
0.024169921875
0.0249755859375
0.02578125
0.049951171875
0.12568359375
0.19658203124999998
0.2908447265625
0.3544921875
0.410888671875
0.4036376953125
0.98291015625
1.9190917968749999
2.45888671875
2.5821533203125
2.792431640625
3.0244628906249997
3.0284912109374997
3.027685546875
3.0236572265625
3.0284912109374997
3.027685546875
3.0268798828124996
3.0268798828124996
3.02607421875
3.029296875
3.029296875
1.4147460937499998
0.0249755859375
0.02900390625
0.0217529296875
0.022558593749999998
0.02578125
0.0249755859375
0.027392578124999997
0.024169921875
0.0298095703125
0.0249755859375
0.02578125
0.030615234374999998
0.0217529296875
0.02900390625
0.02578125
0.0249755859375
0.033032226562499996
0.09023437499999999
0.1619384765625
0.230419921875
0.298095703125
0.38510742187499997
0.44553222656249997
0.501123046875
0.5679931640625
1.0417236328125
1.5517089843749998
2.3984619140625
2.8149902343749997
2.900390625
3.0268798828124996
3.0284912109374997
3.0268798828124996
3.027685546875
3.0301025390625
3.0309082031249996
3.02607421875
3.0268798828124996
3.0252685546875
3.0268798828124996
3.0268798828124996
2.6949462890625
0.0749267578125
0.027392578124999997
0.026586914062499998
0.024169921875
0.02578125
0.026586914062499998
0.0249755859375
0.0314208984375
0.030615234374999998
0.0201416015625
0.026586914062499998
0.022558593749999998
0.024169921875
0.0217529296875
0.026586914062499998
0.023364257812499997
0.0362548828125
0.13857421875
0.207861328125
0.27392578125
0.362548828125
0.42136230468749997
0.47856445312499996
0.5486572265624999
1.0948974609375
1.980322265625
2.4081298828124997
3.0188232421874996
3.02607421875
3.029296875
3.0236572265625
3.0268798828124996
3.027685546875
3.0284912109374997
3.0252685546875
3.0301025390625
3.027685546875
3.029296875
3.0309082031249996
3.0309082031249996
3.02607421875
3.027685546875
0.81533203125
0.026586914062499998
0.02578125
0.02578125
0.020947265625
0.02578125
0.0217529296875
0.026586914062499998
0.02900390625
0.026586914062499998
0.02900390625
0.027392578124999997
0.0201416015625
0.027392578124999997
0.022558593749999998
0.0249755859375
0.02578125
0.022558593749999998
0.0322265625
0.12568359375
0.1998046875
0.26748046875
0.356103515625
0.41572265625
1.1093994140624999
1.76279296875
2.4749999999999996
3.027685546875
3.0268798828124996
3.0268798828124996
3.029296875
3.0284912109374997
3.0252685546875
3.0317138671875
3.0268798828124996
3.027685546875
3.027685546875
3.0284912109374997
3.02607421875
3.0284912109374997
3.0309082031249996
3.029296875
1.380908203125
0.0298095703125
0.02578125
0.024169921875
0.02578125
0.02578125
0.026586914062499998
0.02900390625
0.02578125
0.02578125
0.0249755859375
0.02578125
0.02578125
0.0249755859375
0.023364257812499997
0.027392578124999997
0.0217529296875
0.027392578124999997
0.0217529296875
0.026586914062499998
0.054785156249999994
0.11923828125
0.2215576171875
0.28681640625
0.8403076171874999
1.5492919921875
2.0633056640625
2.56845703125
3.0317138671875
3.027685546875
3.027685546875
3.0301025390625
3.0268798828124996
3.027685546875
3.02607421875
3.029296875
3.0389648437499996
3.0228515624999996
3.0268798828124996
3.0228515624999996
3.027685546875
3.0252685546875
1.155322265625
0.0217529296875
0.0249755859375
0.024169921875
0.026586914062499998
0.0249755859375
0.02578125
0.026586914062499998
0.02578125
0.020947265625
0.026586914062499998
0.02900390625
0.0249755859375
0.030615234374999998
0.02900390625
0.02578125
0.026586914062499998
0.023364257812499997
0.0217529296875
0.024169921875
0.0314208984375
0.12810058593749998
0.201416015625
0.2666748046875
1.0731445312499999
1.828857421875
2.5088378906249997
2.9028076171875
3.0268798828124996
3.0284912109374997
3.0284912109374997
3.0284912109374997
3.0220458984375
3.018017578125
3.029296875
3.0244628906249997
3.0309082031249996
3.0325195312499997
3.0268798828124996
3.0309082031249996
3.027685546875
3.0268798828124996
3.029296875
0.2666748046875
0.026586914062499998
0.026586914062499998
0.0249755859375
0.0249755859375
0.024169921875
0.030615234374999998
0.0249755859375
0.02900390625
0.02578125
0.023364257812499997
0.02900390625
0.019335937499999997
0.024169921875
0.02578125
0.020947265625
0.0281982421875
0.023364257812499997
0.0201416015625
0.027392578124999997
0.0281982421875
0.046728515624999994
0.11923828125
0.717041015625
1.3704345703124998
2.0665283203125
2.8858886718749996
3.0268798828124996
3.02607421875
3.0284912109374997
3.0325195312499997
3.0268798828124996
3.034130859375
3.02607421875
3.0268798828124996
3.0252685546875
3.02607421875
3.027685546875
3.027685546875
3.029296875
3.027685546875
3.0309082031249996
1.152099609375
0.023364257812499997
0.0249755859375
0.02578125
0.0298095703125
0.0249755859375
0.0217529296875
0.030615234374999998
0.02578125
0.0298095703125
0.02578125
0.0298095703125
0.026586914062499998
0.026586914062499998
0.0249755859375
0.026586914062499998
0.0249755859375
0.026586914062499998
0.0217529296875
0.027392578124999997
0.024169921875
0.026586914062499998
0.07814941406249999
0.781494140625
1.4477783203124999
1.960986328125
2.6200195312499996
3.0268798828124996
3.0284912109374997
3.02607421875
3.029296875
3.029296875
3.0301025390625
3.0268798828124996
3.0301025390625
3.027685546875
3.029296875
3.027685546875
3.027685546875
3.0301025390625
3.0228515624999996
3.0268798828124996
1.8457763671874998
0.027392578124999997
0.026586914062499998
0.02578125
0.02578125
0.0249755859375
0.0298095703125
0.0298095703125
0.023364257812499997
0.02578125
0.020947265625
0.0249755859375
0.020947265625
0.020947265625
0.023364257812499997
0.026586914062499998
0.026586914062499998
0.02578125
0.02578125
0.022558593749999998
0.0217529296875
0.02900390625
0.024169921875
0.072509765625
0.8910644531249999
1.6636962890625
2.23974609375
2.486279296875
3.0268798828124996
3.0284912109374997
3.02607421875
3.02607421875
3.027685546875
3.027685546875
3.0301025390625
3.027685546875
3.0301025390625
3.0309082031249996
3.029296875
3.02607421875
3.027685546875
3.027685546875
2.618408203125
0.0249755859375
0.0217529296875
0.027392578124999997
0.024169921875
0.02578125
0.0249755859375
0.026586914062499998
0.0249755859375
0.0298095703125
0.0249755859375
0.023364257812499997
0.0249755859375
0.0217529296875
0.024169921875
0.0249755859375
0.020947265625
0.0249755859375
0.022558593749999998
0.026586914062499998
0.02578125
0.02578125
0.026586914062499998
0.0797607421875
1.197216796875
1.7329833984374998
2.502392578125
2.7392578125
3.027685546875
3.027685546875
3.0268798828124996
3.0244628906249997
3.0244628906249997
3.0301025390625
3.0268798828124996
3.027685546875
3.0309082031249996
3.02607421875
3.029296875
3.0252685546875
3.027685546875
3.02607421875
3.027685546875
0.7234863281249999
0.02578125
0.026586914062499998
0.0298095703125
0.024169921875
0.026586914062499998
0.026586914062499998
0.026586914062499998
0.02578125
0.024169921875
0.0249755859375
0.0281982421875
0.0322265625
0.026586914062499998
0.023364257812499997
0.02900390625
0.02578125
0.02578125
0.02578125
0.02578125
0.0281982421875
0.02578125
0.027392578124999997
1.0127197265624999
1.5492919921875
2.1019775390624997
2.3557617187499997
3.0301025390625
3.027685546875
3.029296875
3.029296875
3.027685546875
3.0325195312499997
3.0252685546875
3.029296875
3.027685546875
3.0268798828124996
3.02607421875
3.0301025390625
3.0284912109374997
3.029296875
3.0236572265625
1.1496826171874999
0.02578125
0.024169921875
0.024169921875
0.0217529296875
0.02900390625
0.02578125
0.02578125
0.02578125
0.0281982421875
0.019335937499999997
0.019335937499999997
0.0249755859375
0.024169921875
0.030615234374999998
0.024169921875
0.026586914062499998
0.022558593749999998
0.02900390625
0.0249755859375
0.030615234374999998
0.0249755859375
0.022558593749999998
0.9579345703125
1.5541259765625
1.9956298828124999
2.75537109375
3.027685546875
3.02607421875
3.029296875
3.0325195312499997
3.0284912109374997
3.0284912109374997
3.0284912109374997
3.021240234375
3.0317138671875
3.02607421875
3.027685546875
3.0268798828124996
3.029296875
3.027685546875
3.02607421875
3.027685546875
0.030615234374999998
0.024169921875
0.022558593749999998
0.022558593749999998
0.024169921875
0.026586914062499998
0.02578125
0.020947265625
0.02578125
0.024169921875
0.0249755859375
0.02578125
0.0314208984375
0.0217529296875
0.02578125
0.02578125
0.0298095703125
0.026586914062499998
0.027392578124999997
0.0249755859375
0.02578125
0.0249755859375
0.026586914062499998
0.8789794921874999
1.5509033203125
2.486279296875
3.0002929687499997
3.0228515624999996
3.027685546875
3.0268798828124996
3.029296875
3.029296875
3.0325195312499997
3.0252685546875
3.0268798828124996
3.027685546875
3.029296875
3.0268798828124996
3.0301025390625
3.029296875
3.027685546875
3.027685546875
0.2505615234375
0.024169921875
0.020947265625
0.027392578124999997
0.02578125
0.022558593749999998
0.026586914062499998
0.02578125
0.026586914062499998
0.027392578124999997
0.02578125
0.0217529296875
0.026586914062499998
0.0201416015625
0.022558593749999998
0.02578125
0.02578125
0.024169921875
0.02578125
0.026586914062499998
0.023364257812499997
0.026586914062499998
0.02578125
0.984521484375
1.687060546875
2.24619140625
2.5845703125
3.027685546875
3.0357421875
3.027685546875
3.01962890625
3.029296875
3.02607421875
3.029296875
3.0284912109374997
3.0268798828124996
3.027685546875
3.02607421875
3.02607421875
3.034130859375
3.0268798828124996
3.0284912109374997
0.9716308593749999
0.0217529296875
0.0281982421875
0.0249755859375
0.0249755859375
0.02578125
0.0249755859375
0.026586914062499998
0.024169921875
0.0249755859375
0.0249755859375
0.02578125
0.02578125
0.0249755859375
0.026586914062499998
0.0298095703125
0.023364257812499997
0.026586914062499998
0.022558593749999998
0.022558593749999998
0.02578125
0.026586914062499998
0.030615234374999998
0.8660888671875
1.490478515625
1.9376220703125
2.5305908203125
3.029296875
3.0236572265625
3.0284912109374997
3.027685546875
3.0252685546875
3.0325195312499997
3.0333251953125
3.0244628906249997
3.0284912109374997
3.029296875
3.029296875
3.0284912109374997
3.0228515624999996
3.029296875
3.027685546875
2.7126708984374996
0.0249755859375
0.0298095703125
0.02578125
0.024169921875
0.023364257812499997
0.02900390625
0.024169921875
0.02900390625
0.0298095703125
0.020947265625
0.019335937499999997
0.02578125
0.023364257812499997
0.0249755859375
0.0249755859375
0.02900390625
0.02578125
0.026586914062499998
0.0281982421875
0.027392578124999997
0.024169921875
0.027392578124999997
0.64775390625
1.353515625
1.8844482421875
2.6514404296875
3.027685546875
3.027685546875
3.02607421875
2.9865966796874996
3.027685546875
3.0252685546875
3.027685546875
3.029296875
3.027685546875
3.0228515624999996
3.0268798828124996
3.02607421875
3.0268798828124996
3.0317138671875
3.02607421875
3.02607421875
0.02578125
0.02578125
0.02578125
0.0217529296875
0.0249755859375
0.02578125
0.0249755859375
0.02578125
0.027392578124999997
0.02578125
0.020947265625
0.026586914062499998
0.0281982421875
0.030615234374999998
0.022558593749999998
0.0249755859375
0.02578125
0.024169921875
0.0249755859375
0.0217529296875
0.0249755859375
0.022558593749999998
0.026586914062499998
0.9692138671874999
1.509814453125
2.292919921875
2.244580078125
3.0268798828124996
3.0317138671875
3.027685546875
3.0284912109374997
3.0228515624999996
3.0317138671875
3.0244628906249997
3.029296875
3.027685546875
3.0325195312499997
3.0309082031249996
3.0228515624999996
3.0284912109374997
3.0228515624999996
3.0317138671875
0.4552001953125
0.026586914062499998
0.0298095703125
0.024169921875
0.026586914062499998
0.0249755859375
0.026586914062499998
0.027392578124999997
0.024169921875
0.0249755859375
0.02578125
0.026586914062499998
0.026586914062499998
0.02900390625
0.026586914062499998
0.024169921875
0.0249755859375
0.0249755859375
0.026586914062499998
0.0346435546875
0.02578125
0.0249755859375
0.0298095703125
0.8604492187499999
1.658056640625
2.1374267578125
2.6860839843749997
3.027685546875
3.027685546875
3.0236572265625
3.029296875
3.027685546875
3.029296875
3.0325195312499997
3.0244628906249997
3.027685546875
3.0317138671875
3.029296875
3.0268798828124996
3.0268798828124996
3.029296875
3.0284912109374997
1.6403320312499998
0.02578125
0.023364257812499997
0.02578125
0.026586914062499998
0.0201416015625
0.02578125
0.023364257812499997
0.026586914062499998
0.0281982421875
0.0314208984375
0.022558593749999998
0.0217529296875
0.0217529296875
0.0281982421875
0.030615234374999998
0.026586914062499998
0.02900390625
0.026586914062499998
0.0281982421875
0.020947265625
0.0281982421875
0.02578125
0.6388916015624999
1.174658203125
1.7088134765624998
2.450830078125
2.8681640625
3.027685546875
3.0268798828124996
3.029296875
3.027685546875
3.0309082031249996
3.0268798828124996
3.0252685546875
3.0252685546875
3.0284912109374997
3.027685546875
3.027685546875
3.0252685546875
3.0268798828124996
3.0268798828124996
3.0268798828124996
0.16677246093749998
0.023364257812499997
0.027392578124999997
0.023364257812499997
0.0249755859375
0.0249755859375
0.0281982421875
0.02578125
0.026586914062499998
0.026586914062499998
0.0281982421875
0.02578125
0.027392578124999997
0.02578125
0.026586914062499998
0.02578125
0.0298095703125
0.030615234374999998
0.023364257812499997
0.02900390625
0.026586914062499998
0.027392578124999997
0.5212646484375
1.135986328125
1.7732666015624998
2.5313964843749996
2.9438964843749997
3.0317138671875
3.02607421875
3.029296875
3.027685546875
3.0333251953125
3.0220458984375
3.0309082031249996
3.027685546875
3.0284912109374997
3.0301025390625
3.029296875
3.02607421875
3.0268798828124996
3.02607421875
3.0284912109374997
0.13857421875
0.02578125
0.026586914062499998
0.0281982421875
0.0249755859375
0.0281982421875
0.023364257812499997
0.02578125
0.026586914062499998
0.02578125
0.02578125
0.02578125
0.02578125
0.02578125
0.0281982421875
0.020947265625
0.020947265625
0.0104736328125
0.0249755859375
0.0249755859375
0.02578125
0.02578125
0.02578125
0.6018310546875
1.2930908203125
2.0133544921874997
2.5265625
3.0204345703124997
3.0228515624999996
3.029296875
3.0284912109374997
3.0301025390625
3.027685546875
3.0252685546875
3.027685546875
3.0268798828124996
3.0301025390625
3.0268798828124996
3.0309082031249996
3.0268798828124996
3.0333251953125
3.0309082031249996
1.0481689453125
0.022558593749999998
0.0322265625
0.02578125
0.02578125
0.026586914062499998
0.030615234374999998
0.0217529296875
0.02578125
0.024169921875
0.024169921875
0.0217529296875
0.020947265625
0.0217529296875
0.024169921875
0.0298095703125
0.024169921875
0.0249755859375
0.02578125
0.026586914062499998
0.024169921875
0.0217529296875
0.0217529296875
0.66064453125
1.3712402343749999
2.0681396484375
2.6925292968749996
3.0325195312499997
3.0268798828124996
3.0333251953125
2.9753173828125
3.02607421875
3.0252685546875
3.0268798828124996
3.02607421875
3.0236572265625
3.029296875
3.0317138671875
3.02607421875
3.0317138671875
3.027685546875
3.0333251953125
3.029296875
0.0217529296875
0.0249755859375
0.0249755859375
0.0217529296875
0.0281982421875
0.027392578124999997
0.02578125
0.026586914062499998
0.02578125
0.02578125
0.0249755859375
0.026586914062499998
0.02578125
0.024169921875
0.02578125
0.02578125
0.0314208984375
0.026586914062499998
0.024169921875
0.02578125
0.026586914062499998
0.02578125
0.024169921875
1.148876953125
1.683837890625
2.286474609375
2.94873046875
3.0284912109374997
3.027685546875
3.0268798828124996
3.0228515624999996
3.029296875
3.0284912109374997
3.02607421875
3.0309082031249996
3.027685546875
3.02607421875
3.0325195312499997
3.029296875
3.0268798828124996
3.0252685546875
3.0284912109374997
0.6670898437499999
0.02578125
0.0281982421875
0.02900390625
0.02578125
0.019335937499999997
0.026586914062499998
0.02578125
0.026586914062499998
0.023364257812499997
0.02578125
0.02578125
0.02900390625
0.020947265625
0.02578125
0.02578125
0.019335937499999997
0.018530273437499998
0.026586914062499998
0.02578125
0.0201416015625
0.026586914062499998
0.02900390625
0.9853271484374999
1.5565429687499999
2.07216796875
2.70703125
3.0333251953125
3.027685546875
3.0309082031249996
3.0268798828124996
3.027685546875
3.0268798828124996
3.02607421875
3.0284912109374997
3.0268798828124996
3.0236572265625
3.0252685546875
3.0236572265625
3.02607421875
3.0268798828124996
3.0228515624999996
1.493701171875
0.0201416015625
0.0249755859375
0.023364257812499997
0.0217529296875
0.02578125
0.0249755859375
0.02578125
0.0249755859375
0.0249755859375
0.0217529296875
0.02900390625
0.0249755859375
0.026586914062499998
0.02578125
0.0298095703125
0.0249755859375
0.027392578124999997
0.022558593749999998
0.026586914062499998
0.0298095703125
0.02578125
0.0281982421875
0.7033447265624999
1.271337890625
1.9545410156249998
2.599072265625
2.9076416015624997
3.0317138671875
3.0317138671875
3.027685546875
3.0244628906249997
3.029296875
3.0284912109374997
3.0301025390625
3.0228515624999996
3.027685546875
3.0228515624999996
3.027685546875
3.0236572265625
3.0268798828124996
3.0268798828124996
1.8925048828125
0.019335937499999997
0.02578125
0.023364257812499997
0.0298095703125
0.02578125
0.026586914062499998
0.0249755859375
0.02578125
0.022558593749999998
0.024169921875
0.0249755859375
0.0249755859375
0.02578125
0.022558593749999998
0.02578125
0.026586914062499998
0.02578125
0.0249755859375
0.022558593749999998
0.02578125
0.0249755859375
0.027392578124999997
0.7871337890625
1.3607666015625
2.0423583984375
2.7030029296875
2.9688720703125
3.034130859375
3.027685546875
3.0357421875
3.029296875
3.0268798828124996
3.027685546875
3.0268798828124996
3.029296875
3.027685546875
3.027685546875
3.0220458984375
3.02607421875
3.0284912109374997
3.0244628906249997
3.029296875
0.15468749999999998
0.02578125
0.0249755859375
0.02578125
0.0249755859375
0.0249755859375
0.0281982421875
0.027392578124999997
0.0298095703125
0.027392578124999997
0.027392578124999997
0.0217529296875
0.026586914062499998
0.026586914062499998
0.0249755859375
0.02578125
0.0314208984375
0.0217529296875
0.026586914062499998
0.026586914062499998
0.026586914062499998
0.0298095703125
0.02578125
0.95068359375
1.7015624999999999
2.238134765625
2.70703125
3.0268798828124996
3.0309082031249996
3.0244628906249997
3.027685546875
3.027685546875
3.0317138671875
3.02607421875
3.027685546875
3.02607421875
3.0139892578125
3.0284912109374997
3.0309082031249996
3.0268798828124996
3.0284912109374997
3.0268798828124996
1.1512939453125
0.02578125
0.0249755859375
0.02578125
0.0249755859375
0.026586914062499998
0.024169921875
0.0314208984375
0.02578125
0.02578125
0.02578125
0.026586914062499998
0.0298095703125
0.02578125
0.02578125
0.0281982421875
0.0249755859375
0.023364257812499997
0.027392578124999997
0.030615234374999998
0.024169921875
0.02578125
0.0249755859375
0.668701171875
1.2383056640624999
1.7668212890625
2.6039062499999996
3.005126953125
3.01962890625
3.02607421875
3.0268798828124996
3.0317138671875
3.02607421875
3.021240234375
2.98095703125
3.0252685546875
3.0284912109374997
3.027685546875
3.0301025390625
3.027685546875
3.02607421875
3.029296875
2.1164794921875
0.02900390625
0.0249755859375
0.0249755859375
0.0249755859375
0.0249755859375
0.02578125
0.0249755859375
0.024169921875
0.0217529296875
0.026586914062499998
0.0249755859375
0.02578125
0.026586914062499998
0.0281982421875
0.02578125
0.022558593749999998
0.0249755859375
0.02578125
0.026586914062499998
0.0249755859375
0.0281982421875
0.02578125
0.7073730468749999
1.2189697265625
1.751513671875
2.4846679687499997
2.9020019531249996
3.0236572265625
3.027685546875
3.0236572265625
3.0284912109374997
3.0381591796875
3.0284912109374997
2.985791015625
3.0236572265625
3.0244628906249997
3.0228515624999996
3.0268798828124996
3.0244628906249997
3.0325195312499997
3.0236572265625
3.029296875
0.0298095703125
0.02578125
0.0249755859375
0.026586914062499998
0.02578125
0.02578125
0.0249755859375
0.0201416015625
0.0217529296875
0.024169921875
0.02578125
0.0298095703125
0.030615234374999998
0.0217529296875
0.0249755859375
0.02578125
0.0249755859375
0.026586914062499998
0.026586914062499998
0.02578125
0.02578125
0.02578125
0.19497070312499998
1.2705322265624999
1.8425537109374999
2.566845703125
2.8931396484375
3.0244628906249997
3.0252685546875
3.027685546875
3.029296875
3.0268798828124996
3.0236572265625
3.003515625
2.9583984374999996
3.027685546875
3.0268798828124996
3.0268798828124996
3.0268798828124996
3.0252685546875
3.027685546875
3.0309082031249996
0.026586914062499998
0.026586914062499998
0.0249755859375
0.0249755859375
0.023364257812499997
0.027392578124999997
0.0281982421875
0.02578125
0.026586914062499998
0.02578125
0.0249755859375
0.024169921875
0.030615234374999998
0.0249755859375
0.0249755859375
0.02578125
0.024169921875
0.026586914062499998
0.02578125
0.02578125
0.020947265625
0.020947265625
0.0322265625
1.2938964843749998
2.1809326171875
2.6135742187499997
3.0228515624999996
3.02607421875
3.029296875
3.027685546875
3.0325195312499997
3.0284912109374997
3.027685546875
3.02607421875
3.0244628906249997
3.027685546875
3.027685546875
3.0244628906249997
3.0252685546875
3.0333251953125
3.0268798828124996
3.0268798828124996
3.0325195312499997
3.027685546875
3.0301025390625
2.321923828125
1.6508056640625
0.6630615234374999
0.44794921875
0.13615722656249998
0.0217529296875
0.08137207031249999
0.054785156249999994
0.024169921875
0.027392578124999997
0.030615234374999998
0.02578125
0.0217529296875
0.024169921875
0.02578125
0.0201416015625
0.02578125
0.02578125
0.0201416015625
0.02578125
1.72412109375
2.34609375
2.8866943359375
3.0244628906249997
3.027685546875
3.0317138671875
3.027685546875
3.0268798828124996
3.0309082031249996
3.027685546875
3.029296875
3.0236572265625
3.029296875
3.029296875
3.0268798828124996
3.02607421875
3.0268798828124996
3.0244628906249997
3.02607421875
3.029296875
1.4332763671875
0.420556640625
0.0281982421875
0.030615234374999998
0.022558593749999998
0.02900390625
0.026586914062499998
0.020947265625
0.15791015625
0.21591796875
0.3230712890625
0.559130859375
0.613916015625
0.02900390625
0.0314208984375
0.02578125
0.0281982421875
0.019335937499999997
0.026586914062499998
0.020947265625
3.0301025390625
3.0284912109374997
3.02607421875
3.0317138671875
3.0309082031249996
3.0317138671875
3.027685546875
3.029296875
3.027685546875
3.027685546875
3.02607421875
3.0325195312499997
3.0228515624999996
3.0284912109374997
3.0284912109374997
3.027685546875
3.027685546875
3.0284912109374997
3.029296875
3.0268798828124996
3.027685546875
2.1197021484375
1.1666015625
3.02607421875
3.0284912109374997
3.0244628906249997
3.0317138671875
3.0268798828124996
3.027685546875
3.0228515624999996
3.027685546875
3.0236572265625
3.0284912109374997
3.029296875
3.0236572265625
3.0268798828124996
3.027685546875
3.0228515624999996
3.0309082031249996
3.02607421875
3.0268798828124996
3.0228515624999996
3.0284912109374997
3.02607421875
3.02607421875
3.0268798828124996
3.0284912109374997
3.0268798828124996
3.0268798828124996
3.027685546875
3.0284912109374997
3.0309082031249996
3.0244628906249997
3.0284912109374997
3.02607421875
3.027685546875
3.029296875
3.0252685546875
2.731201171875
2.1744873046874997
1.7168701171874998
0.030615234374999998
0.0298095703125
0.023364257812499997
0.0249755859375
0.024169921875
0.02578125
0.020947265625
0.02578125
0.020947265625
0.10151367187499999
0.056396484375
0.22075195312499998
0.2747314453125
0.21672363281249998
0.24331054687499998
0.27231445312499997
0.024169921875
0.0217529296875
0.8531982421875
0.59619140625
0.55751953125
1.3229003906249999
1.764404296875
3.02607421875
3.0244628906249997
1.8820312499999998
1.0723388671875
0.5663818359375
0.12810058593749998
0.0990966796875
0.1699951171875
0.3279052734375
0.30454101562499997
0.359326171875
0.41330566406249997
0.5019287109375
0.5599365234375
0.6090820312499999
3.027685546875
2.0633056640625
1.4888671875
1.1303466796875
0.3681884765625
0.02578125
0.02578125
0.024169921875
0.023364257812499997
0.21672363281249998
0.44956054687499997
0.75732421875
0.849169921875
1.07958984375
1.15693359375
1.1802978515625
1.3704345703124998
1.3083984375
1.3285400390625
1.313232421875
1.2205810546875
0.030615234374999998
0.7395996093749999
1.213330078125
1.2254150390625
1.6371093749999999
2.115673828125
3.0268798828124996
3.027685546875
2.30419921875
1.674169921875
1.1706298828125
1.0320556640625
1.1029541015625
1.1206787109375
1.200439453125
1.1512939453125
1.0304443359375
1.0868408203125
1.1802978515625
1.2439453125
1.2963134765625
3.0325195312499997
2.9656494140625
1.8473876953125
1.6250244140624999
1.2656982421874998
0.53173828125
0.0249755859375
0.02578125
0.027392578124999997
0.38671875
0.87333984375
1.219775390625
1.2826171874999999
1.66611328125
1.6604736328124998
1.6951171875
1.748291015625
1.6363037109374998
1.6234130859375
1.577490234375
1.52109375
0.02578125
0.050756835937499994
1.377685546875
1.4501953125
1.7313720703125
2.4532470703125
3.027685546875
3.0244628906249997
2.8657470703124996
1.920703125
1.5718505859374998
1.3599609375
1.3341796874999998
1.268115234375
1.4316650390624999
1.4147460937499998
1.3100097656249998
1.353515625
1.3559326171875
1.4308593749999998
1.426025390625
2.3638183593749997
2.9390625
1.8038818359375
1.6862548828125
1.4703369140625
0.6767578125
0.18369140625
0.02578125
0.024169921875
0.5285156249999999
1.044140625
1.3414306640625
1.5605712890624999
1.6314697265625
1.7587646484375
1.7281494140625
1.8151611328125
1.8119384765625
1.7281494140625
1.64677734375
1.609716796875
0.40122070312499997
0.0926513671875
1.3172607421875
1.5170654296875
1.786962890625
2.3291748046875
2.5265625
3.0349365234374996
2.6256591796874997
1.9916015624999999
1.6129394531249999
1.3349853515624999
1.3067871093749999
1.4203857421875
1.5073974609374998
1.4187744140624998
1.4308593749999998
1.4348876953124998
1.4783935546875
1.4429443359374998
1.4630859374999998
1.9827392578124998
3.027685546875
2.047998046875
1.635498046875
1.4888671875
1.0223876953125
0.7484619140625
0.0249755859375
0.02578125
0.32548828124999996
0.994189453125
1.361572265625
1.558154296875
1.5436523437499998
1.722509765625
1.6806152343749998
1.6645019531249998
1.7692382812499998
1.7474853515625
1.7370117187499998
1.6379150390625
0.9079833984375
0.02578125
1.0803955078125
1.426025390625
1.6161621093749998
1.9585693359374998
2.4822509765625
3.027685546875
3.029296875
2.0874755859375
1.6854492187499999
1.4888671875
1.4066894531249998
1.4574462890625
1.4550292968749998
1.4252197265625
1.3817138671875
1.4244140625
1.42119140625
1.5299560546875
1.5138427734375
1.4228027343749998
3.0244628906249997
2.193017578125
1.7764892578125
1.5984375
1.10859375
0.8145263671874999
0.0459228515625
0.0217529296875
0.3311279296875
0.87333984375
1.2189697265625
1.5194824218749998
1.546875
1.7080078125
1.722509765625
1.7410400390624998
1.7289550781249998
1.7007568359374998
1.6443603515624998
1.6886718749999998
1.593603515625
0.0314208984375
1.0078857421875
1.45341796875
1.56298828125
1.9634033203124999
2.2365234375
3.027685546875
3.0268798828124996
2.3662353515625
1.8175781249999998
1.5944091796875
1.3301513671874998
1.4840332031249999
1.4501953125
1.5533203125
1.5492919921875
1.3921875
1.4469726562499998
1.4364990234375
1.4107177734374998
1.4550292968749998
3.0252685546875
2.624853515625
1.8256347656249998
1.6483886718749998
1.3470703124999999
0.8950927734374999
0.022558593749999998
0.024169921875
0.1426025390625
0.6977050781249999
1.2181640624999999
1.5235107421874998
1.5218994140625
1.7047851562499998
1.7152587890625
1.6854492187499999
1.767626953125
1.7926025390625
1.6612792968749999
1.6508056640625
1.5750732421875
0.026586914062499998
0.38188476562499996
1.4711425781249998
1.542041015625
1.754736328125
2.270361328125
3.0244628906249997
3.027685546875
2.5096435546875
1.783740234375
1.545263671875
1.4606689453125
1.4429443359374998
1.4276367187499999
1.4606689453125
1.458251953125
1.4469726562499998
1.4228027343749998
1.4219970703125
1.4501953125
1.4751708984374998
2.663525390625
3.0566894531249997
1.912646484375
1.662890625
1.3946044921874998
0.9015380859375
0.5607421874999999
0.0652587890625
0.13212890624999998
0.733154296875
1.1496826171874999
1.4364990234375
1.4687255859375
1.6234130859375
1.71123046875
1.6749755859375
1.7853515624999998
1.828857421875
1.7611816406249998
1.61455078125
1.5887695312499999
0.12890625
0.32548828124999996
1.33740234375
1.5041748046874999
1.8216064453124998
2.2308837890624997
2.4371337890625
3.029296875
2.5958496093749996
1.98193359375
1.6040771484374998
1.4429443359374998
1.3857421875
1.4348876953124998
1.4928955078125
1.5557373046874998
1.40185546875
1.361572265625
1.4219970703125
1.4461669921875
1.4518066406249999
2.3597900390624997
3.0268798828124996
2.0085205078125
1.65
1.50498046875
1.052197265625
0.807275390625
0.233642578125
0.12890625
0.48984374999999997
1.0892578124999999
1.4058837890625
1.4840332031249999
1.6072998046875
1.71123046875
1.735400390625
1.7490966796874998
1.77890625
1.6910888671875
1.6475830078125
1.5807128906249999
0.47373046874999997
0.024169921875
1.1923828125
1.4864501953125
1.6508056640625
2.0536376953124997
2.36865234375
3.0284912109374997
2.9519531249999997
2.022216796875
1.6290527343749999
1.496923828125
1.4373046875
1.40830078125
1.4880615234374999
1.558154296875
1.416357421875
1.416357421875
1.4397216796874999
1.4598632812499999
1.445361328125
1.4711425781249998
3.027685546875
2.1567626953125
1.7426513671875
1.585546875
1.0449462890624999
0.7782714843749999
0.095068359375
0.11762695312499999
0.5446289062499999
0.9990234375
1.3019531249999998
1.5557373046874998
1.5484863281249999
1.722509765625
1.6773925781249999
1.703173828125
1.7861572265624999
1.7249267578124998
1.5831298828125
1.6129394531249999
1.5799072265624998
0.018530273437499998
1.0650878906249999
1.413134765625
1.6725585937499998
2.0214111328124997
2.1986572265624997
3.029296875
2.8738037109374996
2.2373291015625
1.732177734375
1.4429443359374998
1.3736572265625
1.4195800781249999
1.4679199218749999
1.4800048828124999
1.3873535156249999
1.405078125
1.4332763671875
1.442138671875
1.4010498046875
1.5106201171875
3.02607421875
2.4556640625
1.764404296875
1.6532226562499999
1.3744628906249998
0.936181640625
0.1119873046875
0.153076171875
0.31662597656249997
1.02158203125
1.2777832031249998
1.448583984375
1.5726562499999999
1.7265380859375
1.6951171875
1.6129394531249999
1.7362060546875
1.6822265625
1.6435546875
1.6266357421875
1.5726562499999999
0.02578125
0.5889404296874999
1.4671142578124998
1.5718505859374998
1.8224121093749999
2.2131591796875
3.0309082031249996
3.0284912109374997
2.1567626953125
1.7233154296875
1.5235107421874998
1.400244140625
1.4276367187499999
1.4332763671875
1.5202880859374999
1.52109375
1.3494873046875
1.38896484375
1.4945068359375
1.4953124999999998
1.445361328125
2.8190185546874997
2.4065185546875
1.7015624999999999
1.6089111328124999
1.340625
0.9756591796874999
0.43425292968749996
0.30856933593749997
0.485009765625
0.9152343749999999
1.3019531249999998
1.5202880859374999
1.4928955078125
1.6185791015625
1.6894775390624999
1.74345703125
1.71123046875
1.65966796875
1.6024658203125
1.5678222656249998
1.5791015625
0.02578125
0.6050537109374999
1.3712402343749999
1.5758789062499998
1.8256347656249998
2.1744873046874997
2.3557617187499997
3.029296875
2.4613037109375
1.9005615234375
1.48564453125
1.3921875
1.442138671875
1.432470703125
1.4155517578124999
1.48564453125
1.3905761718749998
1.4195800781249999
1.4429443359374998
1.4389160156249998
1.44052734375
2.56845703125
2.9108642578125
1.7958251953125
1.6306640625
1.3792968749999999
0.990966796875
0.6356689453125
0.451171875
0.39719238281249997
1.019970703125
1.2834228515625
1.45341796875
1.5275390624999998
1.5887695312499999
1.6540283203125
1.5726562499999999
1.6524169921874998
1.6282470703124998
1.5944091796875
1.6234130859375
1.5968261718749999
0.41813964843749996
0.6413085937499999
1.4606689453125
1.5444580078124999
1.6056884765625
2.0625
2.1728759765625
3.0309082031249996
2.30419921875
1.8119384765625
1.5589599609375
1.4364990234375
1.4316650390624999
1.4767822265625
1.4912841796874998
1.4493896484375
1.4123291015625
1.4364990234375
1.4872558593749998
1.4364990234375
1.4920898437499999
2.2196044921875
2.8496337890624996
1.877197265625
1.5799072265624998
1.48564453125
1.1279296875
1.010302734375
0.5792724609375
0.5357666015625
0.8644775390624999
1.2882568359375
1.4413330078125
1.4703369140625
1.5517089843749998
1.6314697265625
1.65
1.6451660156249999
1.6927001953124998
1.6040771484374998
1.5605712890624999
1.558154296875
0.6348632812499999
0.11279296875
1.24072265625
1.5412353515625
1.6314697265625
1.9102294921874998
2.157568359375
3.0325195312499997
2.6159912109374996
1.82080078125
1.6177734375
1.4880615234374999
1.4236083984374999
1.513037109375
1.4373046875
1.4711425781249998
1.432470703125
1.4461669921875
1.4518066406249999
1.5275390624999998
1.4920898437499999
1.4187744140624998
3.027685546875
1.912646484375
1.6048828124999999
1.5275390624999998
1.1456542968749999
1.039306640625
0.6114990234375
0.510791015625
0.8999267578125
1.1947998046875
1.432470703125
1.5017578125
1.5041748046874999
1.5758789062499998
1.5589599609375
1.6056884765625
1.6532226562499999
1.6411376953124999
1.6089111328124999
1.56298828125
1.5275390624999998
0.09990234375
1.2366943359375
1.4945068359375
1.577490234375
1.8554443359375
1.9521240234375
2.96162109375
2.6756103515625
2.0020751953125
1.654833984375
1.4622802734375
1.4364990234375
1.513037109375
1.5041748046874999
1.4920898437499999
1.4953124999999998
1.4228027343749998
1.4501953125
1.5041748046874999
1.5041748046874999
1.4920898437499999
3.027685546875
2.1503173828124997
1.699951171875
1.5009521484375
1.3664062499999998
1.0828125
0.48662109374999996
0.5244873046874999
0.760546875
1.2302490234374999
1.3833251953124999
1.477587890625
1.4091064453125
1.587158203125
1.6153564453125
1.5766845703124999
1.674169921875
1.6121337890624998
1.545263671875
1.6121337890624998
1.571044921875
0.0249755859375
0.800830078125
1.4751708984374998
1.5782958984375
1.7466796875
1.9916015624999999
2.9986816406249996
2.9100585937499996
2.015771484375
1.6443603515624998
1.4622802734375
1.445361328125
1.5186767578125
1.464697265625
1.4703369140625
1.4622802734375
1.44052734375
1.458251953125
1.4832275390624998
1.4888671875
1.4526123046875
2.6288818359375
2.2937255859375
1.7370117187499998
1.5799072265624998
1.3688232421875
1.116650390625
0.829833984375
0.578466796875
0.7178466796874999
1.0650878906249999
1.287451171875
1.4630859374999998
1.4953124999999998
1.6056884765625
1.5960205078124998
1.5831298828125
1.635498046875
1.6089111328124999
1.5331787109375
1.585546875
1.561376953125
0.0217529296875
0.7798828124999999
1.4719482421874999
1.5726562499999999
1.7128417968749998
2.044775390625
2.6095458984374997
3.0164062499999997
2.3098388671875
1.7926025390625
1.4679199218749999
1.4397216796874999
1.4671142578124998
1.4872558593749998
1.4872558593749998
1.4888671875
1.4276367187499999
1.4518066406249999
1.4735595703125
1.5041748046874999
1.49853515625
2.450830078125
2.69091796875
1.662890625
1.558154296875
1.4477783203124999
1.0965087890625
0.6654785156249999
0.6533935546874999
0.7017333984374999
1.0739501953125
1.2544189453124999
1.416357421875
1.5106201171875
1.5887695312499999
1.6298583984375
1.611328125
1.590380859375
1.5645996093749999
1.561376953125
1.5758789062499998
1.5533203125
0.388330078125
0.7758544921874999
1.4526123046875
1.4953124999999998
1.6137451171875
2.0069091796875
2.1205078125
3.0309082031249996
2.29775390625
1.7635986328125
1.55009765625
1.45341796875
1.458251953125
1.490478515625
1.4880615234374999
1.529150390625
1.4735595703125
1.4413330078125
1.4348876953124998
1.474365234375
1.4864501953125
1.5654052734375
2.7102539062499997
1.8763916015625
1.5541259765625
1.4493896484375
1.14404296875
1.0127197265624999
0.7178466796874999
0.5905517578125
0.8830078124999999
1.24716796875
1.48564453125
1.4711425781249998
1.4469726562499998
1.5911865234375
1.5968261718749999
1.55009765625
1.6290527343749999
1.6508056640625
1.6048828124999999
1.5364013671874999
0.678369140625
0.24895019531249998
1.2528076171875
1.4961181640624999
1.5919921874999998
1.8602783203125
2.101171875
3.0301025390625
2.537841796875
1.9529296875
1.5412353515625
1.4429443359374998
1.4171630859375
1.4574462890625
1.464697265625
1.490478515625
1.4510009765624998
1.4284423828125
1.4719482421874999
1.4735595703125
1.4864501953125
1.493701171875
3.0228515624999996
1.85625
1.5678222656249998
1.4920898437499999
1.2012451171875
1.0191650390625
0.5567138671874999
0.631640625
0.9337646484375
1.21171875
1.432470703125
1.5283447265624999
1.5863525390625
1.5799072265624998
1.5283447265624999
1.546875
1.6000488281249998
1.6089111328124999
1.5460693359375
1.5960205078124998
1.611328125
0.1957763671875
1.1923828125
1.4622802734375
1.5984375
1.8336914062499998
1.980322265625
2.7867919921874997
2.65546875
2.0165771484375
1.6806152343749998
1.52109375
1.3865478515624998
1.477587890625
1.5154541015624998
1.52109375
1.525927734375
1.4228027343749998
1.4759765624999999
1.4735595703125
1.477587890625
1.48564453125
3.0301025390625
2.18173828125
1.6072998046875
1.5106201171875
1.3390136718749999
1.11826171875
0.5873291015625
0.6066650390625
0.8386962890624999
1.252001953125
1.4203857421875
1.4228027343749998
1.4945068359375
1.5984375
1.5766845703124999
1.6290527343749999
1.6081054687499998
1.538818359375
1.545263671875
1.60166015625
1.574267578125
0.019335937499999997
1.1883544921875
1.4542236328125
1.5565429687499999
1.7378173828124999
1.9182861328124998
2.5579833984375
2.9189208984375
2.0923095703125
1.6878662109375
1.5380126953125
1.3929931640625
1.5001464843749999
1.4558349609374999
1.5114257812499998
1.4630859374999998
1.4687255859375
1.51787109375
1.5275390624999998
1.4840332031249999
1.4203857421875
3.021240234375
2.1841552734375
1.7136474609374999
1.55009765625
1.4026611328124998
1.1722412109375
0.7283203125
0.6429199218749999
0.7541015624999999
1.1013427734374999
1.3462646484374998
1.5001464843749999
1.4735595703125
1.6177734375
1.5992431640625
1.5992431640625
1.6451660156249999
1.62744140625
1.5919921874999998
1.554931640625
1.554931640625
0.0249755859375
0.8588378906249999
1.4356933593749999
1.5654052734375
1.7104248046875
1.893310546875
2.8721923828125
2.8786376953125
2.2244384765625
1.7555419921875
1.4848388671875
1.458251953125
1.47275390625
1.5082031249999999
1.5057861328125
1.4437499999999999
1.4816162109375
1.4791992187499998
1.4687255859375
1.4711425781249998
1.5001464843749999
2.4814453125
2.599072265625
1.714453125
1.6306640625
1.4389160156249998
1.152099609375
0.829833984375
0.620361328125
0.6493652343749999
1.116650390625
1.3712402343749999
1.4389160156249998
1.4719482421874999
1.56298828125
1.5476806640624998
1.5815185546875
1.6105224609375
1.5807128906249999
1.6000488281249998
1.5968261718749999
1.5734619140625
0.40605468749999996
0.8064697265624999
1.393798828125
1.4445556640625
1.73056640625
2.060888671875
2.1720703125
3.0309082031249996
2.2582763671875
1.780517578125
1.5436523437499998
1.4574462890625
1.5347900390625
1.509814453125
1.4848388671875
1.4872558593749998
1.4389160156249998
1.4590576171874998
1.4703369140625
1.4687255859375
1.4542236328125
2.3259521484375
2.6159912109374996
1.8304687499999999
1.5573486328125
1.4711425781249998
1.135986328125
1.0328613281249999
0.71220703125
0.688037109375
0.9434326171874999
1.3100097656249998
1.4864501953125
1.48564453125
1.5082031249999999
1.5911865234375
1.587158203125
1.609716796875
1.5702392578125
1.585546875
1.593603515625
1.5509033203125
0.5671875
0.29245605468749997
1.2399169921875
1.46953125
1.6749755859375
1.9303710937499998
2.118896484375
3.0301025390625
2.560400390625
1.8578613281249998
1.571044921875
1.4638916015624999
1.509814453125
1.416357421875
1.4832275390624998
1.51787109375
1.4550292968749998
1.4066894531249998
1.4598632812499999
1.4832275390624998
1.48564453125
1.4800048828124999
2.9664550781249996
1.9134521484375
1.6137451171875
1.5033691406249998
1.1537109374999999
1.029638671875
0.6010253906249999
0.6550048828124999
0.9257080078125
1.2141357421874999
1.3801025390625
1.458251953125
1.496923828125
1.554931640625
1.5887695312499999
1.6250244140624999
1.6379150390625
1.5597656249999998
1.6153564453125
1.590380859375
1.554931640625
0.21269531249999998
1.2568359375
1.5589599609375
1.6443603515624998
1.848193359375
1.91748046875
3.0284912109374997
2.4943359375
1.93359375
1.61455078125
1.490478515625
1.5082031249999999
1.461474609375
1.4751708984374998
1.5106201171875
1.50498046875
1.4630859374999998
1.4671142578124998
1.4526123046875
1.4945068359375
1.4928955078125
3.0067382812499996
2.109228515625
1.593603515625
1.496923828125
1.3212890625
1.1384033203125
0.597802734375
0.668701171875
0.8362792968749999
1.2254150390625
1.3704345703124998
1.4759765624999999
1.5315673828124998
1.5758789062499998
1.5791015625
1.5718505859374998
1.6475830078125
1.638720703125
1.5799072265624998
1.59521484375
1.496923828125
0.0217529296875
0.9555175781249999
1.4928955078125
1.5702392578125
1.7055908203124999
1.98193359375
2.6764160156249996
2.8899169921874996
2.0488037109375
1.67578125
1.50498046875
1.4219970703125
1.4993408203124998
1.4840332031249999
1.493701171875
1.5243164062499999
1.448583984375
1.4550292968749998
1.4115234374999999
1.4461669921875
1.45341796875
2.7207275390624996
2.238134765625
1.6967285156249998
1.5621826171875
1.3462646484374998
1.13115234375
0.6453369140624999
0.6654785156249999
0.8443359374999999
1.139208984375
1.2979248046874998
1.426025390625
1.4606689453125
1.5621826171875
1.5944091796875
1.6040771484374998
1.6161621093749998
1.5807128906249999
1.5992431640625
1.5734619140625
1.5355957031249998
0.023364257812499997
0.8902587890625
1.456640625
1.619384765625
1.7055908203124999
1.9408447265625
2.6159912109374996
2.9592041015625
2.2695556640625
1.8119384765625
1.4840332031249999
1.3962158203125
1.4832275390624998
1.4953124999999998
1.493701171875
1.4928955078125
1.4477783203124999
1.4606689453125
1.496923828125
1.477587890625
1.490478515625
2.5547607421875
2.4604980468749997
1.7200927734375
1.6040771484374998
1.3825195312499998
1.15693359375
0.8386962890624999
0.6251953124999999
0.6372802734374999
1.0884521484375
1.3059814453124998
1.445361328125
1.4735595703125
1.5960205078124998
1.5927978515624999
1.6105224609375
1.6379150390625
1.6814208984374999
1.5807128906249999
1.5573486328125
1.5597656249999998
0.323876953125
0.8306396484374999
1.416357421875
1.5597656249999998
1.6564453124999998
1.9658203125
2.2590820312499997
3.018017578125
2.1664306640624997
1.7007568359374998
1.5138427734375
1.4598632812499999
1.4880615234374999
1.5033691406249998
1.5243164062499999
1.480810546875
1.4655029296875
1.4719482421874999
1.45341796875
1.464697265625
1.43408203125
2.4427734375
2.5555664062499996
1.815966796875
1.5960205078124998
1.41796875
1.132763671875
1.0449462890624999
0.6856201171874999
0.6904541015625
0.97001953125
1.3478759765625
1.4010498046875
1.461474609375
1.5412353515625
1.6427490234375
1.5758789062499998
1.5654052734375
1.6153564453125
1.5815185546875
1.5766845703124999
1.533984375
0.5325439453124999
0.391552734375
1.303564453125
1.432470703125
1.6185791015625
1.88525390625
2.077001953125
3.0067382812499996
2.5410644531249997
1.844970703125
1.6121337890624998
1.496923828125
1.4348876953124998
1.4791992187499998
1.4840332031249999
1.4864501953125
1.4461669921875
1.4171630859375
1.5025634765625
1.5057861328125
1.4848388671875
1.5041748046874999
2.9503417968749996
1.8175781249999998
1.6072998046875
1.5299560546875
1.1617675781249999
1.0376953125
0.6872314453124999
0.6888427734375
0.978076171875
1.224609375
1.3921875
1.525927734375
1.5106201171875
1.56298828125
1.6266357421875
1.5702392578125
1.5758789062499998
1.6056884765625
1.5678222656249998
1.5565429687499999
1.5476806640624998
0.32548828124999996
1.2769775390625
1.409912109375
1.6081054687499998
1.8546386718749999
1.9585693359374998
2.8633300781249997
2.5458984375
1.972265625
1.5992431640625
1.4655029296875
1.44052734375
1.4638916015624999
1.53720703125
1.5057861328125
1.4896728515625
1.4413330078125
1.49853515625
1.5082031249999999
1.4526123046875
1.49853515625
2.9253662109375
2.0488037109375
1.6282470703124998
1.53076171875
1.3188720703124999
1.1674072265625
0.6114990234375
0.7218749999999999
0.8145263671874999
1.24716796875
1.3390136718749999
1.4832275390624998
1.4888671875
1.5911865234375
1.5428466796875
1.5525146484374999
1.6209960937499999
1.64677734375
1.603271484375
1.61455078125
1.5396240234374998
0.027392578124999997
0.9724365234375
1.44052734375
1.5484863281249999
1.69833984375
1.98837890625
2.969677734375
2.7005859374999996
1.9875732421874999
1.6451660156249999
1.477587890625
1.3664062499999998
1.5033691406249998
1.509814453125
1.52109375
1.5194824218749998
1.4171630859375
1.4348876953124998
1.4816162109375
1.5194824218749998
1.4348876953124998
2.6369384765625
2.1325927734375
1.6685302734374998
1.59521484375
1.3728515625
1.22138671875
0.7637695312499999
0.6815917968749999
0.8435302734375
1.1512939453125
1.3607666015625
1.4203857421875
1.4397216796874999
1.593603515625
1.5509033203125
1.5750732421875
1.5976318359375
1.6008544921874999
1.6089111328124999
1.546875
1.5887695312499999
0.026586914062499998
0.8934814453125
1.4308593749999998
1.5146484375
1.7200927734375
1.9601806640625
2.5998779296874996
2.792431640625
2.189794921875
1.8103271484374999
1.5565429687499999
1.4590576171874998
1.496923828125
1.48564453125
1.5194824218749998
1.5009521484375
1.3575439453125
1.4622802734375
1.5033691406249998
1.5146484375
1.5170654296875
2.6047119140625
2.470166015625
1.6830322265625
1.56298828125
1.4042724609375
1.1061767578125
0.69609375
