2.0906982421875
1.9376220703125
1.64677734375
1.577490234375
1.5364013671874999
1.3744628906249998
1.3607666015625
1.198828125
1.2383056640624999
1.3083984375
1.3978271484375
1.448583984375
1.409912109375
1.4872558593749998
1.480810546875
1.4751708984374998
1.5299560546875
1.513037109375
1.5138427734375
1.5541259765625
1.5605712890624999
0.9402099609375
1.2439453125
1.4123291015625
1.43408203125
1.558154296875
1.65
2.0439697265625
2.0778076171874997
1.8377197265624998
1.6991455078125
1.6201904296874998
1.5444580078124999
1.55009765625
1.5364013671874999
1.5146484375
1.5807128906249999
1.5670166015625
1.5299560546875
1.5565429687499999
1.482421875
1.4711425781249998
1.964208984375
1.9182861328124998
1.6959228515625
1.6435546875
1.5758789062499998
1.4389160156249998
1.3414306640625
1.2060791015624999
1.1947998046875
1.300341796875
1.3527099609375
1.3929931640625
1.4550292968749998
1.493701171875
1.5194824218749998
1.5364013671874999
1.5194824218749998
1.496923828125
1.5355957031249998
1.5275390624999998
1.5090087890625
0.936181640625
1.08603515625
1.413134765625
1.4518066406249999
1.5057861328125
1.6371093749999999
2.0810302734375
2.0794189453125
1.8659179687499998
1.7184814453125
1.63388671875
1.5573486328125
1.5460693359375
1.603271484375
1.56298828125
1.5476806640624998
1.5146484375
1.5138427734375
1.5170654296875
1.5380126953125
1.53076171875
1.654833984375
1.9263427734374998
1.658056640625
1.63388671875
1.5839355468749998
1.4671142578124998
1.2818115234374998
1.2254150390625
1.2141357421874999
1.2769775390625
1.3478759765625
1.40185546875
1.5114257812499998
1.4800048828124999
1.4791992187499998
1.46630859375
1.482421875
1.5509033203125
1.48564453125
1.6000488281249998
1.5460693359375
1.0167480468749999
1.03447265625
1.3140380859374998
1.4364990234375
1.52109375
1.6540283203125
1.687060546875
2.08505859375
1.9263427734374998
1.7603759765625
1.6129394531249999
1.5847412109374999
1.5863525390625
1.5887695312499999
1.5436523437499998
1.4816162109375
1.506591796875
1.538818359375
1.5436523437499998
1.5436523437499998
1.4872558593749998
1.5492919921875
2.0778076171874997
1.7934082031249998
1.6403320312499998
1.5919921874999998
1.4928955078125
1.3833251953124999
1.24072265625
1.147265625
1.219775390625
1.3212890625
1.4074951171874999
1.4413330078125
1.4630859374999998
1.5146484375
1.4945068359375
1.5106201171875
1.5654052734375
1.5670166015625
1.56298828125
1.5251220703125
1.4477783203124999
0.8805908203124999
1.37607421875
1.4356933593749999
1.45341796875
1.6282470703124998
1.7080078125
2.112451171875
1.9706542968749998
1.7829345703125
1.6008544921874999
1.5791015625
1.577490234375
1.5621826171875
1.5726562499999999
1.5509033203125
1.5734619140625
1.5404296874999999
1.5283447265624999
1.5444580078124999
1.5275390624999998
1.5251220703125
2.0939208984374997
1.8103271484374999
1.670947265625
1.61455078125
1.46630859375
1.4058837890625
1.2020507812499999
1.1609619140625
1.16015625
1.3075927734375
1.4244140625
1.426025390625
1.4429443359374998
1.46630859375
1.4977294921875
1.51787109375
1.542041015625
1.5533203125
1.5557373046874998
1.5484863281249999
1.5082031249999999
0.889453125
1.2270263671875
1.4332763671875
1.4671142578124998
1.5114257812499998
1.7039794921875
2.0987548828125
2.0375244140624997
1.8143554687499999
1.662890625
1.6459716796875
1.554931640625
1.6056884765625
1.5718505859374998
1.5702392578125
1.558154296875
1.51787109375
1.5041748046874999
1.5412353515625
1.5218994140625
1.51787109375
2.054443359375
1.7990478515625
1.59521484375
1.6218017578125
1.5476806640624998
1.4155517578124999
1.2818115234374998
1.2052734375
1.1706298828125
1.2834228515625
1.3333740234375
1.42119140625
1.4147460937499998
1.4840332031249999
1.5106201171875
1.4655029296875
1.5154541015624998
1.50498046875
1.493701171875
1.5565429687499999
1.5218994140625
0.9410156249999999
1.2383056640624999
1.4123291015625
1.4316650390624999
1.5315673828124998
1.67578125
1.8183837890624999
2.077001953125
1.8199951171875
1.69833984375
1.6435546875
1.5678222656249998
1.6330810546874999
1.5847412109374999
1.5734619140625
1.577490234375
1.5283447265624999
1.522705078125
1.4961181640624999
1.513037109375
1.5041748046874999
1.9360107421875
1.9730712890625
1.6749755859375
1.6282470703124998
1.5637939453124998
1.4034667968749999
1.1802978515625
1.22138671875
1.1577392578124999
1.3269287109374999
1.3639892578125
1.4373046875
1.3986328124999998
1.5146484375
1.5017578125
1.5122314453124999
1.53720703125
1.5315673828124998
1.5380126953125
1.5275390624999998
1.5194824218749998
1.0530029296874999
1.1915771484375
1.3857421875
1.4397216796874999
1.4735595703125
1.6395263671875
1.7829345703125
2.1704589843749997
1.8820312499999998
1.74345703125
1.6572509765624999
1.56943359375
1.542041015625
1.5001464843749999
1.5444580078124999
1.53076171875
1.542041015625
1.5235107421874998
1.5589599609375
1.5517089843749998
1.5815185546875
1.8054931640624998
1.9247314453125
1.6806152343749998
1.603271484375
1.6169677734374999
1.426025390625
1.3253173828125
1.181103515625
1.20849609375
1.2205810546875
1.351904296875
1.4147460937499998
1.4228027343749998
1.4864501953125
1.5082031249999999
1.509814453125
1.5194824218749998
1.5146484375
1.5517089843749998
1.5347900390625
1.49853515625
1.1657958984374999
1.0449462890624999
1.3752685546874999
1.4356933593749999
1.4880615234374999
1.6451660156249999
1.7781005859374999
2.1052001953125
1.9376220703125
1.7345947265625
1.6572509765624999
1.5670166015625
1.5670166015625
1.5565429687499999
1.5331787109375
1.5589599609375
1.4832275390624998
1.5186767578125
1.5670166015625
1.574267578125
1.522705078125
1.5090087890625
2.1068115234375
1.7168701171874998
1.6266357421875
1.593603515625
1.4348876953124998
1.3833251953124999
1.2189697265625
1.158544921875
1.22783203125
1.3075927734375
1.3946044921874998
1.409912109375
1.458251953125
1.50498046875
1.4558349609374999
1.5323730468749999
1.53076171875
1.558154296875
1.5283447265624999
1.513037109375
1.461474609375
1.044140625
1.3229003906249999
1.4437499999999999
1.4630859374999998
1.593603515625
1.638720703125
2.0810302734375
1.996435546875
1.8095214843749998
1.7168701171874998
1.587158203125
1.5799072265624998
1.6081054687499998
1.5847412109374999
1.5847412109374999
1.5484863281249999
1.4872558593749998
1.4864501953125
1.4953124999999998
1.5170654296875
1.5138427734375
2.0979492187499997
1.8216064453124998
1.6451660156249999
1.6459716796875
1.5017578125
1.3720458984375
1.239111328125
1.1859374999999999
1.1706298828125
1.2947021484374999
1.3688232421875
1.4155517578124999
1.4719482421874999
1.4848388671875
1.4783935546875
1.48564453125
1.50498046875
1.5235107421874998
1.5670166015625
1.5243164062499999
1.53720703125
0.8523925781249999
1.2914794921875
1.4413330078125
1.461474609375
1.5960205078124998
1.6524169921874998
2.012548828125
2.09150390625
1.8087158203125
1.703173828125
1.5944091796875
1.5251220703125
1.554931640625
1.5533203125
1.5654052734375
1.545263671875
1.51787109375
1.5492919921875
1.522705078125
1.5597656249999998
1.5033691406249998
2.0955322265625
1.8216064453124998
1.6725585937499998
1.6234130859375
1.5702392578125
1.4139404296875
1.2463623046874999
1.197216796875
1.2141357421874999
1.2511962890625
1.4034667968749999
1.4107177734374998
1.458251953125
1.5106201171875
1.5299560546875
1.5347900390625
1.5509033203125
1.5670166015625
1.542041015625
1.5380126953125
1.4550292968749998
0.8572265625
1.1617675781249999
1.4630859374999998
1.4526123046875
1.5138427734375
1.7015624999999999
1.92392578125
2.060888671875
1.861083984375
1.6830322265625
1.6185791015625
1.5984375
1.56298828125
1.49853515625
1.5509033203125
1.56298828125
1.546875
1.5218994140625
1.5347900390625
1.5484863281249999
1.4993408203124998
1.8941162109374998
1.8908935546874999
1.6822265625
1.6040771484374998
1.606494140625
1.43408203125
1.2656982421874998
1.19560546875
1.21171875
1.3301513671874998
1.3559326171875
1.413134765625
1.4147460937499998
1.5001464843749999
1.4429443359374998
1.5235107421874998
1.542041015625
1.5251220703125
1.5364013671874999
1.5533203125
1.5315673828124998
0.913623046875
1.1738525390624999
1.3551269531249999
1.397021484375
1.51787109375
1.654833984375
1.7370117187499998
2.099560546875
1.9118408203125
1.74345703125
1.654833984375
1.5984375
1.56298828125
1.5662109375
1.5879638671874998
1.52109375
1.5114257812499998
1.4638916015624999
1.5436523437499998
1.5662109375
1.5218994140625
1.8151611328125
2.0044921875
1.7080078125
1.6137451171875
1.58232421875
1.4800048828124999
1.3269287109374999
1.1835205078125
1.13115234375
1.3180664062499998
1.3849365234375
1.4638916015624999
1.448583984375
1.4550292968749998
1.4880615234374999
1.4687255859375
1.533984375
1.5670166015625
1.5509033203125
1.5283447265624999
1.5589599609375
1.1931884765625
1.013525390625
1.3583496093749998
1.405078125
1.4518066406249999
1.654833984375
1.6935058593749999
2.080224609375
1.92392578125
1.6878662109375
1.6242187499999998
1.6177734375
1.5782958984375
1.5533203125
1.5565429687499999
1.5299560546875
1.5460693359375
1.49853515625
1.5235107421874998
1.5428466796875
1.509814453125
1.4961181640624999
2.03994140625
1.7329833984374998
1.65
1.6475830078125
1.5106201171875
1.4348876953124998
1.1617675781249999
1.1666015625
1.2447509765625
1.3664062499999998
1.413134765625
1.4606689453125
1.4501953125
1.4671142578124998
1.5202880859374999
1.4872558593749998
1.5057861328125
1.5444580078124999
1.5637939453124998
1.53720703125
1.2028564453125
0.9627685546875
1.3156494140625
1.4203857421875
1.47275390625
1.5863525390625
1.658056640625
2.02705078125
2.0085205078125
1.8755859375
1.6395263671875
1.585546875
1.538818359375
1.5525146484374999
1.554931640625
1.5597656249999998
1.5766845703124999
1.554931640625
1.5218994140625
1.4993408203124998
1.5122314453124999
1.480810546875
2.1060058593749997
1.7474853515625
1.641943359375
1.6363037109374998
1.5412353515625
1.3986328124999998
1.1778808593749999
1.21494140625
1.2536132812499998
1.335791015625
1.4034667968749999
1.4348876953124998
1.474365234375
1.4816162109375
1.490478515625
1.529150390625
1.49853515625
1.4945068359375
1.51787109375
1.5090087890625
1.5444580078124999
0.942626953125
1.3269287109374999
1.426025390625
1.4308593749999998
1.5758789062499998
1.635498046875
1.864306640625
2.0560546875
1.843359375
1.6967285156249998
1.6056884765625
1.5887695312499999
1.5831298828125
1.5645996093749999
1.5637939453124998
1.525927734375
1.5218994140625
1.5017578125
1.5605712890624999
1.4920898437499999
1.52109375
2.125341796875
1.9166748046875
1.6725585937499998
1.5960205078124998
1.558154296875
1.4477783203124999
1.2455566406249998
1.2310546875
1.1939941406249999
1.252001953125
1.2979248046874998
1.4139404296875
1.4518066406249999
1.48564453125
1.4679199218749999
1.4896728515625
1.5412353515625
1.5202880859374999
1.513037109375
1.5009521484375
1.51787109375
0.8983154296875
1.14404296875
1.3825195312499998
1.5057861328125
1.5782958984375
1.6209960937499999
1.93681640625
2.0939208984374997
1.8087158203125
1.6935058593749999
1.6411376953124999
1.5525146484374999
1.5734619140625
1.5718505859374998
1.5444580078124999
1.5436523437499998
1.5041748046874999
1.5331787109375
1.5621826171875
1.4864501953125
1.53076171875
1.8046875
1.9617919921875
1.7007568359374998
1.6218017578125
1.5323730468749999
1.4058837890625
1.3253173828125
1.1666015625
1.1867431640625
1.2995361328125
1.3559326171875
1.3929931640625
1.429248046875
1.53076171875
1.4961181640624999
1.5162597656249999
1.5315673828124998
1.5509033203125
1.5380126953125
1.5057861328125
1.4872558593749998
0.926513671875
1.126318359375
1.3801025390625
1.4501953125
1.5355957031249998
1.67900390625
1.912646484375
2.1591796875
1.920703125
1.7370117187499998
1.651611328125
1.5927978515624999
1.6250244140624999
1.587158203125
1.5114257812499998
1.5138427734375
1.5001464843749999
1.5476806640624998
1.5436523437499998
1.5331787109375
1.490478515625
1.6959228515625
2.051220703125
1.6886718749999998
1.603271484375
1.5750732421875
1.426025390625
1.3317626953125
1.19560546875
1.187548828125
1.2745605468749999
1.3430419921874999
1.3946044921874998
1.3978271484375
1.4920898437499999
1.4896728515625
1.4840332031249999
1.5436523437499998
1.5364013671874999
1.5573486328125
1.5122314453124999
1.561376953125
1.3220947265624998
1.1013427734374999
1.3768798828125
1.4510009765624998
1.464697265625
1.609716796875
1.7136474609374999
2.1180908203124997
1.9545410156249998
1.7466796875
1.6298583984375
1.5887695312499999
1.5863525390625
1.5380126953125
1.58232421875
1.5879638671874998
1.56943359375
1.5525146484374999
1.5654052734375
1.5347900390625
1.5347900390625
1.5807128906249999
2.0439697265625
1.7829345703125
1.622607421875
1.5919921874999998
1.4381103515625
1.3478759765625
1.203662109375
1.2254150390625
1.1561279296875
1.34384765625
1.4364990234375
1.4074951171874999
1.3881591796875
1.4526123046875
1.5033691406249998
1.4703369140625
1.5194824218749998
1.5146484375
1.5605712890624999
1.5654052734375
1.3873535156249999
0.9482666015625
1.40830078125
1.4461669921875
1.4550292968749998
1.6008544921874999
1.7523193359375
2.254248046875
2.0568603515625
1.7934082031249998
1.6725585937499998
1.58232421875
1.5364013671874999
1.5734619140625
1.542041015625
1.5323730468749999
1.4638916015624999
1.4348876953124998
1.4679199218749999
1.529150390625
1.5114257812499998
1.5235107421874998
2.1487060546875
1.8095214843749998
1.683837890625
1.6443603515624998
1.554931640625
1.4058837890625
1.1641845703125
1.1456542968749999
1.190771484375
1.2987304687499999
1.3656005859375
1.4203857421875
1.4896728515625
1.5138427734375
1.4848388671875
1.4477783203124999
1.5484863281249999
1.5766845703124999
1.5645996093749999
1.5726562499999999
1.4671142578124998
0.9337646484375
1.2463623046874999
1.3978271484375
1.458251953125
1.5404296874999999
1.6451660156249999
2.0584716796875
2.0955322265625
1.869140625
1.6491943359374999
1.6008544921874999
1.545263671875
1.58232421875
1.5347900390625
1.561376953125
1.5428466796875
1.5122314453124999
1.5267333984375
1.558154296875
1.5009521484375
1.5073974609374998
2.1487060546875
2.0109375
1.6975341796874999
1.6459716796875
1.5251220703125
1.405078125
1.1593505859375
1.1335693359374999
1.1367919921875
1.248779296875
1.3575439453125
1.4550292968749998
1.4219970703125
1.4574462890625
1.4735595703125
1.5541259765625
1.542041015625
1.525927734375
1.5122314453124999
1.603271484375
1.5460693359375
0.84755859375
1.2374999999999998
1.4147460937499998
1.409912109375
1.5347900390625
1.5984375
1.85625
2.1680419921875
1.9891845703125
1.7257324218749999
1.6435546875
1.5541259765625
1.5662109375
1.5315673828124998
1.525927734375
1.5782958984375
1.5750732421875
1.542041015625
1.5057861328125
1.4671142578124998
1.461474609375
2.151123046875
1.9593749999999999
1.7088134765624998
1.619384765625
1.5525146484374999
1.3704345703124998
1.1408203125
1.0868408203125
1.0594482421875
1.2020507812499999
1.3333740234375
1.429248046875
1.3341796874999998
1.50498046875
1.5380126953125
1.506591796875
1.5992431640625
1.6330810546874999
1.5863525390625
1.5041748046874999
1.5533203125
0.7959960937499999
0.88623046875
1.3309570312499999
1.393798828125
1.48564453125
1.6588623046875
1.9988525390624998
2.4564697265624997
2.2905029296875
1.9924072265625
1.7329833984374998
1.590380859375
1.5082031249999999
1.474365234375
1.4679199218749999
1.5315673828124998
1.5057861328125
1.525927734375
1.5412353515625
1.4816162109375
1.4622802734375
1.6161621093749998
2.3211181640625
2.0214111328124997
1.8248291015625
1.6604736328124998
1.368017578125
1.184326171875
0.8612548828125
0.6638671875
0.797607421875
0.926513671875
1.0650878906249999
1.126318359375
1.3583496093749998
1.47275390625
1.5275390624999998
1.5460693359375
1.6129394531249999
1.6266357421875
1.6201904296874998
1.6008544921874999
0.6832031249999999
0.5196533203125
0.8693115234375
1.119873046875
1.3398193359375
1.6072998046875
1.8659179687499998
2.70703125
2.631298828125
2.360595703125
2.012548828125
1.7990478515625
1.72412109375
1.6693359374999999
1.574267578125
1.6185791015625
1.458251953125
1.4445556640625
1.4711425781249998
1.413134765625
1.4655029296875
1.714453125
2.7078369140625
2.5225341796875
2.2671386718749997
2.0536376953124997
1.6540283203125
1.19560546875
0.7943847656249999
0.5180419921875
0.3585205078125
0.49790039062499997
0.64775390625
0.7476562499999999
0.9772705078124999
1.103759765625
1.184326171875
1.316455078125
1.4308593749999998
1.368017578125
1.3639892578125
1.3212890625
0.6598388671875
0.026586914062499998
0.024169921875
0.0281982421875
0.0298095703125
0.027392578124999997
0.02578125
0.8741455078125
1.9352050781249999
2.55234375
2.7255615234375
2.9253662109375
2.9761230468749997
3.027685546875
2.914892578125
2.9543701171874996
2.8979736328124996
2.792431640625
2.7569824218749996
2.6433837890625
2.5531494140624997
2.4725830078124997
3.0284912109374997
3.027685546875
3.0301025390625
3.0325195312499997
3.0317138671875
3.027685546875
2.53623046875
1.6371093749999999
0.95390625
0.48984374999999997
0.057202148437499996
0.0249755859375
0.02578125
0.0249755859375
0.023364257812499997
0.026586914062499998
0.0555908203125
0.023364257812499997
0.0797607421875
0.02578125
0.033032226562499996
0.024169921875
0.0201416015625
0.02578125
0.024169921875
0.026586914062499998
0.024169921875
0.024169921875
1.7297607421874999
2.20107421875
2.4766113281249997
2.5716796874999996
2.753759765625
2.8810546875
2.92294921875
2.977734375
2.921337890625
2.83271484375
2.7424804687499997
2.68125
2.5354248046874996
2.415380859375
3.029296875
3.0268798828124996
3.0228515624999996
3.02607421875
3.029296875
3.0301025390625
2.6369384765625
2.1148681640625
1.3744628906249998
0.7452392578125
0.348046875
0.0249755859375
0.02578125
0.026586914062499998
0.0249755859375
0.02578125
0.02578125
0.030615234374999998
0.09023437499999999
0.1506591796875
0.291650390625
0.027392578124999997
0.0281982421875
0.0314208984375
0.02578125
0.02900390625
0.0201416015625
0.020947265625
1.40185546875
1.9835449218749999
2.462109375
2.6965576171874996
2.85205078125
3.003515625
3.027685546875
3.027685546875
2.9865966796874996
2.9060302734374996
2.792431640625
2.6433837890625
2.5048095703124997
2.447607421875
3.0268798828124996
3.027685546875
3.027685546875
3.0309082031249996
3.0172119140625
3.0228515624999996
2.9447021484375
2.3211181640625
1.316455078125
0.9474609374999999
0.5696044921875
0.26748046875
0.02900390625
0.026586914062499998
0.020947265625
0.02578125
0.026586914062499998
0.061230468749999996
0.0555908203125
0.0523681640625
0.153076171875
0.02578125
0.026586914062499998
0.023364257812499997
0.027392578124999997
0.0249755859375
0.024169921875
0.0249755859375
0.9651855468749999
2.035107421875
2.5048095703124997
2.7263671874999997
2.8883056640625
2.98740234375
2.9801513671874997
3.0284912109374997
3.0284912109374997
2.9044189453125
2.9302001953124996
2.7271728515625
2.6127685546875
2.5201171875
2.7529541015624996
3.0244628906249997
3.0284912109374997
3.027685546875
3.0244628906249997
3.0309082031249996
3.027685546875
2.3485107421875
1.611328125
0.8805908203124999
0.3762451171875
0.1393798828125
0.0249755859375
0.0249755859375
0.02900390625
0.0322265625
0.0281982421875
0.0797607421875
0.1474365234375
0.214306640625
0.2908447265625
0.02578125
0.018530273437499998
0.024169921875
0.0298095703125
0.02578125
0.02578125
0.02578125
1.1158447265625
1.8119384765625
2.2550537109374997
2.5330078124999997
2.7626220703124997
2.8383544921875
2.8754150390624997
2.83271484375
2.9116699218749997
2.8238525390625
2.6490234375
2.6224365234375
2.5313964843749996
2.454052734375
2.3396484374999997
3.0301025390625
3.027685546875
3.029296875
3.027685546875
3.0325195312499997
3.034130859375
2.570068359375
2.044775390625
1.1150390625
0.7669921875
0.37785644531249996
0.1119873046875
0.22880859374999998
0.33757324218749996
0.3343505859375
0.46728515625
0.7049560546875
1.6306640625
2.4766113281249997
3.0309082031249996
3.027685546875
1.8618896484374998
1.448583984375
1.0401123046875
0.46567382812499997
0.0910400390625
0.1740234375
0.7476562499999999
2.273583984375
3.0236572265625
3.029296875
3.0284912109374997
3.0244628906249997
3.0333251953125
2.9849853515625
2.8770263671875
2.8190185546874997
2.631298828125
2.4234375
2.2115478515625
2.0858642578124997
1.9730712890625
3.0284912109374997
3.029296875
3.0244628906249997
3.0268798828124996
3.0284912109374997
3.0317138671875
2.6232421875
1.8715576171875
1.039306640625
0.4648681640625
0.0298095703125
0.020947265625
0.030615234374999998
0.02578125
0.024169921875
0.02578125
0.02578125
0.0249755859375
0.0249755859375
0.026586914062499998
0.0249755859375
0.026586914062499998
0.0298095703125
0.022558593749999998
0.02578125
0.0314208984375
0.026586914062499998
0.026586914062499998
1.284228515625
1.8425537109374999
2.270361328125
2.513671875
2.505615234375
2.5249511718749997
2.5313964843749996
2.4999755859375
2.5571777343749997
2.3952392578125
2.2171875
2.244580078125
2.0778076171874997
1.98515625
2.5958496093749996
3.027685546875
3.02607421875
3.0325195312499997
3.0317138671875
3.0333251953125
3.0284912109374997
2.27197265625
1.4598632812499999
0.6509765624999999
0.240087890625
0.024169921875
0.030615234374999998
0.026586914062499998
0.023364257812499997
0.030615234374999998
0.024169921875
0.0249755859375
0.023364257812499997
0.0281982421875
0.0314208984375
0.02578125
0.0249755859375
0.0249755859375
0.02578125
0.023364257812499997
0.02578125
0.02578125
0.9112060546874999
1.64677734375
2.2026855468749997
2.4419677734375
2.60068359375
2.6764160156249996
2.6933349609375
2.7134765625
2.6143798828125
2.51044921875
2.66513671875
2.47822265625
2.4258544921875
2.36865234375
2.3138671875
3.0268798828124996
3.0333251953125
3.0317138671875
3.027685546875
3.0309082031249996
3.027685546875
2.5773193359374997
1.7700439453124999
1.09892578125
0.7097900390624999
0.322265625
0.078955078125
0.02578125
0.020947265625
0.0298095703125
0.0249755859375
0.02578125
0.0249755859375
0.0443115234375
0.0958740234375
0.11923828125
0.0217529296875
0.02578125
0.026586914062499998
0.02578125
0.030615234374999998
0.02578125
0.026586914062499998
1.6508056640625
2.13662109375
2.4443847656249997
2.63291015625
2.7932373046874996
2.91650390625
2.9592041015625
3.0317138671875
3.029296875
2.94873046875
2.8552734374999997
2.679638671875
2.5853759765624997
2.5813476562499997
3.027685546875
3.029296875
3.0268798828124996
3.02607421875
3.0284912109374997
3.0284912109374997
2.6014892578124997
1.9553466796874999
1.3108154296874999
0.6670898437499999
0.3955810546875
0.17241210937499998
0.02578125
0.02578125
0.026586914062499998
0.024169921875
0.027392578124999997
0.0201416015625
0.026586914062499998
0.0910400390625
0.1651611328125
0.02578125
0.022558593749999998
0.027392578124999997
0.02578125
0.02578125
0.0249755859375
0.02578125
1.5267333984375
2.07216796875
2.5531494140624997
2.721533203125
2.8431884765624997
2.9253662109375
3.027685546875
3.0268798828124996
3.02607421875
2.985791015625
2.848828125
2.7432861328125
2.6941406249999997
2.5692626953124997
3.0268798828124996
3.029296875
3.0228515624999996
3.0236572265625
3.0252685546875
3.029296875
3.027685546875
2.2083251953125
1.27294921875
0.7033447265624999
0.2860107421875
0.0322265625
0.02578125
0.02578125
0.022558593749999998
0.02578125
0.0201416015625
0.0281982421875
0.09426269531249999
0.078955078125
0.1039306640625
0.0249755859375
0.02578125
0.02578125
0.02900390625
0.02578125
0.02578125
0.0249755859375
1.0812011718749999
1.8981445312499998
2.18173828125
2.4298828125
2.5555664062499996
2.6876953125
2.8214355468749996
2.8874999999999997
2.8858886718749996
2.82626953125
2.7650390624999996
2.69736328125
2.6176025390624997
2.4983642578125
2.457275390625
3.0244628906249997
3.0301025390625
3.0284912109374997
3.02607421875
3.027685546875
3.029296875
2.473388671875
1.770849609375
1.1770751953125
0.594580078125
0.15871582031249998
0.0201416015625
0.02578125
0.0217529296875
0.02578125
0.02578125
0.037060546874999996
0.07734374999999999
0.1611328125
0.233642578125
0.02578125
0.02578125
0.026586914062499998
0.026586914062499998
0.026586914062499998
0.0249755859375
0.024169921875
1.7152587890625
3.027685546875
3.029296875
3.0309082031249996
3.027685546875
3.0268798828124996
3.027685546875
3.0284912109374997
3.027685546875
3.027685546875
3.0301025390625
3.0268798828124996
3.0284912109374997
3.037353515625
3.0268798828124996
3.02607421875
3.029296875
3.027685546875
3.0284912109374997
3.0284912109374997
2.8174072265624996
2.02705078125
1.3430419921874999
0.7275146484374999
0.6372802734374999
0.5776611328125
0.6131103515624999
0.7476562499999999
0.855615234375
0.9410156249999999
1.1738525390624999
1.2785888671874999
1.276171875
1.3390136718749999
1.3083984375
1.30517578125
0.0217529296875
0.1861083984375
0.3681884765625
0.4874267578125
0.910400390625
1.300341796875
2.1325927734375
2.85205078125
2.7303955078124997
2.4846679687499997
2.1696533203125
1.8498046874999998
1.5243164062499999
1.4493896484375
1.4058837890625
1.384130859375
1.3478759765625
1.3349853515624999
1.2826171874999999
1.2584472656249999
1.2906738281249999
2.4613037109375
2.51044921875
2.2502197265625
2.0657226562499997
1.8022705078124999
1.4026611328124998
1.003857421875
0.207861328125
0.041088867187499996
0.20463867187499998
0.47453613281249996
0.6896484374999999
0.8338623046875
0.9853271484374999
1.16337890625
1.3067871093749999
1.3946044921874998
1.4598632812499999
1.3954101562499999
1.46953125
1.43408203125
0.049951171875
0.12568359375
0.44956054687499997
0.734765625
0.9756591796874999
1.49853515625
2.2921142578125
3.0188232421874996
2.963232421875
2.711865234375
2.3630126953125
2.0955322265625
1.9408447265625
1.6773925781249999
1.6435546875
1.53720703125
1.4767822265625
1.4703369140625
1.5033691406249998
1.493701171875
1.409912109375
1.8135498046874998
2.7013916015625
2.4355224609375
2.3920166015624997
2.0423583984375
1.4912841796874998
1.1335693359374999
0.6090820312499999
0.34482421874999997
0.223974609375
0.5486572265624999
0.7025390625
0.9071777343749999
1.0787841796875
1.2125244140625
1.2963134765625
1.4268310546874998
1.5758789062499998
1.587158203125
1.577490234375
1.5380126953125
0.9482666015625
0.111181640625
0.3875244140625
0.5849121093749999
0.894287109375
1.4711425781249998
1.8143554687499999
2.8609130859375
3.02607421875
2.8576904296874996
2.5998779296874996
2.254248046875
2.006103515625
1.8763916015625
1.72734375
1.7297607421874999
1.662890625
1.46630859375
1.4252197265625
1.4228027343749998
1.4219970703125
1.699951171875
2.8633300781249997
2.5982666015625
2.3783203125
2.1390380859375
1.8457763671874998
1.409912109375
0.6356689453125
0.2650634765625
0.22316894531249998
0.4390869140625
0.6260009765625
0.8225830078124999
0.9595458984374999
1.2270263671875
1.416357421875
1.4469726562499998
1.5557373046874998
1.53076171875
1.63388671875
1.6129394531249999
1.3100097656249998
0.08620605468749999
0.3182373046875
0.5373779296875
0.7484619140625
1.1496826171874999
1.751513671875
2.9334228515625
3.029296875
3.0139892578125
2.65546875
2.3960449218749997
2.16884765625
1.9940185546875
1.6717529296875
1.6645019531249998
1.611328125
1.5444580078124999
1.513037109375
1.4912841796874998
1.4034667968749999
1.474365234375
2.8069335937499997
2.679638671875
2.4830566406249996
2.2824462890625
1.8554443359375
1.482421875
0.7710205078125
0.4970947265625
0.19658203124999998
0.3359619140625
0.502734375
0.7146240234375
0.887841796875
1.084423828125
1.3092041015625
1.3728515625
1.538818359375
1.5782958984375
1.6129394531249999
1.590380859375
1.5807128906249999
0.027392578124999997
0.285205078125
0.48581542968749997
0.62841796875
1.0828125
1.4791992187499998
2.4758056640625
3.0244628906249997
3.027685546875
2.8069335937499997
2.4919189453125
2.231689453125
2.038330078125
1.8586669921874999
1.7539306640624999
1.6564453124999998
1.5557373046874998
1.4187744140624998
1.4945068359375
1.4147460937499998
1.4880615234374999
2.8367431640625
3.02607421875
2.8657470703124996
2.69736328125
2.4943359375
1.9505126953124998
0.8685058593749999
0.18288574218749998
0.026586914062499998
0.02578125
0.024169921875
0.0249755859375
0.027392578124999997
0.28439941406249997
0.33273925781249997
0.3802734375
0.46164550781249997
0.49467773437499996
0.452783203125
0.43022460937499996
0.5124023437499999
0.027392578124999997
0.0249755859375
0.0249755859375
0.02578125
0.030615234374999998
0.027392578124999997
0.030615234374999998
1.513037109375
2.244580078125
2.6723876953124996
2.931005859375
3.0325195312499997
3.02607421875
3.029296875
3.0268798828124996
3.02607421875
3.029296875
3.003515625
2.8834716796874997
2.8294921874999996
2.6739990234374997
3.0236572265625
3.02607421875
3.0244628906249997
3.0317138671875
3.027685546875
3.0284912109374997
3.027685546875
2.26875
1.32451171875
0.897509765625
0.5003173828124999
0.1152099609375
0.0281982421875
0.0201416015625
0.02578125
0.024169921875
0.023364257812499997
0.02578125
0.0555908203125
0.11440429687499999
0.0958740234375
0.02578125
0.026586914062499998
0.023364257812499997
0.02578125
0.030615234374999998
0.0281982421875
0.026586914062499998
0.9651855468749999
1.9625976562499998
2.31708984375
2.5418701171875
2.618408203125
2.7803466796875
2.8995849609374997
2.9849853515625
2.9390625
2.8576904296874996
2.843994140625
2.6643310546874996
2.6941406249999997
2.5837646484374996
3.029296875
3.0252685546875
3.0228515624999996
3.0317138671875
3.0268798828124996
3.0317138671875
3.0284912109374997
2.39765625
1.6717529296875
1.007080078125
0.4390869140625
0.12810058593749998
0.026586914062499998
0.0281982421875
0.02578125
0.02578125
0.027392578124999997
0.02578125
0.0394775390625
0.0475341796875
0.0668701171875
0.0298095703125
0.02900390625
0.02578125
0.030615234374999998
0.023364257812499997
0.02578125
0.0249755859375
1.0385009765625
1.8820312499999998
2.3565673828125
2.6578857421874997
2.7908203124999997
2.8633300781249997
2.9640380859374997
3.0091552734375
3.0268798828124996
3.029296875
2.98740234375
2.876220703125
2.8174072265624996
2.657080078125
2.4903076171875
3.0236572265625
3.034130859375
3.0268798828124996
3.0309082031249996
3.0268798828124996
3.0268798828124996
2.4919189453125
1.9303710937499998
1.05380859375
0.5792724609375
0.330322265625
0.026586914062499998
0.02900390625
0.030615234374999998
0.02578125
0.0281982421875
0.026586914062499998
0.027392578124999997
0.024169921875
0.026586914062499998
0.0523681640625
0.02578125
0.0249755859375
0.026586914062499998
0.027392578124999997
0.026586914062499998
0.02578125
0.0249755859375
1.222998046875
1.8876708984375
2.3009765625
2.56201171875
2.6232421875
2.7448974609374996
2.8230468749999997
2.76826171875
2.8472167968749997
2.7158935546875
2.682861328125
2.6417724609374997
2.6272705078125
2.5902099609375
3.0284912109374997
3.02607421875
3.029296875
3.029296875
3.0244628906249997
3.0268798828124996
2.9495361328125
2.0681396484375
1.3591552734374999
0.7677978515624999
0.4197509765625
0.0555908203125
0.0249755859375
0.0298095703125
0.026586914062499998
0.030615234374999998
0.02578125
0.02578125
0.026586914062499998
0.026586914062499998
0.12568359375
0.024169921875
0.024169921875
0.026586914062499998
0.02578125
0.026586914062499998
0.0298095703125
0.02578125
1.384130859375
1.8538330078124998
2.1873779296875
2.5233398437499996
2.6143798828125
2.70380859375
2.7706787109374997
2.827880859375
2.8359375
2.7448974609374996
2.727978515625
2.7416748046875
2.6917236328125
2.6014892578124997
3.0284912109374997
3.0236572265625
3.0244628906249997
3.029296875
3.0236572265625
3.027685546875
3.0284912109374997
2.3879882812499997
1.7136474609374999
1.1021484375
0.49306640625
0.18046874999999998
0.0281982421875
0.027392578124999997
0.027392578124999997
0.0281982421875
0.02578125
0.0281982421875
0.0459228515625
0.0604248046875
0.09023437499999999
0.0314208984375
0.026586914062499998
0.027392578124999997
0.02578125
0.030615234374999998
0.026586914062499998
0.0217529296875
0.9974121093749999
1.7418457031249999
2.241357421875
2.47177734375
2.615185546875
2.6788330078125
2.7666503906249997
2.8705810546875
2.9277832031249997
2.8617187499999996
2.731201171875
2.7448974609374996
2.7078369140625
2.5563720703125
2.4613037109375
3.0268798828124996
3.0301025390625
3.027685546875
3.0284912109374997
3.02607421875
3.0268798828124996
2.70380859375
2.0471923828125
1.2455566406249998
0.7412109375
0.2900390625
0.02578125
0.026586914062499998
0.0217529296875
0.026586914062499998
0.018530273437499998
0.020947265625
0.0249755859375
0.023364257812499997
0.049145507812499996
0.056396484375
0.0249755859375
0.02578125
0.027392578124999997
0.019335937499999997
0.02578125
0.02578125
0.024169921875
1.5476806640624998
1.8522216796875
2.341259765625
2.489501953125
2.5692626953124997
2.7811523437499996
2.8657470703124996
2.8069335937499997
2.8311035156249997
2.731201171875
2.7247558593749996
2.6578857421874997
2.5475097656249996
2.53623046875
3.0284912109374997
3.0252685546875
3.0244628906249997
3.0252685546875
3.0333251953125
3.029296875
2.6925292968749996
2.0987548828125
1.3712402343749999
0.8572265625
0.41330566406249997
0.1812744140625
0.02578125
0.024169921875
0.02578125
0.022558593749999998
0.030615234374999998
0.0217529296875
0.0281982421875
0.0281982421875
0.053173828124999996
0.026586914062499998
0.037060546874999996
0.026586914062499998
0.02578125
0.0281982421875
0.022558593749999998
0.022558593749999998
1.1456542968749999
1.7136474609374999
2.1301757812499997
2.4322998046874997
2.560400390625
2.7134765625
2.8294921874999996
2.8705810546875
2.9156982421874997
2.8190185546874997
2.795654296875
2.8560791015625
2.7239501953125
2.5209228515624997
3.0252685546875
3.021240234375
3.0301025390625
3.027685546875
3.0309082031249996
3.029296875
3.029296875
2.309033203125
1.49853515625
0.825
0.1812744140625
0.02900390625
0.02578125
0.02578125
0.02578125
0.024169921875
0.02578125
0.02578125
0.02900390625
0.0249755859375
0.0249755859375
0.026586914062499998
0.030615234374999998
0.02578125
0.030615234374999998
0.0217529296875
0.023364257812499997
0.022558593749999998
0.9168457031249999
1.606494140625
2.1084228515625
2.32998046875
2.4041015624999997
2.599072265625
2.63935546875
2.7384521484374997
2.744091796875
2.731201171875
2.66513671875
2.6240478515624996
2.4435791015625
2.5015869140625
2.4838623046875
3.0317138671875
3.027685546875
3.0236572265625
3.0301025390625
3.0268798828124996
3.0309082031249996
2.640966796875
1.690283203125
1.1110107421875
0.720263671875
0.28359375
0.10151367187499999
0.026586914062499998
0.02578125
0.02578125
0.0249755859375
0.0249755859375
0.026586914062499998
0.0636474609375
0.033837890625
0.0298095703125
0.0249755859375
0.022558593749999998
0.0249755859375
0.027392578124999997
0.02578125
0.02578125
0.7669921875
1.4026611328124998
2.0004638671875
2.333203125
2.5918212890624996
2.657080078125
2.631298828125
2.6876953125
2.6466064453125
2.900390625
2.5950439453125
2.647412109375
2.6522460937499996
2.4903076171875
2.4725830078124997
3.029296875
3.027685546875
3.0236572265625
3.0301025390625
3.0244628906249997
3.0268798828124996
2.69736328125
1.973876953125
1.3301513671874998
0.7073730468749999
0.3504638671875
0.104736328125
0.0217529296875
0.026586914062499998
0.027392578124999997
0.026586914062499998
0.027392578124999997
0.02578125
0.037060546874999996
0.069287109375
0.111181640625
0.02578125
0.026586914062499998
0.02578125
0.02578125
0.026586914062499998
0.027392578124999997
0.026586914062499998
1.2987304687499999
1.9658203125
2.2260498046875
2.457275390625
2.5048095703124997
2.7046142578124996
2.663525390625
2.7674560546875
2.7626220703124997
2.6498291015624997
2.6208251953125
2.566845703125
2.4564697265624997
2.3920166015624997
3.029296875
3.027685546875
3.027685546875
3.029296875
3.0284912109374997
3.027685546875
3.029296875
1.9940185546875
1.2157470703125
0.7661865234374999
0.3633544921875
0.072509765625
0.02578125
0.0217529296875
0.0249755859375
0.0249755859375
0.026586914062499998
0.0217529296875
0.0281982421875
0.056396484375
0.022558593749999998
0.0249755859375
0.0217529296875
0.027392578124999997
0.0249755859375
0.0201416015625
0.0249755859375
0.02578125
1.2737548828124998
1.8119384765625
2.18173828125
2.463720703125
2.6498291015624997
2.7448974609374996
2.76826171875
2.882666015625
2.9664550781249996
2.8963623046875
2.8302978515625
2.7722900390625
2.6401611328124996
2.5708740234375
3.0236572265625
3.027685546875
3.02607421875
3.0268798828124996
3.02607421875
3.0252685546875
3.0301025390625
2.4814453125
1.7764892578125
1.2640869140625
0.75732421875
0.475341796875
0.1087646484375
0.022558593749999998
0.027392578124999997
0.0249755859375
0.026586914062499998
0.0281982421875
0.0314208984375
0.03544921875
0.07412109374999999
0.026586914062499998
0.020947265625
0.027392578124999997
0.0249755859375
0.0249755859375
0.02578125
0.0281982421875
0.9047607421874999
1.6081054687499998
2.16884765625
2.410546875
2.6014892578124997
2.6643310546874996
2.802099609375
2.79404296875
2.8206298828125
2.8351318359374997
2.8238525390625
2.657080078125
2.60712890625
2.4790283203124996
2.463720703125
3.027685546875
3.0309082031249996
3.0284912109374997
3.0301025390625
3.0333251953125
3.02607421875
2.6240478515624996
2.067333984375
1.0739501953125
0.7081787109375
0.36416015625
0.0281982421875
0.024169921875
0.030615234374999998
0.02578125
0.02900390625
0.030615234374999998
0.0829833984375
0.10957031249999999
0.0684814453125
0.033837890625
0.02578125
0.02900390625
0.026586914062499998
0.0298095703125
0.02578125
0.0281982421875
0.3504638671875
1.651611328125
2.0334960937499997
2.3340087890625
2.45888671875
2.5853759765624997
2.666748046875
2.6361328124999996
2.731201171875
2.7328124999999996
2.6860839843749997
2.5555664062499996
2.4500244140625
2.3404541015625
2.270361328125
3.0236572265625
3.027685546875
3.0309082031249996
3.0301025390625
3.029296875
3.027685546875
2.69736328125
2.101171875
1.345458984375
0.910400390625
0.43828124999999996
0.1393798828125
0.026586914062499998
0.02578125
0.024169921875
0.0314208984375
0.02578125
0.0249755859375
0.0298095703125
0.054785156249999994
0.027392578124999997
0.0217529296875
0.027392578124999997
0.030615234374999998
0.023364257812499997
0.024169921875
0.026586914062499998
0.020947265625
1.16015625
1.79501953125
2.199462890625
2.463720703125
2.2647216796875
2.6844726562499996
2.8302978515625
2.866552734375
2.843994140625
2.7021972656249997
2.6659423828124997
2.54267578125
2.46533203125
2.358984375
3.027685546875
3.02607421875
3.0284912109374997
3.0284912109374997
3.0301025390625
3.0301025390625
2.8794433593749997
2.341259765625
1.5702392578125
0.9611572265624999
0.5687988281249999
0.25458984375
0.0281982421875
0.0249755859375
0.020947265625
0.02578125
0.02900390625
0.0580078125
0.13857421875
0.1635498046875
0.2441162109375
0.026586914062499998
0.0298095703125
0.02578125
0.022558593749999998
0.0249755859375
0.02900390625
0.02900390625
1.1802978515625
1.9948242187499998
2.3759033203124997
2.6288818359375
2.7481201171875
3.0027099609374996
3.0244628906249997
3.029296875
3.0228515624999996
3.0284912109374997
3.029296875
3.0244628906249997
3.0244628906249997
3.0268798828124996
3.0252685546875
3.0309082031249996
3.029296875
3.0268798828124996
3.029296875
3.0325195312499997
3.0309082031249996
3.029296875
3.0301025390625
3.0309082031249996
3.0268798828124996
3.0268798828124996
3.0244628906249997
3.0301025390625
3.0301025390625
3.027685546875
3.027685546875
3.0301025390625
3.0284912109374997
3.0333251953125
3.0284912109374997
3.0244628906249997
3.0228515624999996
3.0268798828124996
3.0317138671875
3.02607421875
2.8069335937499997
2.418603515625
2.8778320312499996
2.39443359375
1.7748779296875
1.1029541015625
0.7887451171875
0.581689453125
0.6662841796875
0.6735351562499999
0.6598388671875
0.5220703125
0.50595703125
0.4278076171875
0.4680908203125
0.5357666015625
0.507568359375
1.4115234374999999
0.9756591796874999
0.8064697265624999
0.7114013671874999
0.565576171875
0.4390869140625
0.191748046875
0.21108398437499998
0.24331054687499998
0.4406982421875
0.6533935546874999
0.8129150390625
0.7935791015625
0.8523925781249999
0.8886474609374999
0.9482666015625
1.018359375
1.074755859375
1.01513671875
1.0368896484374999
1.0046630859374999
0.207861328125
0.791162109375
0.9853271484374999
1.06669921875
1.2665039062499999
1.4655029296875
1.8304687499999999
1.867529296875
1.5476806640624998
1.3913818359374999
1.332568359375
1.2850341796875
1.364794921875
1.3422363281249998
1.2802001953125
1.3124267578125
1.2463623046874999
1.2665039062499999
1.32451171875
1.332568359375
1.3430419921874999
2.11083984375
1.7692382812499998
1.5589599609375
1.477587890625
1.3204833984375
1.21171875
0.926513671875
0.97646484375
1.0288330078124999
1.1666015625
1.1947998046875
1.2938964843749998
1.340625
1.4147460937499998
1.4413330078125
1.44052734375
1.4364990234375
1.442138671875
1.4510009765624998
1.4413330078125
1.4332763671875
0.775048828125
1.068310546875
1.29228515625
1.380908203125
1.5114257812499998
1.654833984375
1.8635009765625
2.2115478515625
1.9698486328125
1.71123046875
1.55009765625
1.5404296874999999
1.4880615234374999
1.490478515625
1.4622802734375
1.4332763671875
1.46953125
1.4928955078125
1.5315673828124998
1.5073974609374998
1.5154541015624998
1.8578613281249998
1.91748046875
1.6572509765624999
1.6185791015625
1.5146484375
1.4526123046875
1.21171875
1.12470703125
1.1190673828125
1.1617675781249999
1.2866455078124999
1.4147460937499998
1.4155517578124999
1.4501953125
1.4759765624999999
1.542041015625
1.554931640625
1.546875
1.6161621093749998
1.545263671875
1.480810546875
0.862060546875
1.0900634765625
1.3551269531249999
1.42119140625
1.496923828125
1.6951171875
1.754736328125
2.189794921875
1.9545410156249998
1.703173828125
1.6000488281249998
1.538818359375
1.5895751953125
1.5170654296875
1.5428466796875
1.5033691406249998
1.48564453125
1.546875
1.5396240234374998
1.5090087890625
1.4888671875
1.7692382812499998
2.0093261718749997
1.69189453125
1.6636962890625
1.5944091796875
1.4356933593749999
1.3059814453124998
1.1214843749999999
1.11826171875
1.268115234375
1.3108154296874999
1.42119140625
1.4187744140624998
1.4912841796874998
1.522705078125
1.5106201171875
1.538818359375
1.5299560546875
1.577490234375
1.545263671875
1.525927734375
1.232666015625
1.09892578125
1.3543212890624998
1.413134765625
1.4687255859375
1.6959228515625
1.735400390625
2.173681640625
1.899755859375
1.7345947265625
1.641943359375
1.5670166015625
1.6048828124999999
1.6218017578125
1.546875
1.461474609375
1.4510009765624998
1.5017578125
1.5364013671874999
1.5412353515625
1.5146484375
1.67578125
2.0633056640625
1.7595703125
1.6290527343749999
1.5597656249999998
1.46630859375
1.3946044921874998
1.18271484375
1.119873046875
1.2495849609374998
1.3390136718749999
1.3873535156249999
1.4526123046875
1.46953125
1.5428466796875
1.545263671875
1.5525146484374999
1.4888671875
1.5186767578125
1.5162597656249999
1.5492919921875
1.37607421875
0.958740234375
1.2745605468749999
1.4107177734374998
1.4953124999999998
1.5919921874999998
1.6975341796874999
2.0471923828125
2.0471923828125
1.7740722656249999
1.6475830078125
1.6242187499999998
1.6072998046875
1.5758789062499998
1.593603515625
1.546875
1.53720703125
1.5323730468749999
1.4791992187499998
1.4767822265625
1.5017578125
1.538818359375
2.1229248046875
1.8183837890624999
1.6435546875
1.6081054687499998
1.47275390625
1.4058837890625
1.1480712890625
1.15693359375
1.2254150390625
1.3043701171875
1.36962890625
1.4606689453125
1.4759765624999999
1.4751708984374998
1.509814453125
1.5396240234374998
1.56298828125
1.5090087890625
1.5525146484374999
1.525927734375
1.529150390625
0.8749511718749999
1.2592529296875
1.4574462890625
1.4800048828124999
1.554931640625
1.6403320312499998
2.0818359374999997
2.0004638671875
1.8683349609375
1.670947265625
1.60166015625
1.5460693359375
1.538818359375
1.5380126953125
1.545263671875
1.5380126953125
1.5557373046874998
1.5686279296874999
1.53076171875
1.506591796875
1.5138427734375
2.1076171875
1.8876708984375
1.6781982421875
1.6636962890625
1.5815185546875
1.413134765625
1.206884765625
1.147265625
1.139208984375
1.2616699218749998
1.3607666015625
1.4526123046875
1.4389160156249998
1.4888671875
1.5170654296875
1.5162597656249999
1.5573486328125
1.5154541015624998
1.5605712890624999
1.5436523437499998
1.5041748046874999
0.8741455078125
1.2374999999999998
1.4195800781249999
1.4606689453125
1.554931640625
1.6725585937499998
1.8393310546875
2.1261474609374997
1.8635009765625
1.6733642578124999
1.6250244140624999
1.5460693359375
1.5396240234374998
1.5396240234374998
1.5758789062499998
1.5444580078124999
1.53720703125
1.509814453125
1.5017578125
1.61455078125
1.5106201171875
2.0334960937499997
1.9303710937499998
1.7249267578124998
1.609716796875
1.5202880859374999
1.4373046875
1.3172607421875
1.203662109375
1.1915771484375
1.2544189453124999
1.384130859375
1.3792968749999999
1.3962158203125
1.5323730468749999
1.4832275390624998
1.5355957031249998
1.5565429687499999
1.53076171875
1.51787109375
1.5138427734375
1.5146484375
0.9966064453125
1.1456542968749999
1.416357421875
1.4139404296875
1.5106201171875
1.662890625
1.7499023437499999
2.1760986328125
1.98837890625
1.714453125
1.6161621093749998
1.561376953125
1.6000488281249998
1.5702392578125
1.5863525390625
1.61455078125
1.5082031249999999
1.490478515625
1.5154541015624998
1.4912841796874998
1.48564453125
1.6403320312499998
1.9231201171874999
1.6975341796874999
1.61455078125
1.5807128906249999
1.4501953125
1.3478759765625
1.1512939453125
1.1802978515625
1.2930908203125
1.3382080078124998
1.4469726562499998
1.46630859375
1.464697265625
1.5082031249999999
1.53720703125
1.5436523437499998
1.5517089843749998
1.561376953125
1.5186767578125
1.5235107421874998
0.994189453125
1.0385009765625
1.3639892578125
1.3857421875
1.5170654296875
1.6201904296874998
1.654833984375
2.144677734375
1.9988525390624998
1.7861572265624999
1.6024658203125
1.5831298828125
1.5766845703124999
1.590380859375
1.5782958984375
1.5404296874999999
1.51787109375
1.5315673828124998
1.5138427734375
1.5573486328125
1.5509033203125
1.5968261718749999
2.044775390625
1.7660156249999999
1.6564453124999998
1.571044921875
1.4687255859375
1.3301513671874998
1.1947998046875
1.1738525390624999
1.2109130859375
1.316455078125
1.380908203125
1.4469726562499998
1.493701171875
1.4848388671875
1.5114257812499998
1.5315673828124998
1.5766845703124999
1.5678222656249998
1.55009765625
1.56943359375
1.464697265625
0.90556640625
1.3865478515624998
1.4244140625
1.461474609375
1.611328125
1.6765869140624998
2.0689453125
1.9521240234375
1.7813232421874998
1.674169921875
1.5919921874999998
1.5235107421874998
1.5533203125
1.5380126953125
1.5162597656249999
1.5235107421874998
1.52109375
1.5589599609375
1.554931640625
1.5831298828125
1.5106201171875
2.102783203125
1.79501953125
1.65
1.5766845703124999
1.5275390624999998
1.426025390625
1.213330078125
1.1802978515625
1.2189697265625
1.27294921875
1.3744628906249998
1.4630859374999998
1.44052734375
1.4767822265625
1.4687255859375
1.509814453125
1.5315673828124998
1.5162597656249999
1.5557373046874998
1.58232421875
1.5412353515625
0.8950927734374999
1.22783203125
1.3704345703124998
1.46953125
1.5484863281249999
1.7015624999999999
2.0044921875
2.0858642578124997
1.8731689453125
1.6564453124999998
1.606494140625
1.60166015625
1.5766845703124999
1.5863525390625
1.5831298828125
1.50498046875
1.4590576171874998
1.5194824218749998
1.5170654296875
1.509814453125
1.5323730468749999
2.0407470703125
1.7990478515625
1.7168701171874998
1.5976318359375
1.5082031249999999
1.3873535156249999
1.2310546875
1.164990234375
1.2310546875
1.3148437499999999
1.3736572265625
1.456640625
1.4389160156249998
1.5057861328125
1.5090087890625
1.5251220703125
1.5436523437499998
1.5573486328125
1.522705078125
1.5090087890625
1.4864501953125
0.8886474609374999
1.2431396484375
1.416357421875
1.4719482421874999
1.5509033203125
1.667724609375
1.8296630859374998
2.054443359375
1.9263427734374998
1.7176757812499999
1.5396240234374998
1.5887695312499999
1.5895751953125
1.5146484375
1.4920898437499999
1.546875
1.5001464843749999
1.5517089843749998
1.538818359375
1.529150390625
1.4840332031249999
1.9400390625
1.9400390625
1.6532226562499999
1.611328125
1.5702392578125
1.4203857421875
1.2334716796875
1.1859374999999999
1.1802978515625
1.2818115234374998
1.3744628906249998
1.4276367187499999
1.4880615234374999
1.522705078125
1.4961181640624999
1.4953124999999998
1.5436523437499998
1.5218994140625
1.5146484375
1.5082031249999999
1.5170654296875
1.0658935546875
1.158544921875
1.384130859375
1.4413330078125
1.5138427734375
1.6781982421875
1.7539306640624999
2.1422607421874997
1.8659179687499998
1.67578125
1.6129394531249999
1.5927978515624999
1.6072998046875
1.5533203125
1.5355957031249998
1.5662109375
1.5162597656249999
1.5517089843749998
1.5726562499999999
1.493701171875
1.4953124999999998
1.861083984375
1.93359375
1.69189453125
1.5887695312499999
1.5927978515624999
1.448583984375
1.4074951171874999
1.22783203125
1.2020507812499999
1.2455566406249998
1.3712402343749999
1.3994384765624999
1.432470703125
1.4510009765624998
1.4961181640624999
1.5396240234374998
1.5525146484374999
1.5404296874999999
1.574267578125
1.5484863281249999
1.5025634765625
1.1512939453125
1.0376953125
1.3599609375
1.3913818359374999
1.4872558593749998
1.6105224609375
1.6886718749999998
2.1197021484375
2.01416015625
1.7611816406249998
1.6725585937499998
1.593603515625
1.56298828125
1.5315673828124998
1.5114257812499998
1.5243164062499999
1.49853515625
1.490478515625
1.546875
1.55009765625
1.5573486328125
1.5106201171875
2.08828125
1.6935058593749999
1.6161621093749998
1.625830078125
1.43408203125
1.4010498046875
1.21494140625
1.1706298828125
1.2157470703125
1.3527099609375
1.377685546875
1.4598632812499999
1.4469726562499998
1.5090087890625
1.482421875
1.4993408203124998
1.5243164062499999
1.533984375
1.5162597656249999
1.5533203125
1.5122314453124999
1.03447265625
1.3349853515624999
1.4542236328125
1.4679199218749999
1.558154296875
1.69189453125
2.152734375
1.9666259765624998
1.7821289062499999
1.65
1.6024658203125
1.56943359375
1.6040771484374998
1.5517089843749998
1.4993408203124998
1.5565429687499999
1.5017578125
1.5275390624999998
1.5202880859374999
1.5380126953125
1.5235107421874998
2.1664306640624997
1.7982421874999999
1.64677734375
1.6089111328124999
1.5243164062499999
1.3599609375
1.1947998046875
1.171435546875
1.21171875
1.3220947265624998
1.368017578125
1.4381103515625
1.4864501953125
1.4767822265625
1.542041015625
1.5283447265624999
1.5114257812499998
1.4912841796874998
1.5122314453124999
1.5355957031249998
1.542041015625
0.9176513671875
1.33740234375
1.4252197265625
1.4574462890625
1.5847412109374999
1.6701416015625
1.9424560546874998
2.086669921875
1.7926025390625
1.67578125
1.6161621093749998
1.522705078125
1.5460693359375
1.5662109375
1.5919921874999998
1.529150390625
1.4872558593749998
1.5090087890625
1.5428466796875
1.5645996093749999
1.5218994140625
2.0987548828125
1.8296630859374998
1.67578125
1.6169677734374999
1.5194824218749998
1.4356933593749999
1.2560302734375
1.1964111328125
1.203662109375
1.2987304687499999
1.377685546875
1.4493896484375
1.4356933593749999
1.5202880859374999
1.5436523437499998
1.5605712890624999
1.5645996093749999
1.5170654296875
1.5323730468749999
1.538818359375
1.5073974609374998
0.8958984375
1.184326171875
1.4155517578124999
1.4066894531249998
1.5146484375
1.60166015625
1.9078125
2.086669921875
1.9102294921874998
1.6363037109374998
1.5766845703124999
1.5637939453124998
1.554931640625
1.5194824218749998
1.5984375
1.6161621093749998
1.538818359375
1.4574462890625
1.4791992187499998
1.4920898437499999
1.4832275390624998
1.851416015625
1.899755859375
1.6878662109375
1.6298583984375
1.6129394531249999
1.4308593749999998
1.2955078125
1.20849609375
1.22138671875
1.2987304687499999
1.400244140625
1.4115234374999999
1.4195800781249999
1.4840332031249999
1.52109375
1.5001464843749999
1.5090087890625
1.5267333984375
1.5791015625
1.513037109375
1.5380126953125
0.9353759765624999
1.184326171875
1.3849365234375
1.4606689453125
1.4953124999999998
1.5839355468749998
1.699951171875
2.11728515625
1.9110351562499999
1.72734375
1.6218017578125
1.590380859375
1.5605712890624999
1.5444580078124999
1.51787109375
1.542041015625
1.5436523437499998
1.4953124999999998
1.538818359375
1.5355957031249998
1.5243164062499999
1.82080078125
2.0488037109375
1.6927001953124998
1.6153564453125
1.558154296875
1.4896728515625
1.3180664062499998
1.219775390625
1.1641845703125
1.284228515625
1.3897705078125
1.4219970703125
1.4139404296875
1.3857421875
1.4244140625
1.5162597656249999
1.5662109375
1.53720703125
1.5670166015625
1.545263671875
1.5073974609374998
1.1239013671875
1.0449462890624999
1.368017578125
1.393798828125
1.4977294921875
1.6451660156249999
1.7982421874999999
2.1462890624999997
1.832080078125
1.71123046875
1.662890625
1.58232421875
1.5758789062499998
1.5678222656249998
1.5380126953125
1.5799072265624998
1.5517089843749998
1.5396240234374998
1.4880615234374999
1.5025634765625
1.49853515625
1.5484863281249999
2.0471923828125
1.7611816406249998
1.622607421875
1.603271484375
1.4332763671875
1.3792968749999999
1.2262207031249999
1.1537109374999999
1.2705322265624999
1.3301513671874998
1.3849365234375
1.4332763671875
1.4791992187499998
1.4638916015624999
1.5243164062499999
1.574267578125
1.5412353515625
1.53076171875
1.5251220703125
1.525927734375
1.3502929687499998
1.007080078125
1.2995361328125
1.4276367187499999
1.4558349609374999
1.6185791015625
1.7096191406249999
2.1076171875
2.0085205078125
1.79501953125
1.6314697265625
1.6185791015625
1.5807128906249999
1.5041748046874999
1.53076171875
1.574267578125
1.542041015625
1.5017578125
1.5114257812499998
1.558154296875
1.525927734375
1.4526123046875
2.1068115234375
1.7764892578125
1.6008544921874999
1.5758789062499998
1.5243164062499999
1.4526123046875
1.2342773437499999
1.181103515625
1.24072265625
1.3261230468749998
1.4066894531249998
1.432470703125
1.42119140625
1.47275390625
1.5017578125
1.5380126953125
1.53076171875
1.5460693359375
1.5565429687499999
1.5589599609375
1.5436523437499998
0.9571289062499999
1.2640869140625
1.351904296875
1.4501953125
1.5525146484374999
1.6234130859375
2.080224609375
2.0246337890625
1.8248291015625
1.66611328125
1.5637939453124998
1.5927978515624999
1.5670166015625
1.5887695312499999
1.5791015625
1.5573486328125
1.5146484375
1.5251220703125
1.5090087890625
1.52109375
1.4993408203124998
2.0947265625
1.91748046875
1.6604736328124998
1.5726562499999999
1.538818359375
1.4332763671875
1.1794921875
1.1408203125
1.2012451171875
1.3011474609375
1.4107177734374998
1.4445556640625
1.4590576171874998
1.5138427734375
1.56298828125
1.5090087890625
1.509814453125
1.5170654296875
1.53720703125
1.5235107421874998
1.5017578125
0.9152343749999999
1.287451171875
1.42119140625
1.4308593749999998
1.5492919921875
1.7088134765624998
1.8683349609375
2.0761962890625
1.832080078125
1.7072021484375
1.6185791015625
1.58232421875
1.5815185546875
1.533984375
1.5621826171875
1.5251220703125
1.5138427734375
1.4759765624999999
1.5444580078124999
1.5114257812499998
1.53076171875
2.02705078125
1.893310546875
1.658056640625
1.6379150390625
1.5597656249999998
1.4469726562499998
1.2777832031249998
1.2060791015624999
1.1859374999999999
1.2455566406249998
1.3575439453125
1.4655029296875
1.4316650390624999
1.4751708984374998
1.5082031249999999
1.5057861328125
1.5541259765625
1.5541259765625
1.53076171875
1.55009765625
1.5235107421874998
0.942626953125
1.13115234375
1.3825195312499998
1.4284423828125
1.53720703125
1.6636962890625
1.8038818359375
2.13662109375
1.9198974609375
1.7184814453125
1.6209960937499999
1.6314697265625
1.5267333984375
1.5106201171875
1.5492919921875
1.5436523437499998
1.52109375
1.4791992187499998
1.5428466796875
1.506591796875
1.5106201171875
1.7184814453125
2.0020751953125
1.6749755859375
1.6137451171875
1.603271484375
1.4228027343749998
1.2818115234374998
1.1561279296875
1.1947998046875
1.2399169921875
1.3422363281249998
1.4066894531249998
1.50498046875
1.542041015625
1.5243164062499999
1.490478515625
1.5146484375
1.5944091796875
1.5364013671874999
1.53720703125
1.590380859375
1.2503906249999999
1.116650390625
1.37607421875
1.4558349609374999
1.5122314453124999
1.6346923828125
1.6725585937499998
2.077001953125
1.9150634765624999
1.7281494140625
1.6451660156249999
1.6105224609375
1.5984375
1.5484863281249999
1.5492919921875
1.5533203125
1.52109375
1.5186767578125
1.513037109375
1.4977294921875
1.5243164062499999
1.6250244140624999
2.0560546875
1.7764892578125
1.662890625
1.5782958984375
1.4074951171874999
1.3543212890624998
1.21494140625
1.1641845703125
1.2157470703125
1.3664062499999998
1.416357421875
1.4477783203124999
1.4783935546875
1.529150390625
1.5525146484374999
1.5251220703125
1.5726562499999999
1.5484863281249999
1.5138427734375
1.5323730468749999
1.3881591796875
0.9659912109375
1.3704345703124998
1.40830078125
1.4026611328124998
1.6314697265625
1.6322753906249998
2.012548828125
2.031884765625
1.7635986328125
1.6572509765624999
1.6290527343749999
1.6081054687499998
1.5637939453124998
1.506591796875
1.5315673828124998
1.5154541015624998
1.51787109375
1.56943359375
1.5025634765625
1.5267333984375
1.50498046875
2.012548828125
1.7394287109375
1.6282470703124998
1.5968261718749999
1.506591796875
1.456640625
1.26005859375
1.1657958984374999
1.235888671875
1.329345703125
1.413134765625
1.45341796875
1.4074951171874999
1.5138427734375
1.4840332031249999
1.5517089843749998
1.5807128906249999
1.5605712890624999
1.571044921875
1.5380126953125
1.432470703125
0.9434326171874999
1.2785888671874999
1.4115234374999999
1.448583984375
1.5589599609375
1.5960205078124998
1.9754882812499999
2.0294677734374997
1.8546386718749999
1.6798095703125
1.5895751953125
1.585546875
1.5686279296874999
1.5766845703124999
1.554931640625
1.5364013671874999
1.51787109375
1.5525146484374999
1.5662109375
1.522705078125
1.5492919921875
2.0906982421875
1.7813232421874998
1.6008544921874999
1.5686279296874999
1.52109375
1.4574462890625
1.2511962890625
1.1915771484375
1.216552734375
1.3462646484374998
1.3978271484375
1.4550292968749998
1.4791992187499998
1.5114257812499998
1.5001464843749999
1.4800048828124999
1.545263671875
1.5243164062499999
1.5565429687499999
1.5073974609374998
1.4783935546875
0.9474609374999999
1.2511962890625
1.4469726562499998
1.4759765624999999
1.5879638671874998
1.6443603515624998
1.92392578125
1.96904296875
1.8151611328125
1.714453125
1.5791015625
1.5637939453124998
1.5557373046874998
1.5565429687499999
1.5702392578125
1.5170654296875
1.5235107421874998
1.4920898437499999
1.4961181640624999
1.51787109375
1.5364013671874999
2.0214111328124997
1.8892822265625
1.674169921875
1.6242187499999998
1.5766845703124999
1.4284423828125
1.22783203125
1.1770751953125
1.181103515625
1.3100097656249998
1.3768798828125
1.442138671875
1.3913818359374999
1.4848388671875
1.5315673828124998
1.5082031249999999
1.5476806640624998
1.529150390625
1.5186767578125
1.5517089843749998
1.5460693359375
1.045751953125
1.1295410156249999
1.3881591796875
1.4501953125
1.456640625
1.658056640625
1.8489990234375
2.1164794921875
1.8667236328124999
1.69189453125
1.6024658203125
1.574267578125
1.6008544921874999
1.5589599609375
1.5476806640624998
1.5718505859374998
1.5162597656249999
1.5138427734375
1.4912841796874998
1.46953125
1.506591796875
1.6403320312499998
1.9352050781249999
1.6306640625
1.5758789062499998
1.593603515625
1.4469726562499998
1.3801025390625
1.2173583984375
1.190771484375
1.271337890625
1.3124267578125
1.4123291015625
1.4558349609374999
1.5017578125
1.506591796875
1.5186767578125
1.56943359375
1.5323730468749999
1.542041015625
1.5831298828125
1.5323730468749999
1.0489746093749999
1.0658935546875
1.384130859375
1.458251953125
1.4719482421874999
1.571044921875
1.714453125
2.1503173828124997
1.93681640625
1.767626953125
1.611328125
1.5662109375
1.587158203125
1.6000488281249998
1.593603515625
1.533984375
1.5025634765625
1.49853515625
1.5428466796875
1.5605712890624999
1.5017578125
1.5815185546875
2.0842529296875
1.6733642578124999
1.625830078125
1.62744140625
1.456640625
1.3212890625
1.1802978515625
1.1577392578124999
1.2455566406249998
1.3414306640625
1.4066894531249998
1.413134765625
1.490478515625
1.4993408203124998
1.5138427734375
1.5073974609374998
1.477587890625
1.5251220703125
1.5589599609375
1.5887695312499999
1.46630859375
1.0489746093749999
1.351904296875
1.4195800781249999
1.509814453125
1.5678222656249998
1.6620849609375
2.1342041015624997
1.8949218749999999
1.7539306640624999
1.6717529296875
1.603271484375
1.561376953125
1.5492919921875
1.558154296875
1.5654052734375
1.5573486328125
1.5267333984375
1.5267333984375
1.5662109375
1.5589599609375
1.558154296875
2.08505859375
1.791796875
1.5799072265624998
1.542041015625
1.49853515625
1.46630859375
1.2157470703125
1.1335693359374999
1.2109130859375
1.3269287109374999
1.4123291015625
1.4767822265625
1.4711425781249998
1.4735595703125
1.513037109375
1.48564453125
1.5267333984375
1.50498046875
1.5243164062499999
1.5444580078124999
1.5541259765625
0.929736328125
1.3220947265624998
1.3905761718749998
1.4252197265625
1.5323730468749999
1.6814208984374999
1.94970703125
2.07861328125
1.7845458984375
1.7023681640625
1.6177734375
1.5976318359375
1.5541259765625
1.5275390624999998
1.5428466796875
1.5436523437499998
1.5009521484375
1.58232421875
1.490478515625
1.4816162109375
1.482421875
2.151123046875
1.8103271484374999
1.6177734375
1.5839355468749998
1.5025634765625
1.4107177734374998
1.26005859375
1.1666015625
1.2141357421874999
1.3261230468749998
1.4091064453125
1.4445556640625
1.445361328125
1.5275390624999998
1.52109375
1.5235107421874998
1.538818359375
1.5597656249999998
1.5275390624999998
1.55009765625
1.461474609375
0.8846191406249999
1.206884765625
1.3929931640625
1.4187744140624998
1.5082031249999999
1.6483886718749998
1.9875732421874999
2.051220703125
1.8941162109374998
1.6991455078125
1.590380859375
1.561376953125
1.56298828125
1.529150390625
1.5323730468749999
1.5541259765625
1.5444580078124999
1.5444580078124999
1.5243164062499999
1.4735595703125
1.5218994140625
1.9666259765624998
1.9746826171874998
1.6435546875
1.6411376953124999
1.6153564453125
1.4147460937499998
1.2721435546875
1.2310546875
1.2076904296875
1.3204833984375
1.3752685546874999
1.4026611328124998
1.4308593749999998
1.522705078125
1.496923828125
1.5009521484375
1.5218994140625
1.5355957031249998
1.558154296875
1.5678222656249998
1.5154541015624998
1.013525390625
1.1529052734375
1.3688232421875
1.482421875
1.506591796875
1.6491943359374999
1.791796875
2.064111328125
1.8892822265625
1.7217041015624999
1.6290527343749999
1.5557373046874998
1.5517089843749998
1.5428466796875
1.5428466796875
1.6000488281249998
1.5170654296875
1.50498046875
1.5323730468749999
1.5170654296875
1.513037109375
1.8844482421875
1.9400390625
1.690283203125
1.6040771484374998
1.5670166015625
1.4598632812499999
1.3092041015625
1.2262207031249999
1.2052734375
1.219775390625
1.348681640625
1.4526123046875
1.458251953125
1.5057861328125
1.4671142578124998
1.513037109375
1.5517089843749998
1.56298828125
1.546875
1.4550292968749998
1.53720703125
1.134375
1.07958984375
1.377685546875
1.4276367187499999
1.5114257812499998
1.6765869140624998
1.7120361328125
2.0979492187499997
1.931982421875
1.7595703125
1.6532226562499999
1.60166015625
1.5589599609375
1.5702392578125
1.5444580078124999
1.5380126953125
1.5380126953125
1.554931640625
1.4703369140625
1.5114257812499998
1.5283447265624999
1.5170654296875
2.035107421875
1.735400390625
1.59521484375
1.545263671875
1.4751708984374998
1.38896484375
1.22138671875
1.190771484375
1.2431396484375
1.3229003906249999
1.426025390625
1.413134765625
1.442138671875
1.46630859375
1.5404296874999999
1.538818359375
1.5476806640624998
1.5106201171875
1.5509033203125
1.5533203125
1.16337890625
1.0417236328125
1.397021484375
1.4091064453125
1.4759765624999999
1.5960205078124998
1.641943359375
2.1261474609374997
1.9384277343749998
1.7249267578124998
1.635498046875
1.5919921874999998
1.55009765625
1.5541259765625
1.5565429687499999
1.5444580078124999
1.5154541015624998
1.5412353515625
1.6024658203125
1.577490234375
1.5331787109375
1.5186767578125
2.0979492187499997
1.722509765625
1.6475830078125
1.5791015625
1.4961181640624999
1.3583496093749998
1.1738525390624999
1.1867431640625
1.2383056640624999
1.3172607421875
1.3583496093749998
1.4445556640625
1.409912109375
1.5033691406249998
1.533984375
1.4896728515625
1.5766845703124999
1.6346923828125
1.5154541015624998
1.5162597656249999
1.5267333984375
1.0175537109375
1.3921875
1.4115234374999999
1.4574462890625
1.5315673828124998
1.5637939453124998
2.0431640625
2.0052978515624997
1.7942138671874999
1.6000488281249998
1.5984375
1.58232421875
1.6000488281249998
1.5621826171875
1.56298828125
1.5114257812499998
1.46630859375
1.4961181640624999
1.5009521484375
1.5404296874999999
1.5476806640624998
2.09150390625
1.8135498046874998
1.6765869140624998
1.6056884765625
1.5460693359375
1.4751708984374998
1.2415283203124998
1.1537109374999999
1.184326171875
1.335791015625
1.40185546875
1.4195800781249999
1.456640625
1.5299560546875
1.5525146484374999
1.5009521484375
1.4671142578124998
1.4759765624999999
1.5202880859374999
1.542041015625
1.5573486328125
0.929736328125
1.219775390625
1.4026611328124998
1.464697265625
1.482421875
1.6153564453125
1.8860595703124998
2.0689453125
1.819189453125
1.732177734375
1.6701416015625
1.5984375
1.6072998046875
1.5702392578125
1.522705078125
1.5033691406249998
1.48564453125
1.56298828125
1.5396240234374998
1.5275390624999998
1.4574462890625
1.9223144531249998
1.8199951171875
1.6653076171874999
1.6024658203125
1.5726562499999999
1.4558349609374999
1.2665039062499999
1.200439453125
1.174658203125
1.2834228515625
1.4219970703125
1.3986328124999998
1.4058837890625
1.4598632812499999
1.5517089843749998
1.542041015625
1.5557373046874998
1.5380126953125
1.5484863281249999
1.5396240234374998
1.554931640625
0.93779296875
1.1931884765625
1.340625
1.43408203125
1.5025634765625
1.6443603515624998
1.8973388671875
2.1342041015624997
1.88525390625
1.7249267578124998
1.59521484375
1.5863525390625
1.56298828125
1.5355957031249998
1.5202880859374999
1.5428466796875
1.5106201171875
1.5146484375
1.56943359375
1.5162597656249999
1.5283447265624999
1.843359375
1.998046875
1.67578125
1.5911865234375
1.5919921874999998
1.432470703125
1.3510986328124999
1.1835205078125
1.1923828125
1.22783203125
1.3494873046875
1.42119140625
1.4316650390624999
1.5138427734375
1.4759765624999999
1.4953124999999998
1.50498046875
1.522705078125
1.5138427734375
1.5758789062499998
1.5476806640624998
1.1915771484375
1.1593505859375
1.3946044921874998
1.3954101562499999
1.4606689453125
1.6234130859375
1.7635986328125
2.14306640625
1.8546386718749999
1.7418457031249999
1.7313720703125
1.6040771484374998
1.5927978515624999
1.587158203125
1.5517089843749998
1.5299560546875
1.53720703125
1.4751708984374998
1.5355957031249998
1.4993408203124998
1.5267333984375
1.72412109375
1.972265625
1.72734375
1.6250244140624999
1.6048828124999999
1.4711425781249998
1.3792968749999999
1.2592529296875
1.1738525390624999
1.1996337890625
1.361572265625
1.3954101562499999
1.44052734375
1.4687255859375
1.506591796875
1.5492919921875
1.52109375
1.5041748046874999
1.529150390625
1.5557373046874998
1.5275390624999998
1.2818115234374998
0.994189453125
1.3583496093749998
1.405078125
1.45341796875
1.6137451171875
1.7023681640625
2.075390625
1.9988525390624998
1.77890625
1.6620849609375
1.571044921875
1.5364013671874999
1.5766845703124999
1.5863525390625
1.609716796875
1.5347900390625
1.5001464843749999
1.4920898437499999
1.5154541015624998
1.5235107421874998
1.5597656249999998
2.0391357421875
1.7450683593749998
1.6185791015625
1.6081054687499998
