1.47275390625
1.5243164062499999
1.9182861328124998
1.8884765625
1.6967285156249998
1.60166015625
1.546875
1.458251953125
1.2745605468749999
1.2286376953125
1.181103515625
1.2374999999999998
1.36962890625
1.4606689453125
1.4598632812499999
1.4445556640625
1.477587890625
1.4993408203124998
1.5976318359375
1.493701171875
1.5186767578125
1.5347900390625
1.561376953125
1.100537109375
1.1190673828125
1.3768798828125
1.405078125
1.4832275390624998
1.635498046875
1.6886718749999998
2.0987548828125
1.9505126953124998
1.7458740234374999
1.6854492187499999
1.60166015625
1.585546875
1.561376953125
1.533984375
1.5436523437499998
1.525927734375
1.533984375
1.529150390625
1.4912841796874998
1.4993408203124998
1.5702392578125
1.96904296875
1.7499023437499999
1.6218017578125
1.5476806640624998
1.4429443359374998
1.3494873046875
1.2125244140625
1.173046875
1.316455078125
1.3962158203125
1.4228027343749998
1.397021484375
1.4228027343749998
1.5106201171875
1.577490234375
1.5678222656249998
1.558154296875
1.58232421875
1.6000488281249998
1.546875
1.0852294921874999
1.0763671875
1.3470703124999999
1.4501953125
1.5025634765625
1.6072998046875
1.674169921875
2.1197021484375
1.8892822265625
1.7587646484375
1.5976318359375
1.58232421875
1.558154296875
1.577490234375
1.56298828125
1.5283447265624999
1.5218994140625
1.522705078125
1.5170654296875
1.5267333984375
1.5484863281249999
1.4888671875
2.0165771484375
1.7281494140625
1.6943115234375
1.641943359375
1.5235107421874998
1.3559326171875
1.1593505859375
1.1770751953125
1.255224609375
1.3333740234375
1.4437499999999999
1.4300537109375
1.461474609375
1.5323730468749999
1.5283447265624999
1.5315673828124998
1.5484863281249999
1.5476806640624998
1.5670166015625
1.5533203125
1.4622802734375
1.06025390625
1.33740234375
1.4066894531249998
1.477587890625
1.5621826171875
1.641943359375
2.0745849609375
1.9263427734374998
1.7297607421874999
1.6218017578125
1.5396240234374998
1.5839355468749998
1.5734619140625
1.5758789062499998
1.5815185546875
1.5396240234374998
1.5484863281249999
1.5573486328125
1.5122314453124999
1.4638916015624999
1.4687255859375
2.0842529296875
1.7893798828124998
1.6081054687499998
1.5968261718749999
1.5484863281249999
1.4429443359374998
1.271337890625
1.198828125
1.21494140625
1.3446533203125
1.3857421875
1.3962158203125
1.4171630859375
1.5404296874999999
1.55009765625
1.5404296874999999
1.5960205078124998
1.5033691406249998
1.5533203125
1.5275390624999998
1.5509033203125
0.91201171875
1.2310546875
1.4187744140624998
1.4679199218749999
1.50498046875
1.64677734375
1.9601806640625
2.0681396484375
1.7781005859374999
1.6653076171874999
1.6121337890624998
1.5750732421875
1.609716796875
1.522705078125
1.5557373046874998
1.5396240234374998
1.5057861328125
1.5057861328125
1.5347900390625
1.4993408203124998
1.5017578125
1.9118408203125
1.8441650390625
1.69833984375
1.6266357421875
1.533984375
1.432470703125
1.2592529296875
1.2221923828124999
1.1698242187499999
1.2979248046874998
1.3478759765625
1.4219970703125
1.4510009765624998
1.4977294921875
1.5041748046874999
1.5057861328125
1.533984375
1.5323730468749999
1.4961181640624999
1.529150390625
1.5315673828124998
0.9450439453124999
1.213330078125
1.4171630859375
1.4348876953124998
1.5162597656249999
1.6427490234375
1.9787109374999998
2.07861328125
1.8498046874999998
1.6862548828125
1.5758789062499998
1.5847412109374999
1.5686279296874999
1.56943359375
1.5347900390625
1.51787109375
1.5267333984375
1.5162597656249999
1.5678222656249998
1.5750732421875
1.561376953125
1.828857421875
1.9489013671875
1.674169921875
1.6290527343749999
1.5766845703124999
1.5001464843749999
1.32451171875
1.2254150390625
1.2254150390625
1.2665039062499999
1.3607666015625
1.3672119140624999
1.4373046875
1.4800048828124999
1.5073974609374998
1.4977294921875
1.50498046875
1.5235107421874998
1.4880615234374999
1.525927734375
1.577490234375
1.164990234375
1.213330078125
1.3849365234375
1.46630859375
1.533984375
1.603271484375
1.71123046875
2.1035888671875
1.85302734375
1.7797119140625
1.674169921875
1.6048828124999999
1.5919921874999998
1.5565429687499999
1.5041748046874999
1.53720703125
1.52109375
1.4872558593749998
1.538818359375
1.5154541015624998
1.5476806640624998
1.7861572265624999
1.977099609375
1.7370117187499998
1.6459716796875
1.6072998046875
1.4703369140625
1.393798828125
1.2221923828124999
1.181103515625
1.2834228515625
1.3744628906249998
1.40185546875
1.43408203125
1.4550292968749998
1.482421875
1.50498046875
1.513037109375
1.5565429687499999
1.5299560546875
1.5025634765625
1.538818359375
1.2221923828124999
1.0159423828125
1.426025390625
1.416357421875
1.4501953125
1.6105224609375
1.7394287109375
2.083447265625
1.9972412109375
1.7829345703125
1.6290527343749999
1.5670166015625
1.5476806640624998
1.5202880859374999
1.5968261718749999
1.53720703125
1.571044921875
1.5444580078124999
1.5235107421874998
1.5702392578125
1.5251220703125
1.538818359375
2.0230224609375
1.7499023437499999
1.6653076171874999
1.6403320312499998
1.4751708984374998
1.4058837890625
1.18916015625
1.1351806640625
1.1859374999999999
1.300341796875
1.4308593749999998
1.4139404296875
1.4816162109375
1.5428466796875
1.5033691406249998
1.4848388671875
1.50498046875
1.5492919921875
1.5355957031249998
1.5057861328125
1.2656982421874998
1.0159423828125
1.3559326171875
1.429248046875
1.4945068359375
1.5919921874999998
1.6121337890624998
2.1374267578125
1.9521240234375
1.7740722656249999
1.662890625
1.6290527343749999
1.5927978515624999
1.5919921874999998
1.506591796875
1.52109375
1.5412353515625
1.5275390624999998
1.5541259765625
1.5380126953125
1.5380126953125
1.506591796875
2.0794189453125
1.8385253906249999
1.658056640625
1.5984375
1.546875
1.416357421875
1.17626953125
1.148876953125
1.2383056640624999
1.3929931640625
1.4219970703125
1.4429443359374998
1.47275390625
1.4928955078125
1.4953124999999998
1.5267333984375
1.5758789062499998
1.5355957031249998
1.448583984375
1.5138427734375
1.5082031249999999
0.9152343749999999
1.2995361328125
1.3857421875
1.4115234374999999
1.546875
1.6846435546874998
1.98515625
2.0149658203125
1.8119384765625
1.6862548828125
1.6330810546874999
1.574267578125
1.587158203125
1.593603515625
1.5565429687499999
1.493701171875
1.5057861328125
1.51787109375
1.5605712890624999
1.5412353515625
1.5347900390625
2.0858642578124997
1.8570556640625
1.6645019531249998
1.6435546875
1.5436523437499998
1.3978271484375
1.1883544921875
1.1496826171874999
1.19560546875
1.2898681640624998
1.3978271484375
1.4300537109375
1.4115234374999999
1.4711425781249998
1.5170654296875
1.5323730468749999
1.533984375
1.5323730468749999
1.49853515625
1.574267578125
1.53720703125
0.9313476562499999
1.1947998046875
1.3833251953124999
1.456640625
1.533984375
1.6282470703124998
1.8522216796875
2.1245361328125
1.915869140625
1.7732666015624998
1.61455078125
1.585546875
1.5815185546875
1.5847412109374999
1.5984375
1.51787109375
1.4953124999999998
1.5186767578125
1.4671142578124998
1.513037109375
1.5033691406249998
1.803076171875
1.9037841796875
1.714453125
1.6379150390625
1.5275390624999998
1.4236083984374999
1.276171875
1.2093017578125
1.22783203125
1.3043701171875
1.4066894531249998
1.3905761718749998
1.393798828125
1.4606689453125
1.5146484375
1.4920898437499999
1.529150390625
1.5235107421874998
1.5073974609374998
1.5404296874999999
1.5202880859374999
1.0191650390625
1.155322265625
1.40185546875
1.4671142578124998
1.4711425781249998
1.6089111328124999
1.6846435546874998
2.1333984375
1.896533203125
1.74345703125
1.6540283203125
1.6089111328124999
1.5621826171875
1.571044921875
1.538818359375
1.545263671875
1.5573486328125
1.5364013671874999
1.5364013671874999
1.5541259765625
1.5541259765625
1.683837890625
2.0052978515624997
1.638720703125
1.6201904296874998
1.5847412109374999
1.456640625
1.3365966796875
1.198828125
1.1367919921875
1.276171875
1.3180664062499998
1.3905761718749998
1.4671142578124998
1.5218994140625
1.5412353515625
1.4880615234374999
1.4791992187499998
1.5057861328125
1.5243164062499999
1.5791015625
1.546875
1.232666015625
1.15048828125
1.409912109375
1.4348876953124998
1.4364990234375
1.625830078125
1.6459716796875
2.0334960937499997
1.9110351562499999
1.844970703125
1.6894775390624999
1.561376953125
1.5654052734375
1.6298583984375
1.5726562499999999
1.5114257812499998
1.474365234375
1.5484863281249999
1.5460693359375
1.5299560546875
1.5380126953125
1.6081054687499998
2.028662109375
1.7571533203124998
1.6330810546874999
1.590380859375
1.4356933593749999
1.3962158203125
1.2101074218749999
1.1690185546875
1.2399169921875
1.3390136718749999
1.3849365234375
1.4437499999999999
1.4598632812499999
1.5082031249999999
1.5138427734375
1.5090087890625
1.482421875
1.5186767578125
1.5364013671874999
1.5243164062499999
1.413134765625
0.978076171875
1.3237060546875
1.4332763671875
1.4493896484375
1.554931640625
1.6645019531249998
2.05283203125
2.0520263671875
1.843359375
1.6701416015625
1.6250244140624999
1.5597656249999998
1.5895751953125
1.6242187499999998
1.5911865234375
1.5315673828124998
1.5347900390625
1.4945068359375
1.5154541015624998
1.5057861328125
1.50498046875
2.0584716796875
1.7861572265624999
1.67578125
1.619384765625
1.5122314453124999
1.409912109375
1.1964111328125
1.11181640625
1.2157470703125
1.3140380859374998
1.3664062499999998
1.4679199218749999
1.4445556640625
1.4864501953125
1.513037109375
1.4993408203124998
1.5621826171875
1.545263671875
1.5243164062499999
1.5073974609374998
1.5444580078124999
0.9402099609375
1.29228515625
1.4139404296875
1.46953125
1.56298828125
1.6330810546874999
2.0906982421875
2.0407470703125
1.844970703125
1.73056640625
1.5968261718749999
1.5589599609375
1.5162597656249999
1.56298828125
1.5484863281249999
1.5355957031249998
1.5275390624999998
1.5323730468749999
1.5001464843749999
1.5243164062499999
1.5299560546875
2.11728515625
1.90458984375
1.6814208984374999
1.603271484375
1.5766845703124999
1.4171630859375
1.1754638671875
1.0626708984375
1.1400146484375
1.2938964843749998
1.3921875
1.44052734375
1.46630859375
1.50498046875
1.490478515625
1.5194824218749998
1.561376953125
1.5799072265624998
1.5509033203125
1.58232421875
1.5154541015624998
0.928125
1.2157470703125
1.3720458984375
1.4477783203124999
1.4501953125
1.6532226562499999
1.89169921875
2.238134765625
1.915869140625
1.7442626953125
1.5927978515624999
1.542041015625
1.5992431640625
1.571044921875
1.5645996093749999
1.574267578125
1.4920898437499999
1.4832275390624998
1.5476806640624998
1.496923828125
1.5396240234374998
2.086669921875
1.9650146484375
1.67578125
1.5847412109374999
1.5605712890624999
1.4236083984374999
1.2721435546875
1.1335693359374999
1.181103515625
1.268115234375
1.3470703124999999
1.397021484375
1.4655029296875
1.522705078125
1.5106201171875
1.5766845703124999
1.5355957031249998
1.482421875
1.506591796875
1.5090087890625
1.5041748046874999
0.9152343749999999
1.045751953125
1.361572265625
1.461474609375
1.53720703125
1.638720703125
1.844970703125
2.2872802734374997
2.0197998046875
1.7329833984374998
1.667724609375
1.6089111328124999
1.6161621093749998
1.5202880859374999
1.5702392578125
1.5799072265624998
1.5122314453124999
1.4920898437499999
1.529150390625
1.509814453125
1.53076171875
1.7329833984374998
2.0085205078125
1.786962890625
1.5807128906249999
1.5799072265624998
1.3954101562499999
1.303564453125
1.119873046875
1.1053710937499999
1.2060791015624999
1.3140380859374998
1.4469726562499998
1.4397216796874999
1.4783935546875
1.5009521484375
1.5122314453124999
1.571044921875
1.5807128906249999
1.5847412109374999
1.5484863281249999
1.522705078125
0.9240966796875
0.9079833984375
1.21494140625
1.3631835937499999
1.509814453125
1.6048828124999999
1.662890625
2.4065185546875
2.1599853515625
1.9215087890625
1.6878662109375
1.5887695312499999
1.5404296874999999
1.5637939453124998
1.5017578125
1.5017578125
1.5597656249999998
1.558154296875
1.4928955078125
1.5114257812499998
1.4558349609374999
1.609716796875
2.376708984375
2.0697509765624997
1.84013671875
1.75634765625
1.53076171875
1.26005859375
0.8467529296874999
0.8040527343749999
0.881396484375
1.0143310546875
1.1770751953125
1.2914794921875
1.4356933593749999
1.590380859375
1.5750732421875
1.5686279296874999
1.5670166015625
1.6121337890624998
1.5799072265624998
1.574267578125
1.364794921875
0.47856445312499996
0.8983154296875
1.0497802734375
1.21494140625
1.5283447265624999
1.764404296875
2.6055175781249997
2.7320068359375
2.5064208984375
2.2550537109374997
2.0052978515624997
1.7184814453125
1.638720703125
1.6056884765625
1.538818359375
1.5170654296875
1.482421875
1.5831298828125
1.4848388671875
1.4783935546875
1.400244140625
2.7368408203124996
2.6530517578125
2.5144775390625
2.4097412109375
2.165625
1.851416015625
1.2665039062499999
0.5712158203125
0.31662597656249997
0.1571044921875
0.17241210937499998
0.1426025390625
0.019335937499999997
0.0281982421875
0.0249755859375
0.0523681640625
0.12810058593749998
0.1699951171875
0.1458251953125
0.2384765625
0.16274414062499998
0.02578125
0.023364257812499997
0.0298095703125
0.024169921875
0.0217529296875
0.0281982421875
0.8741455078125
1.8095214843749998
2.3050048828125
2.6353271484375
2.9140869140624996
3.0228515624999996
3.0284912109374997
3.027685546875
3.02607421875
3.02607421875
2.9124755859375
2.7722900390625
2.76181640625
2.7005859374999996
2.5370361328124997
3.02607421875
3.0317138671875
3.027685546875
3.0284912109374997
3.0244628906249997
3.02607421875
2.6659423828124997
2.193017578125
1.4872558593749998
0.871728515625
0.45036621093749996
0.2537841796875
0.026586914062499998
0.02578125
0.02578125
0.030615234374999998
0.09748535156249999
0.1796630859375
0.23525390624999998
0.33273925781249997
0.4084716796875
0.02578125
0.024169921875
0.02578125
0.0298095703125
0.030615234374999998
0.024169921875
0.6582275390625
1.6105224609375
2.2067138671874997
2.4443847656249997
2.69091796875
2.8399658203125
2.9680664062499997
3.0043212890624997
2.98740234375
2.9720947265624997
2.9382568359374996
2.840771484375
2.7674560546875
2.6321044921874996
2.5483154296875
3.0325195312499997
3.0268798828124996
3.027685546875
3.0252685546875
3.0268798828124996
3.029296875
3.0309082031249996
2.24619140625
1.5202880859374999
1.023193359375
0.6268066406249999
0.26022949218749997
0.0249755859375
0.0217529296875
0.026586914062499998
0.02900390625
0.0314208984375
0.09023437499999999
0.107958984375
0.1313232421875
0.1345458984375
0.026586914062499998
0.0249755859375
0.024169921875
0.026586914062499998
0.02578125
0.030615234374999998
0.024169921875
1.3752685546874999
1.8844482421875
2.14951171875
2.405712890625
2.586181640625
2.5958496093749996
2.8399658203125
2.8617187499999996
2.9334228515625
2.78759765625
2.6844726562499996
2.5845703125
2.6014892578124997
2.56845703125
3.029296875
3.0301025390625
3.0284912109374997
3.0284912109374997
3.029296875
3.029296875
3.0268798828124996
2.566845703125
1.9150634765624999
1.1432373046875
0.71220703125
0.42861328125
0.1297119140625
0.0217529296875
0.02900390625
0.022558593749999998
0.0249755859375
0.024169921875
0.1007080078125
0.1345458984375
0.20705566406249998
0.026586914062499998
0.0249755859375
0.022558593749999998
0.0298095703125
0.0249755859375
0.02578125
0.022558593749999998
0.9651855468749999
1.7635986328125
2.312255859375
2.5475097656249996
2.70703125
2.8037109375
2.8157958984375
2.8536621093749996
2.947119140625
2.92939453125
2.83271484375
2.7779296875
2.5595947265624996
2.5072265624999996
2.4693603515625
3.027685546875
3.0236572265625
3.0309082031249996
3.027685546875
3.029296875
3.027685546875
2.6594970703125
1.67578125
1.0691162109374999
0.6751464843749999
0.2255859375
0.0217529296875
0.02900390625
0.0249755859375
0.024169921875
0.14018554687499998
0.02900390625
0.0249755859375
0.045117187499999996
0.0668701171875
0.11923828125
0.0249755859375
0.02578125
0.027392578124999997
0.023364257812499997
0.026586914062499998
0.0249755859375
0.688037109375
1.7394287109375
2.1454833984375
2.34931640625
2.4322998046874997
2.462109375
2.5845703125
2.6385498046875
2.69091796875
2.5885986328125
2.5644287109375
2.6055175781249997
2.5418701171875
2.5007812499999997
2.3662353515625
3.029296875
3.0301025390625
3.027685546875
3.02607421875
3.0284912109374997
3.0268798828124996
2.5845703125
2.164013671875
1.5082031249999999
0.961962890625
0.6114990234375
0.3053466796875
0.0378662109375
0.02578125
0.02578125
0.02578125
0.078955078125
0.040283203125
0.0620361328125
0.13212890624999998
0.19255371093749998
0.026586914062499998
0.02578125
0.02578125
0.0314208984375
0.024169921875
0.023364257812499997
0.08217773437499999
1.558154296875
2.096337890625
2.4484130859374997
2.5587890625
2.6232421875
2.7666503906249997
2.8294921874999996
2.8133789062499996
2.8512451171874997
2.7706787109374997
2.6901123046874997
2.5918212890624996
2.4838623046875
2.3525390625
3.027685546875
3.0236572265625
3.029296875
3.0317138671875
3.0228515624999996
3.0284912109374997
2.9583984374999996
2.37509765625
1.413134765625
0.8950927734374999
0.546240234375
0.262646484375
0.0362548828125
0.030615234374999998
0.030615234374999998
0.020947265625
0.023364257812499997
0.0281982421875
0.026586914062499998
0.0249755859375
0.0765380859375
0.0281982421875
0.030615234374999998
0.02578125
0.02578125
0.024169921875
0.030615234374999998
0.02578125
1.019970703125
1.9392333984374999
2.2236328125
2.4202148437499997
2.5595947265624996
2.6659423828124997
2.7585937499999997
2.8786376953125
2.92294921875
2.8109619140624997
2.7988769531249997
2.5773193359374997
2.5797363281249996
2.5128662109374997
2.979345703125
3.0301025390625
3.0284912109374997
3.0284912109374997
3.027685546875
3.0236572265625
3.0252685546875
2.4032958984375
1.7458740234374999
1.1375976562499999
0.5663818359375
0.34562988281249996
0.12890625
0.023364257812499997
0.02900390625
0.02900390625
0.026586914062499998
0.02900390625
0.026586914062499998
0.033837890625
0.027392578124999997
0.026586914062499998
0.02578125
0.02578125
0.0281982421875
0.02578125
0.020947265625
0.022558593749999998
0.9837158203124999
1.7845458984375
2.0649169921875
2.2953369140624997
2.408935546875
2.4814453125
2.6441894531249996
2.6925292968749996
2.618408203125
2.6361328124999996
2.6039062499999996
2.5716796874999996
2.441162109375
2.3936279296875
2.3404541015625
3.0268798828124996
3.0268798828124996
3.0325195312499997
3.0325195312499997
3.0325195312499997
3.0268798828124996
2.6256591796874997
2.1019775390624997
1.2689208984375
0.871728515625
0.5857177734375
0.2102783203125
0.026586914062499998
0.02578125
0.027392578124999997
0.026586914062499998
0.0249755859375
0.058813476562499994
0.130517578125
0.09345703124999999
0.07412109374999999
0.02578125
0.027392578124999997
0.0298095703125
0.02578125
0.026586914062499998
0.026586914062499998
0.059619140625
1.3172607421875
1.9223144531249998
2.1825439453124997
2.325146484375
2.5370361328124997
2.6868896484375
2.7505371093749997
2.8536621093749996
2.8456054687499996
2.7062255859374997
2.666748046875
2.6458007812499997
2.5660400390625
2.528173828125
3.027685546875
3.029296875
3.02607421875
3.0284912109374997
3.0284912109374997
3.027685546875
2.9527587890625
2.101171875
1.464697265625
1.090869140625
0.6324462890625
0.30615234375
0.027392578124999997
0.026586914062499998
0.022558593749999998
0.020947265625
0.0314208984375
0.030615234374999998
0.0515625
0.1087646484375
0.10634765624999999
0.027392578124999997
0.0281982421875
0.026586914062499998
0.027392578124999997
0.027392578124999997
0.027392578124999997
0.0201416015625
1.1416259765624999
1.7466796875
2.0987548828125
2.3307861328125
2.408935546875
2.6119628906249996
2.6941406249999997
2.8238525390625
2.8778320312499996
2.8319091796875
2.7900146484375
2.7521484375
2.6852783203125
2.6361328124999996
3.0268798828124996
3.0268798828124996
3.0220458984375
3.0268798828124996
3.0284912109374997
3.0309082031249996
3.027685546875
2.43955078125
1.6854492187499999
0.9676025390624999
0.5736328125
0.3029296875
0.02578125
0.02578125
0.026586914062499998
0.019335937499999997
0.0217529296875
0.0298095703125
0.020947265625
0.03544921875
0.049951171875
0.02578125
0.024169921875
0.02900390625
0.0249755859375
0.030615234374999998
0.020947265625
0.023364257812499997
1.103759765625
1.7692382812499998
2.2518310546875
2.399267578125
2.566845703125
2.6304931640625
2.6949462890625
2.7255615234375
2.7722900390625
2.6788330078125
2.76826171875
2.7046142578124996
2.5370361328124997
2.4339111328125
2.4766113281249997
3.0236572265625
3.0325195312499997
3.027685546875
3.027685546875
3.027685546875
3.027685546875
2.776318359375
1.8344970703124999
1.1577392578124999
0.7943847656249999
0.36577148437499996
0.153076171875
0.026586914062499998
0.02578125
0.02578125
0.0298095703125
0.023364257812499997
0.0322265625
0.04833984375
0.0749267578125
0.0765380859375
0.026586914062499998
0.026586914062499998
0.020947265625
0.026586914062499998
0.024169921875
0.0281982421875
0.30856933593749997
1.5573486328125
1.998046875
2.30419921875
2.4371337890625
2.486279296875
2.6401611328124996
2.5595947265624996
2.69091796875
2.7005859374999996
2.6739990234374997
2.599072265625
2.560400390625
2.513671875
2.3654296875
3.02607421875
3.0244628906249997
3.0268798828124996
3.0268798828124996
3.0236572265625
3.027685546875
2.769873046875
2.0036865234375
1.329345703125
0.7194580078124999
0.36416015625
0.1248779296875
0.022558593749999998
0.02578125
0.0314208984375
0.026586914062499998
0.026586914062499998
0.0298095703125
0.075732421875
0.02578125
0.0443115234375
0.024169921875
0.0298095703125
0.019335937499999997
0.026586914062499998
0.02900390625
0.030615234374999998
0.020947265625
1.42119140625
1.8788085937499999
2.204296875
2.3533447265625
2.4814453125
2.6216308593749997
2.6949462890625
2.73603515625
2.763427734375
2.6321044921874996
2.5555664062499996
2.5088378906249997
2.4451904296875
2.392822265625
3.027685546875
3.0268798828124996
3.0309082031249996
3.0284912109374997
3.027685546875
3.0252685546875
3.0268798828124996
2.2727783203125
1.368017578125
0.8685058593749999
0.48178710937499997
0.2666748046875
0.026586914062499998
0.02578125
0.0249755859375
0.0217529296875
0.030615234374999998
0.02578125
0.027392578124999997
0.0636474609375
0.0249755859375
0.02578125
0.0249755859375
0.02578125
0.0249755859375
0.026586914062499998
0.0201416015625
0.0298095703125
0.9949951171875
1.8473876953125
2.14306640625
2.3960449218749997
2.4202148437499997
2.5612060546874997
2.5716796874999996
2.5805419921875
2.8593017578124997
2.657080078125
2.550732421875
2.46533203125
2.3533447265625
2.309033203125
3.0268798828124996
3.0268798828124996
3.029296875
3.0268798828124996
3.0325195312499997
3.0284912109374997
3.0333251953125
2.354150390625
1.71123046875
1.198828125
0.6823974609375
0.322265625
0.091845703125
0.022558593749999998
0.024169921875
0.022558593749999998
0.02578125
0.0281982421875
0.0314208984375
0.056396484375
0.0668701171875
0.0201416015625
0.033032226562499996
0.0249755859375
0.024169921875
0.02578125
0.0249755859375
0.0249755859375
0.8161376953124999
1.4928955078125
1.89169921875
2.3162841796875
2.5048095703124997
2.5547607421875
2.7408691406249996
2.6981689453124997
2.7191162109375
2.6804443359374996
2.616796875
2.5265625
2.47177734375
2.4226318359375
2.4322998046874997
3.0244628906249997
3.0268798828124996
3.027685546875
3.0268798828124996
3.0236572265625
3.02607421875
2.7569824218749996
2.060888671875
1.4155517578124999
1.0449462890624999
0.6332519531249999
0.278759765625
0.0217529296875
0.0249755859375
0.023364257812499997
0.022558593749999998
0.046728515624999994
0.030615234374999998
0.16274414062499998
0.0717041015625
0.0684814453125
0.026586914062499998
0.020947265625
0.023364257812499997
0.0322265625
0.02578125
0.02578125
0.027392578124999997
1.252001953125
1.8659179687499998
1.9569580078125
1.9682373046875
2.2913085937499997
2.3654296875
2.44921875
2.642578125
2.6949462890625
2.5934326171874997
2.4846679687499997
2.4403564453124997
2.44599609375
2.3783203125
3.0301025390625
3.0317138671875
3.0284912109374997
3.0236572265625
3.0309082031249996
3.029296875
2.848828125
2.0600830078125
1.4187744140624998
0.958740234375
0.57041015625
0.35368652343749996
0.09748535156249999
0.1474365234375
0.0217529296875
0.027392578124999997
0.02578125
0.0201416015625
0.078955078125
0.11037597656249999
0.127294921875
0.026586914062499998
0.0249755859375
0.026586914062499998
0.0249755859375
0.026586914062499998
0.027392578124999997
0.02578125
1.405078125
1.8635009765625
2.1583740234374997
2.3549560546875
2.425048828125
2.4999755859375
2.5515380859374996
2.62646484375
2.6159912109374996
2.59423828125
2.5080322265625
2.49755859375
2.41376953125
2.286474609375
3.027685546875
3.027685546875
3.029296875
3.0309082031249996
3.0268798828124996
3.0325195312499997
3.0244628906249997
2.6055175781249997
1.8312744140625
1.1239013671875
0.8129150390625
0.607470703125
0.2038330078125
0.02578125
0.02578125
0.02578125
0.0298095703125
0.022558593749999998
0.026586914062499998
0.024169921875
0.02900390625
0.02578125
0.0217529296875
0.0249755859375
0.027392578124999997
0.027392578124999997
0.0249755859375
0.02900390625
0.8749511718749999
1.490478515625
1.9110351562499999
2.2324951171875
2.3952392578125
2.5402587890625
2.5894042968749997
2.6788330078125
2.6917236328125
2.673193359375
2.570068359375
2.5563720703125
2.5088378906249997
2.4927246093749997
2.4234375
3.0236572265625
3.029296875
3.0284912109374997
3.02607421875
3.0325195312499997
3.0325195312499997
2.6458007812499997
1.7901855468749999
1.2536132812499998
0.9224853515625
0.4632568359375
0.207861328125
0.020947265625
0.0249755859375
0.024169921875
0.054785156249999994
0.07814941406249999
0.120849609375
0.120849609375
0.0966796875
0.11923828125
0.02900390625
0.0298095703125
0.0249755859375
0.02900390625
0.02578125
0.02578125
0.7154296874999999
1.651611328125
2.1277587890625
2.31064453125
2.521728515625
2.6458007812499997
2.6748046875
2.7134765625
2.8053222656249996
2.785986328125
2.489501953125
2.5902099609375
2.4814453125
2.4749999999999996
2.3920166015624997
3.029296875
3.0284912109374997
3.0309082031249996
3.027685546875
3.027685546875
3.029296875
2.673193359375
1.9182861328124998
1.2673095703125
0.7234863281249999
0.3472412109375
0.08217773437499999
0.026586914062499998
0.023364257812499997
0.0249755859375
0.02900390625
0.0249755859375
0.0733154296875
0.1377685546875
0.11359863281249999
0.17644042968749998
0.026586914062499998
0.02578125
0.024169921875
0.020947265625
0.0217529296875
0.02578125
0.704150390625
1.45341796875
1.920703125
2.2494140625
2.4000732421874997
2.4870849609374996
2.63291015625
2.6014892578124997
2.6860839843749997
2.6039062499999996
2.624853515625
2.6192138671875
2.6441894531249996
2.473388671875
2.421826171875
3.0244628906249997
3.0301025390625
3.0284912109374997
3.0268798828124996
3.0244628906249997
3.0244628906249997
2.640966796875
2.2244384765625
1.3591552734374999
0.865283203125
0.5502685546875
0.2537841796875
0.0281982421875
0.024169921875
0.120849609375
0.02578125
0.0362548828125
0.02578125
0.0845947265625
0.1168212890625
0.439892578125
0.0281982421875
0.024169921875
0.027392578124999997
0.0281982421875
0.0249755859375
0.024169921875
0.0217529296875
1.095703125
1.832080078125
2.1462890624999997
2.309033203125
2.3887939453125
2.550732421875
2.6014892578124997
2.7489257812499996
2.7344238281249997
2.7126708984374996
2.6337158203124997
2.5877929687499996
2.4991699218749996
2.4613037109375
3.029296875
3.0284912109374997
3.027685546875
3.029296875
3.0333251953125
3.0309082031249996
3.027685546875
2.3227294921875
1.6604736328124998
1.1158447265625
0.46647949218749996
0.1345458984375
0.020947265625
0.026586914062499998
0.026586914062499998
0.023364257812499997
0.023364257812499997
0.0314208984375
0.02578125
0.022558593749999998
0.027392578124999997
0.0322265625
0.0249755859375
0.030615234374999998
0.0249755859375
0.026586914062499998
0.0201416015625
0.0249755859375
0.91845703125
1.4477783203124999
1.8232177734375
2.19140625
2.29453125
2.5096435546875
2.431494140625
2.4258544921875
2.4766113281249997
2.4371337890625
2.4387451171875
2.5475097656249996
2.52978515625
2.4145751953125
2.328369140625
3.0220458984375
3.0268798828124996
3.029296875
3.0317138671875
3.0236572265625
3.0284912109374997
2.5877929687499996
1.864306640625
1.0932861328124999
0.6856201171874999
0.4165283203125
0.20061035156249998
0.02578125
0.030615234374999998
0.02578125
0.027392578124999997
0.02900390625
0.0636474609375
0.13212890624999998
0.1329345703125
0.0580078125
0.027392578124999997
0.0249755859375
0.02578125
0.022558593749999998
0.02578125
0.02578125
0.7726318359375
1.44052734375
2.0359130859375
2.2598876953125
2.3855712890625
2.5853759765624997
2.6377441406249997
2.7513427734375
2.7932373046874996
2.8053222656249996
2.776318359375
2.616796875
2.5249511718749997
2.34287109375
2.289697265625
3.02607421875
3.029296875
3.0268798828124996
3.021240234375
3.0333251953125
3.0301025390625
2.6764160156249996
1.9424560546874998
1.2463623046874999
0.8483642578124999
0.39638671875
0.0878173828125
0.0298095703125
0.024169921875
0.02900390625
0.0298095703125
0.024169921875
0.02578125
0.0362548828125
0.0281982421875
0.124072265625
0.024169921875
0.026586914062499998
0.0249755859375
0.0249755859375
0.0281982421875
0.026586914062499998
0.024169921875
1.3220947265624998
1.7410400390624998
2.08505859375
2.2187988281249997
2.3646240234375
2.5410644531249997
2.5571777343749997
2.6240478515624996
2.6941406249999997
2.7078369140625
2.4685546874999997
2.470166015625
2.3452880859375
2.1567626953125
3.027685546875
3.02607421875
3.0268798828124996
3.0244628906249997
3.0317138671875
3.0317138671875
2.7263671874999997
2.20107421875
1.5557373046874998
0.9756591796874999
0.655810546875
0.34885253906249997
0.1571044921875
0.0362548828125
0.0201416015625
0.02578125
0.026586914062499998
0.0652587890625
0.0668701171875
0.042700195312499994
0.0668701171875
0.026586914062499998
0.02578125
0.0249755859375
0.0281982421875
0.027392578124999997
0.0249755859375
0.02900390625
1.216552734375
1.7458740234374999
2.15595703125
2.1946289062499997
2.2776123046875
2.392822265625
2.4145751953125
2.47177734375
2.5273681640624996
2.4532470703125
2.39765625
2.5144775390625
2.2760009765625
2.1519287109375
2.55234375
3.0228515624999996
3.0268798828124996
3.0268798828124996
3.0268798828124996
3.0325195312499997
3.0309082031249996
2.5716796874999996
1.703173828125
1.235888671875
0.78955078125
0.4004150390625
0.0765380859375
0.0249755859375
0.02578125
0.026586914062499998
0.02578125
0.02578125
0.0249755859375
0.0217529296875
0.0298095703125
0.02900390625
0.024169921875
0.02578125
0.026586914062499998
0.02578125
0.030615234374999998
0.0281982421875
0.8258056640625
1.6161621093749998
1.9013671875
2.1470947265625
2.157568359375
2.2389404296874997
2.3726806640625
2.3855712890625
2.4129638671875
2.4274658203125
2.3807373046875
2.32998046875
2.334814453125
2.2880859375
2.3879882812499997
3.0252685546875
3.027685546875
3.029296875
3.029296875
3.0284912109374997
3.01318359375
2.6103515625
2.0012695312499997
1.4139404296875
0.8749511718749999
0.5792724609375
0.35288085937499997
0.1611328125
0.09829101562499999
0.024169921875
0.02900390625
0.033032226562499996
0.027392578124999997
0.04833984375
0.0620361328125
0.023364257812499997
0.026586914062499998
0.0298095703125
0.02578125
0.0249755859375
0.0281982421875
0.0201416015625
0.7283203125
1.3857421875
1.8409423828125
2.23974609375
2.2437744140625
2.36220703125
2.29453125
2.4234375
2.5289794921874997
2.7424804687499997
2.68125
2.5797363281249996
2.5410644531249997
2.46533203125
2.399267578125
3.029296875
3.0268798828124996
3.0268798828124996
3.0284912109374997
3.0284912109374997
3.0268798828124996
2.6643310546874996
2.03671875
1.313232421875
0.839501953125
0.5929687499999999
0.262646484375
0.12246093749999999
0.0201416015625
0.030615234374999998
0.0249755859375
0.024169921875
0.0249755859375
0.0217529296875
0.0298095703125
0.04189453125
0.02578125
0.026586914062499998
0.02578125
0.024169921875
0.02900390625
0.020947265625
0.0217529296875
1.271337890625
1.8417480468749998
2.0947265625
2.2663330078125
2.4387451171875
2.487890625
2.4427734375
2.42666015625
2.5064208984375
2.5273681640624996
2.5434814453124996
2.4806396484374997
2.38154296875
2.3855712890625
3.0284912109374997
3.0244628906249997
3.029296875
3.0284912109374997
3.027685546875
3.027685546875
3.029296875
2.112451171875
1.4074951171874999
0.9337646484375
0.4326416015625
0.1973876953125
0.0298095703125
0.0201416015625
0.030615234374999998
0.02578125
0.022558593749999998
0.0717041015625
0.193359375
0.22316894531249998
0.18369140625
0.02578125
0.027392578124999997
0.024169921875
0.023364257812499997
0.023364257812499997
0.022558593749999998
0.0298095703125
1.142431640625
1.6612792968749999
1.9698486328125
2.2196044921875
2.3759033203124997
2.3759033203124997
2.434716796875
2.47177734375
2.591015625
2.5048095703124997
2.50400390625
2.4580810546875
2.4161865234374997
2.32998046875
2.78759765625
3.029296875
3.0309082031249996
3.029296875
3.02607421875
3.0268798828124996
3.029296875
2.55234375
1.8506103515624999
1.16015625
0.752490234375
0.3601318359375
0.130517578125
0.02900390625
0.02578125
0.0249755859375
0.0249755859375
0.02578125
0.04189453125
0.03544921875
0.12568359375
0.026586914062499998
0.030615234374999998
0.02578125
0.02578125
0.030615234374999998
0.023364257812499997
0.026586914062499998
0.6638671875
1.493701171875
1.9634033203124999
2.0713623046875
2.1906005859374997
2.4258544921875
2.5579833984375
2.7465087890624997
2.8109619140624997
2.8383544921875
2.7328124999999996
2.582958984375
2.4613037109375
2.544287109375
2.2437744140625
3.0252685546875
3.029296875
3.0284912109374997
3.0317138671875
3.0325195312499997
3.027685546875
2.682861328125
1.76279296875
1.24716796875
0.8757568359375
0.40122070312499997
0.2183349609375
0.0281982421875
0.0249755859375
0.02578125
0.0281982421875
0.0298095703125
0.040283203125
0.0604248046875
0.0539794921875
0.046728515624999994
0.0298095703125
0.024169921875
0.024169921875
0.0314208984375
0.0281982421875
0.027392578124999997
0.022558593749999998
1.5041748046874999
1.9424560546874998
2.1696533203125
2.305810546875
2.4282714843749997
2.5491210937499997
2.6385498046875
2.727978515625
2.66513671875
2.6288818359375
2.62646484375
2.513671875
2.457275390625
2.2727783203125
3.0284912109374997
3.037353515625
3.0325195312499997
3.029296875
3.029296875
3.02607421875
2.5563720703125
2.1374267578125
1.4316650390624999
0.8314453125
0.491455078125
0.30454101562499997
0.09748535156249999
0.0217529296875
0.019335937499999997
0.02578125
0.026586914062499998
0.02900390625
0.0668701171875
0.033837890625
0.104736328125
0.0249755859375
0.0249755859375
0.0249755859375
0.026586914062499998
0.023364257812499997
0.020947265625
0.02578125
1.3341796874999998
1.786962890625
2.14306640625
2.2437744140625
2.4169921875
2.521728515625
2.6079345703124996
2.6683593749999996
2.6820556640624997
2.4725830078124997
2.4113525390625
2.462109375
2.3372314453125
2.2695556640625
3.029296875
3.0309082031249996
3.0268798828124996
3.0252685546875
3.029296875
3.0284912109374997
3.027685546875
2.3195068359374997
1.3857421875
0.8564208984374999
0.510791015625
0.17644042968749998
0.024169921875
0.026586914062499998
0.024169921875
0.023364257812499997
0.02900390625
0.02900390625
0.027392578124999997
0.0910400390625
0.14421386718749998
0.02900390625
0.024169921875
0.0281982421875
0.02578125
0.02900390625
0.0201416015625
0.027392578124999997
0.8531982421875
1.7426513671875
2.0214111328124997
2.215576171875
2.289697265625
2.3662353515625
2.4991699218749996
2.60712890625
2.6764160156249996
2.7247558593749996
2.7046142578124996
2.7005859374999996
2.5813476562499997
2.5652343749999997
3.0236572265625
3.0268798828124996
3.029296875
3.02607421875
3.0284912109374997
3.0268798828124996
3.0244628906249997
2.40087890625
1.78857421875
1.21494140625
0.7234863281249999
0.427001953125
0.149853515625
0.0281982421875
0.030615234374999998
0.02578125
0.02578125
0.0249755859375
0.04833984375
0.0217529296875
0.09345703124999999
0.0249755859375
0.022558593749999998
0.020947265625
0.024169921875
0.02578125
0.0281982421875
0.024169921875
0.894287109375
1.593603515625
2.0326904296875
2.27197265625
2.3227294921875
2.415380859375
2.4339111328125
2.4355224609375
2.434716796875
2.44599609375
2.3307861328125
2.334814453125
2.2292724609375
2.29775390625
2.2631103515624997
3.0268798828124996
3.029296875
3.027685546875
3.0284912109374997
3.02607421875
3.0325195312499997
2.5402587890625
1.9779052734375
1.1690185546875
0.7581298828124999
0.404443359375
0.1458251953125
0.0314208984375
0.027392578124999997
0.0249755859375
0.02578125
0.02900390625
0.149853515625
0.1168212890625
0.1732177734375
0.1248779296875
0.0249755859375
0.02578125
0.0249755859375
0.02900390625
0.02578125
0.02578125
0.41008300781249996
1.3599609375
1.9408447265625
2.151123046875
2.4298828125
2.5080322265625
2.6377441406249997
2.6433837890625
2.6611083984375
2.631298828125
2.5595947265624996
2.5483154296875
2.4758056640625
2.4903076171875
2.32998046875
3.0268798828124996
3.029296875
3.0301025390625
3.02607421875
3.02607421875
3.0268798828124996
2.8576904296874996
2.07861328125
1.3994384765624999
0.9216796875
0.6066650390625
0.278759765625
0.07814941406249999
0.02578125
0.02578125
0.0298095703125
0.0249755859375
0.026586914062499998
0.030615234374999998
0.026586914062499998
0.0515625
0.02578125
0.02900390625
0.027392578124999997
0.027392578124999997
0.020947265625
0.0249755859375
0.0217529296875
1.184326171875
1.6975341796874999
2.0697509765624997
2.3162841796875
2.4548583984375
2.5354248046874996
2.5579833984375
2.6063232421875
2.6441894531249996
2.570068359375
2.4999755859375
2.4911132812499996
2.4580810546875
2.34931640625
3.029296875
3.0228515624999996
3.0268798828124996
3.027685546875
3.029296875
3.0268798828124996
2.8794433593749997
2.2550537109374997
1.638720703125
1.1416259765624999
0.5309326171875
0.24089355468749998
0.023364257812499997
0.02578125
0.02578125
0.02578125
0.0717041015625
0.19899902343749998
0.19658203124999998
0.185302734375
0.246533203125
0.0249755859375
0.02578125
0.024169921875
0.024169921875
0.02900390625
0.02578125
0.02578125
1.26005859375
1.8715576171875
2.376708984375
2.5958496093749996
2.6965576171874996
2.753759765625
2.785986328125
2.7892089843749996
2.818212890625
2.7811523437499996
2.7811523437499996
2.7408691406249996
2.6627197265625
2.5628173828125
2.437939453125
3.027685546875
3.0228515624999996
3.0317138671875
3.02607421875
3.0236572265625
3.0301025390625
2.5773193359374997
1.980322265625
1.18916015625
0.7734375
0.526904296875
0.230419921875
0.1071533203125
0.09748535156249999
0.0249755859375
0.0217529296875
0.0217529296875
0.0878173828125
0.22075195312499998
0.307763671875
0.678369140625
0.027392578124999997
0.910400390625
2.4822509765625
3.0301025390625
3.0325195312499997
3.027685546875
3.027685546875
3.02607421875
3.0268798828124996
3.027685546875
3.0325195312499997
3.027685546875
3.027685546875
3.0268798828124996
3.029296875
3.027685546875
3.02607421875
3.0268798828124996
3.0301025390625
3.0284912109374997
3.02607421875
3.027685546875
3.02607421875
3.029296875
3.0220458984375
3.0228515624999996
3.0333251953125
3.029296875
3.0252685546875
3.0284912109374997
3.0252685546875
3.0317138671875
3.0301025390625
3.0284912109374997
3.0309082031249996
3.027685546875
3.029296875
3.02607421875
3.0268798828124996
3.0284912109374997
3.0309082031249996
3.0236572265625
3.0244628906249997
3.029296875
3.0228515624999996
3.0284912109374997
3.02607421875
3.027685546875
3.029296875
3.0268798828124996
3.027685546875
3.0268798828124996
3.029296875
3.029296875
3.0268798828124996
3.0268798828124996
3.0284912109374997
3.0284912109374997
3.0083496093749997
2.7400634765625
2.3904052734375
1.8788085937499999
1.4671142578124998
1.8602783203125
1.71123046875
1.2125244140625
0.9257080078125
0.4310302734375
0.09990234375
0.026586914062499998
0.019335937499999997
0.026586914062499998
0.023364257812499997
0.0249755859375
0.0249755859375
0.026586914062499998
0.0684814453125
0.0990966796875
0.1039306640625
0.1264892578125
0.17724609375
0.24089355468749998
0.21269531249999998
0.21672363281249998
0.020947265625
0.024169921875
0.1740234375
0.2650634765625
0.42136230468749997
0.6872314453124999
0.889453125
1.7233154296875
1.6363037109374998
1.34384765625
1.0530029296874999
0.8757568359375
0.8419189453125
0.7097900390624999
0.733154296875
0.7033447265624999
0.7234863281249999
0.78955078125
0.837890625
0.855615234375
0.825
1.4445556640625
1.8755859375
1.60166015625
1.4058837890625
1.3124267578125
0.9410156249999999
0.7468505859375
0.322265625
0.2199462890625
0.346435546875
0.565576171875
0.797607421875
0.9474609374999999
1.0417236328125
1.1641845703125
1.1754638671875
1.2221923828124999
1.276171875
1.248779296875
1.3092041015625
1.3148437499999999
0.7218749999999999
0.3875244140625
0.72509765625
0.9877441406249999
1.1367919921875
1.4308593749999998
1.7893798828124998
2.4725830078124997
2.421826171875
1.9432617187499999
1.6572509765624999
1.4203857421875
1.353515625
1.32451171875
1.3301513671874998
1.3527099609375
1.397021484375
1.3986328124999998
1.3752685546874999
1.3712402343749999
1.432470703125
1.3672119140624999
2.32998046875
1.9263427734374998
1.6604736328124998
1.6290527343749999
1.361572265625
1.1980224609374999
0.903955078125
0.7452392578125
0.8677001953125
1.019970703125
1.3470703124999999
1.5017578125
1.533984375
1.5323730468749999
1.4961181640624999
1.5235107421874998
1.506591796875
1.5444580078124999
1.5202880859374999
1.4832275390624998
1.409912109375
0.6832031249999999
1.100537109375
1.2866455078124999
1.43408203125
1.6153564453125
1.7466796875
2.3630126953125
2.289697265625
1.9432617187499999
1.7015624999999999
1.5670166015625
1.4751708984374998
1.513037109375
1.4759765624999999
1.47275390625
1.482421875
1.44052734375
1.4228027343749998
1.4155517578124999
1.4437499999999999
1.55009765625
2.2743896484375
1.9005615234375
1.6798095703125
1.5782958984375
1.513037109375
1.2665039062499999
0.9990234375
0.9514892578124999
1.013525390625
1.2665039062499999
1.319677734375
1.4010498046875
1.4558349609374999
1.525927734375
1.5218994140625
1.496923828125
1.4912841796874998
1.5315673828124998
1.461474609375
1.448583984375
1.5476806640624998
0.7355712890624999
1.1448486328125
1.4026611328124998
1.456640625
1.5686279296874999
1.638720703125
2.147900390625
2.296142578125
1.993212890625
1.7217041015624999
1.6427490234375
1.56298828125
1.5484863281249999
1.4864501953125
1.5380126953125
1.4896728515625
1.5122314453124999
1.4832275390624998
1.474365234375
1.529150390625
1.5847412109374999
2.2260498046875
1.9875732421874999
1.690283203125
1.5597656249999998
1.4526123046875
1.361572265625
1.2439453125
1.00546875
1.0594482421875
1.213330078125
1.313232421875
1.3817138671875
1.4042724609375
1.464697265625
1.5275390624999998
1.5476806640624998
1.62744140625
1.5355957031249998
1.5799072265624998
1.5734619140625
1.5444580078124999
0.79921875
1.0530029296874999
1.34384765625
1.4066894531249998
1.5355957031249998
1.73056640625
2.086669921875
2.2985595703125
2.0496093749999997
1.703173828125
1.55009765625
1.5476806640624998
1.56298828125
1.5218994140625
1.4598632812499999
1.5122314453124999
1.48564453125
1.5275390624999998
1.5146484375
1.5637939453124998
1.5114257812499998
1.8659179687499998
1.9263427734374998
1.7120361328125
1.651611328125
1.5799072265624998
1.4091064453125
1.1625732421875
1.007080078125
1.0513916015625
1.1448486328125
1.3317626953125
1.4034667968749999
1.4107177734374998
1.5025634765625
1.5404296874999999
1.5718505859374998
1.5251220703125
1.5412353515625
1.5218994140625
1.561376953125
1.545263671875
0.8241943359374999
1.03125
1.348681640625
1.3784912109374998
1.5001464843749999
1.64677734375
1.7611816406249998
2.3074218749999997
2.0906982421875
1.819189453125
1.6451660156249999
1.5831298828125
1.542041015625
1.5146484375
1.5517089843749998
1.5597656249999998
1.4888671875
1.48564453125
1.5267333984375
1.496923828125
1.5202880859374999
1.803076171875
2.0898925781249997
1.7853515624999998
1.611328125
1.6040771484374998
1.4469726562499998
1.2173583984375
1.069921875
1.01513671875
1.1923828125
1.3607666015625
1.4606689453125
1.44052734375
1.4276367187499999
1.5090087890625
1.5347900390625
1.5509033203125
1.5895751953125
1.5299560546875
1.5025634765625
1.5678222656249998
1.2479736328125
0.8507812499999999
1.319677734375
1.43408203125
1.4606689453125
1.7039794921875
1.7764892578125
2.3235351562499997
2.1100341796874997
1.8489990234375
1.6290527343749999
1.5968261718749999
1.577490234375
1.5364013671874999
1.5927978515624999
1.5323730468749999
1.5492919921875
1.4977294921875
1.4993408203124998
1.4711425781249998
1.4872558593749998
1.5355957031249998
2.1591796875
1.815966796875
1.6306640625
1.5750732421875
1.4719482421874999
1.35673828125
1.036083984375
1.039306640625
1.1295410156249999
1.2995361328125
1.3446533203125
1.4832275390624998
1.4912841796874998
1.4888671875
1.545263671875
1.546875
1.5670166015625
1.5807128906249999
1.5460693359375
1.5533203125
1.2769775390625
0.8523925781249999
1.2076904296875
1.4171630859375
1.442138671875
1.6604736328124998
1.7176757812499999
2.23330078125
2.1583740234374997
1.9110351562499999
1.6725585937499998
1.5944091796875
1.545263671875
1.5565429687499999
1.554931640625
1.5678222656249998
1.5082031249999999
1.5090087890625
1.490478515625
1.4437499999999999
1.5194824218749998
1.561376953125
2.2018798828125
1.85625
1.6822265625
1.5782958984375
1.4461669921875
1.3599609375
1.0973144531249999
1.0594482421875
1.1222900390625
1.2979248046874998
1.3720458984375
1.4477783203124999
1.5573486328125
1.5597656249999998
1.4961181640624999
1.4993408203124998
1.542041015625
1.5944091796875
1.6024658203125
1.577490234375
1.5654052734375
0.8201660156249999
1.171435546875
1.4308593749999998
1.4655029296875
1.574267578125
1.67578125
1.9658203125
2.1728759765625
1.9078125
1.7748779296875
1.5718505859374998
1.525927734375
1.5839355468749998
1.5863525390625
1.5218994140625
1.5380126953125
1.513037109375
1.5476806640624998
1.5283447265624999
1.4638916015624999
1.4840332031249999
2.1333984375
1.925537109375
1.6685302734374998
1.6177734375
1.571044921875
1.4139404296875
1.132763671875
1.100537109375
1.1150390625
1.2423339843749999
1.3672119140624999
1.4389160156249998
1.3792968749999999
1.52109375
1.4832275390624998
1.5082031249999999
1.5831298828125
1.5758789062499998
1.5509033203125
1.5347900390625
1.5114257812499998
0.8185546874999999
1.173046875
1.416357421875
1.4791992187499998
1.5476806640624998
1.7507080078125
2.1084228515625
2.29453125
1.9400390625
1.716064453125
1.58232421875
1.4397216796874999
1.409912109375
1.4977294921875
1.4953124999999998
1.513037109375
1.5597656249999998
1.5662109375
1.47275390625
1.429248046875
1.5154541015624998
2.152734375
1.9988525390624998
1.6967285156249998
1.5605712890624999
1.5202880859374999
1.4147460937499998
1.3317626953125
1.090869140625
1.084423828125
1.2302490234374999
1.3752685546874999
1.456640625
1.4816162109375
1.5194824218749998
1.538818359375
1.529150390625
1.5412353515625
1.5114257812499998
1.5525146484374999
1.5525146484374999
1.5670166015625
0.9232910156249999
1.036083984375
1.27294921875
1.4848388671875
1.5331787109375
1.6967285156249998
1.883642578125
2.29775390625
2.0326904296875
1.7531249999999998
1.6024658203125
1.571044921875
1.53720703125
1.5573486328125
1.59521484375
1.5090087890625
1.52109375
1.4800048828124999
1.4751708984374998
1.5170654296875
1.5194824218749998
1.7635986328125
2.152734375
1.7507080078125
1.6298583984375
1.5605712890624999
1.3599609375
1.271337890625
1.1480712890625
1.08603515625
1.213330078125
1.364794921875
1.351904296875
1.4074951171874999
1.5073974609374998
1.554931640625
1.5380126953125
1.5009521484375
1.5533203125
1.56298828125
1.5460693359375
1.61455078125
1.3140380859374998
0.9611572265624999
1.2205810546875
1.3494873046875
1.5146484375
1.7055908203124999
1.7829345703125
2.244580078125
2.0761962890625
1.8828369140624999
1.7047851562499998
1.5927978515624999
1.558154296875
1.55009765625
1.477587890625
1.5041748046874999
1.50498046875
1.5138427734375
1.480810546875
1.5637939453124998
1.5758789062499998
1.6435546875
2.11083984375
1.7893798828124998
1.6298583984375
1.59521484375
1.4872558593749998
1.3124267578125
1.1206787109375
1.0578369140625
1.1110107421875
1.33740234375
1.40185546875
1.4437499999999999
1.4880615234374999
1.5275390624999998
1.493701171875
1.574267578125
1.5412353515625
1.606494140625
1.6121337890624998
1.496923828125
1.3672119140624999
0.8918701171875
1.332568359375
1.380908203125
1.4397216796874999
1.6830322265625
1.7490966796874998
2.27197265625
2.1277587890625
1.8441650390625
1.6475830078125
1.5662109375
1.5637939453124998
1.5243164062499999
1.5114257812499998
1.4638916015624999
1.5597656249999998
1.4671142578124998
1.4381103515625
1.4622802734375
1.5573486328125
1.585546875
2.2083251953125
1.9343994140624998
1.6282470703124998
1.5275390624999998
1.4687255859375
1.33740234375
1.1255126953124999
1.1045654296875
1.1770751953125
1.2947021484374999
1.461474609375
1.4445556640625
1.4493896484375
1.480810546875
1.506591796875
1.51787109375
1.529150390625
1.5589599609375
1.5484863281249999
1.58232421875
1.513037109375
0.8362792968749999
1.2350830078125
1.35673828125
1.4364990234375
1.5984375
1.6636962890625
2.176904296875
2.1382324218749997
1.9730712890625
1.67578125
1.6048828124999999
1.5718505859374998
1.5533203125
1.5025634765625
1.5057861328125
1.4872558593749998
1.4759765624999999
1.5122314453124999
1.5686279296874999
1.52109375
1.4832275390624998
2.16884765625
1.8828369140624999
1.738623046875
1.6137451171875
1.509814453125
1.3704345703124998
1.1400146484375
1.0707275390625
1.12470703125
1.2850341796875
1.36962890625
1.4195800781249999
1.4558349609374999
1.474365234375
1.529150390625
1.546875
1.4840332031249999
1.5484863281249999
1.58232421875
1.538818359375
1.5073974609374998
0.742822265625
1.148876953125
1.429248046875
1.5033691406249998
1.5678222656249998
1.6693359374999999
1.861083984375
2.1793212890625
1.9400390625
1.7595703125
1.6153564453125
1.5146484375
1.50498046875
1.558154296875
1.509814453125
1.5573486328125
1.5444580078124999
1.5267333984375
1.52109375
1.4953124999999998
1.4655029296875
2.083447265625
1.980322265625
1.735400390625
1.625830078125
1.5525146484374999
1.393798828125
1.1110107421875
1.0634765625
1.058642578125
1.22138671875
1.353515625
1.448583984375
1.49853515625
1.571044921875
1.5484863281249999
1.5412353515625
1.5476806640624998
1.5275390624999998
1.546875
1.5436523437499998
1.5364013671874999
0.8612548828125
1.019970703125
1.4066894531249998
1.4767822265625
1.5162597656249999
1.6443603515624998
1.89169921875
2.3130615234375
1.960986328125
1.77890625
1.5911865234375
1.5734619140625
1.611328125
1.50498046875
1.53076171875
1.529150390625
1.5283447265624999
1.5517089843749998
1.4928955078125
1.5186767578125
1.6330810546874999
1.6371093749999999
1.96904296875
1.7442626953125
1.59521484375
1.525927734375
1.2616699218749998
1.2979248046874998
1.07958984375
1.171435546875
1.2544189453124999
1.3140380859374998
1.3792968749999999
1.3253173828125
1.496923828125
1.4896728515625
1.490478515625
1.5879638671874998
1.585546875
1.5863525390625
1.5718505859374998
1.5621826171875
0.9249023437499999
0.9603515625
1.2584472656249999
1.4074951171874999
1.5275390624999998
1.66611328125
1.8715576171875
2.257470703125
2.0939208984374997
1.8062988281249999
1.6701416015625
1.5670166015625
1.5541259765625
1.52109375
1.5009521484375
1.464697265625
1.5114257812499998
1.5057861328125
1.5565429687499999
1.5218994140625
1.5114257812499998
1.5597656249999998
2.1245361328125
1.754736328125
1.6201904296874998
1.56943359375
1.4236083984374999
1.3712402343749999
1.16015625
1.1013427734374999
1.2310546875
1.2584472656249999
1.3752685546874999
1.482421875
1.51787109375
1.5364013671874999
1.5041748046874999
1.5299560546875
1.5670166015625
1.522705078125
1.5267333984375
1.5573486328125
1.4445556640625
0.9410156249999999
1.2536132812499998
1.4638916015624999
1.522705078125
1.6612792968749999
1.7297607421874999
2.1922119140625
2.0431640625
1.8385253906249999
1.635498046875
1.6290527343749999
1.606494140625
1.56298828125
1.5670166015625
1.5275390624999998
1.4791992187499998
1.5162597656249999
1.5162597656249999
1.5114257812499998
1.5533203125
1.5235107421874998
2.15595703125
1.8707519531249999
1.6620849609375
1.5702392578125
1.4606689453125
1.3873535156249999
1.0771728515624999
1.0771728515624999
1.13115234375
1.2769775390625
1.3728515625
1.432470703125
1.4276367187499999
1.5057861328125
1.4767822265625
1.5243164062499999
1.5662109375
1.5355957031249998
1.554931640625
1.574267578125
1.5082031249999999
0.807275390625
1.3470703124999999
1.4219970703125
1.4058837890625
1.5597656249999998
1.6975341796874999
2.18173828125
2.1535400390625
1.8892822265625
1.6669189453125
1.6153564453125
1.5533203125
1.5364013671874999
1.5235107421874998
1.5509033203125
1.5235107421874998
1.5025634765625
1.5380126953125
1.4703369140625
1.49853515625
1.5404296874999999
2.199462890625
1.8659179687499998
1.6733642578124999
1.6483886718749998
1.4638916015624999
1.34384765625
1.147265625
1.10859375
1.1480712890625
1.2173583984375
1.3527099609375
1.36962890625
1.4888671875
1.53076171875
1.542041015625
1.5799072265624998
1.542041015625
1.5267333984375
1.6218017578125
1.6218017578125
1.6000488281249998
0.8225830078124999
1.15048828125
1.3559326171875
1.4437499999999999
1.5412353515625
1.6645019531249998
2.1591796875
2.165625
1.9529296875
1.7337890624999999
1.6330810546874999
1.545263671875
1.5243164062499999
1.5364013671874999
1.5484863281249999
1.529150390625
1.4687255859375
1.545263671875
1.5146484375
1.5057861328125
1.48564453125
2.1382324218749997
1.9875732421874999
1.6564453124999998
1.6024658203125
1.5509033203125
1.3954101562499999
1.1279296875
1.0675048828125
1.0981201171875
1.2399169921875
1.3712402343749999
1.4252197265625
1.4630859374999998
1.5347900390625
1.5114257812499998
1.5960205078124998
1.5927978515624999
1.5412353515625
1.5235107421874998
1.4679199218749999
1.4977294921875
1.0062744140625
1.18916015625
1.3664062499999998
1.416357421875
1.5791015625
1.6975341796874999
1.783740234375
2.2115478515625
1.9867675781249998
1.80791015625
1.6685302734374998
1.5565429687499999
1.53076171875
1.4840332031249999
1.5396240234374998
1.4961181640624999
1.52109375
1.464697265625
1.5106201171875
1.5299560546875
1.4896728515625
2.05927734375
1.973876953125
1.7781005859374999
1.6645019531249998
1.4953124999999998
1.3792968749999999
1.190771484375
1.1214843749999999
1.106982421875
1.2447509765625
1.3365966796875
1.456640625
1.46953125
1.513037109375
1.4896728515625
1.5138427734375
1.5525146484374999
1.5355957031249998
1.56298828125
1.58232421875
1.5315673828124998
0.9490722656249999
0.966796875
1.3494873046875
1.4091064453125
1.545263671875
1.7208984374999998
1.8828369140624999
2.2486083984375
1.9843505859375
1.803076171875
1.654833984375
1.5670166015625
1.5396240234374998
1.4945068359375
1.5154541015624998
1.5162597656249999
1.5041748046874999
1.5380126953125
1.5114257812499998
1.5154541015624998
1.529150390625
1.5428466796875
2.0568603515625
1.799853515625
1.6483886718749998
1.5355957031249998
1.3623779296874998
1.30517578125
1.10859375
1.1029541015625
1.2093017578125
1.3148437499999999
1.3905761718749998
1.42119140625
1.5573486328125
1.5364013671874999
1.5162597656249999
1.5364013671874999
1.5380126953125
1.5299560546875
1.545263671875
1.5484863281249999
0.9595458984374999
0.9877441406249999
1.3317626953125
1.4437499999999999
1.5001464843749999
1.587158203125
1.7531249999999998
2.312255859375
2.1068115234375
1.8377197265624998
1.5734619140625
1.5364013671874999
1.5283447265624999
1.5517089843749998
1.5001464843749999
1.4816162109375
1.5605712890624999
1.5041748046874999
1.5235107421874998
1.5364013671874999
1.5484863281249999
1.5831298828125
2.1680419921875
1.7466796875
1.611328125
1.603271484375
1.490478515625
1.3333740234375
1.1666015625
1.0610595703124999
1.16337890625
1.3148437499999999
1.3446533203125
1.4276367187499999
1.5033691406249998
1.545263671875
1.529150390625
1.5299560546875
1.5517089843749998
1.5331787109375
1.5750732421875
1.55009765625
1.482421875
0.952294921875
1.2882568359375
1.429248046875
1.4912841796874998
1.5492919921875
1.6556396484375
2.1591796875
2.126953125
1.8884765625
1.6943115234375
1.5960205078124998
1.5404296874999999
1.5557373046874998
1.554931640625
1.571044921875
1.509814453125
1.4598632812499999
1.4219970703125
1.545263671875
1.529150390625
1.5186767578125
2.14951171875
1.8868652343749999
1.7120361328125
1.6435546875
1.5146484375
1.416357421875
1.12470703125
1.132763671875
1.16337890625
1.2906738281249999
1.35673828125
1.4526123046875
1.4550292968749998
1.5484863281249999
1.5436523437499998
1.5484863281249999
1.4791992187499998
1.554931640625
1.5315673828124998
1.545263671875
1.4550292968749998
0.7782714843749999
1.203662109375
1.4155517578124999
1.448583984375
1.5831298828125
1.6943115234375
2.1873779296875
2.147900390625
1.8602783203125
1.7136474609374999
1.6153564453125
1.5589599609375
1.5194824218749998
1.509814453125
1.5404296874999999
1.49853515625
1.4840332031249999
1.5243164062499999
1.53720703125
1.5275390624999998
1.5057861328125
2.0794189453125
1.9311767578124999
1.67900390625
1.6371093749999999
1.5299560546875
1.40830078125
1.1690185546875
1.090869140625
1.1496826171874999
1.2511962890625
1.3502929687499998
1.45341796875
1.458251953125
1.4832275390624998
1.4848388671875
1.5267333984375
1.5315673828124998
1.55009765625
1.5073974609374998
1.50498046875
1.5645996093749999
0.7943847656249999
1.174658203125
1.3905761718749998
1.4671142578124998
1.5726562499999999
1.77890625
2.0197998046875
2.1785156249999997
1.948095703125
1.764404296875
1.6298583984375
1.496923828125
1.571044921875
1.5782958984375
1.5436523437499998
1.5122314453124999
1.5017578125
1.5106201171875
1.4638916015624999
1.5001464843749999
1.5718505859374998
2.0004638671875
2.0230224609375
1.7297607421874999
1.63388671875
1.5460693359375
1.3792968749999999
1.148876953125
1.1158447265625
1.106982421875
1.2463623046874999
1.3317626953125
1.4147460937499998
1.4252197265625
1.4953124999999998
1.5090087890625
1.5484863281249999
1.5436523437499998
1.60166015625
1.5355957031249998
1.5428466796875
1.4977294921875
1.02158203125
1.1698242187499999
1.3607666015625
1.4252197265625
1.5267333984375
1.6806152343749998
1.7619873046874999
2.2179931640625
1.972265625
1.832080078125
1.658056640625
1.5807128906249999
1.5734619140625
1.538818359375
1.529150390625
1.5251220703125
1.4711425781249998
1.5001464843749999
1.5194824218749998
1.5364013671874999
1.4711425781249998
1.9062011718749998
2.01416015625
1.8312744140625
1.619384765625
1.5791015625
1.3897705078125
1.3100097656249998
1.0916748046875
1.0143310546875
1.2044677734375
1.33740234375
1.384130859375
1.3583496093749998
1.5138427734375
1.554931640625
1.5347900390625
1.5734619140625
1.5605712890624999
1.5476806640624998
1.525927734375
1.5138427734375
1.0417236328125
1.00224609375
1.3253173828125
1.4058837890625
1.4945068359375
1.6862548828125
1.8385253906249999
2.29453125
2.0439697265625
1.722509765625
1.5791015625
1.5412353515625
1.5718505859374998
1.577490234375
1.5662109375
1.5863525390625
1.542041015625
1.50498046875
1.53720703125
1.4993408203124998
1.4840332031249999
1.4961181640624999
2.0407470703125
1.780517578125
1.6806152343749998
1.5807128906249999
1.4308593749999998
1.3180664062499998
1.045751953125
1.0707275390625
1.2399169921875
1.3204833984375
1.4510009765624998
1.426025390625
1.4759765624999999
1.5355957031249998
1.5154541015624998
1.4598632812499999
1.464697265625
1.5670166015625
1.558154296875
1.5017578125
1.197216796875
0.9498779296875
1.2882568359375
1.4316650390624999
1.5033691406249998
1.6427490234375
1.754736328125
2.1213134765625
2.11083984375
1.8796142578125
1.69833984375
1.61455078125
1.5589599609375
1.5436523437499998
1.5396240234374998
1.5758789062499998
1.577490234375
1.5243164062499999
1.5057861328125
1.474365234375
1.43408203125
1.5122314453124999
2.2147705078124997
1.883642578125
1.6290527343749999
1.603271484375
1.4638916015624999
1.353515625
1.1271240234375
1.1093994140624999
1.2101074218749999
1.3261230468749998
1.380908203125
1.413134765625
1.513037109375
1.5396240234374998
1.5082031249999999
1.5218994140625
1.5621826171875
1.561376953125
1.5275390624999998
1.5533203125
1.5331787109375
0.837890625
1.2665039062499999
1.4155517578124999
1.4493896484375
1.587158203125
1.7362060546875
1.9762939453125
2.1076171875
1.8949218749999999
1.74345703125
1.6491943359374999
1.5847412109374999
1.51787109375
1.53076171875
1.5073974609374998
1.53720703125
1.5243164062499999
1.4671142578124998
1.522705078125
1.4703369140625
1.5251220703125
2.131787109375
1.867529296875
1.66611328125
1.5782958984375
1.5033691406249998
1.4373046875
1.1537109374999999
1.069921875
1.106982421875
1.303564453125
1.4042724609375
1.4445556640625
1.4501953125
1.5017578125
1.5194824218749998
1.5726562499999999
1.4961181640624999
1.545263671875
1.5887695312499999
1.545263671875
1.5001464843749999
0.825
1.1150390625
1.413134765625
1.4389160156249998
1.5597656249999998
1.6685302734374998
2.14951171875
2.1760986328125
2.0117431640625
1.7039794921875
1.6040771484374998
1.56298828125
1.53076171875
1.522705078125
1.53076171875
1.5243164062499999
1.5267333984375
1.496923828125
1.4791992187499998
1.5162597656249999
1.5347900390625
1.972265625
1.9142578124999998
1.7362060546875
1.6395263671875
1.56943359375
1.3946044921874998
1.235888671875
1.1295410156249999
1.142431640625
1.3011474609375
1.3510986328124999
1.4228027343749998
1.413134765625
1.4574462890625
1.513037109375
1.506591796875
1.5444580078124999
1.5976318359375
1.5476806640624998
1.4912841796874998
1.5146484375
0.845947265625
1.12470703125
1.3365966796875
1.4598632812499999
1.585546875
1.7023681640625
1.7281494140625
2.2026855468749997
1.96904296875
1.8022705078124999
1.6564453124999998
1.6266357421875
1.5565429687499999
1.490478515625
1.4800048828124999
1.53076171875
1.4671142578124998
1.5122314453124999
1.4961181640624999
1.5364013671874999
1.4953124999999998
1.893310546875
2.015771484375
1.6967285156249998
1.6669189453125
1.571044921875
1.442138671875
1.2342773437499999
1.148876953125
1.1021484375
1.2399169921875
1.26005859375
1.37607421875
1.4139404296875
1.42119140625
1.5533203125
1.5476806640624998
1.5404296874999999
1.4550292968749998
1.5436523437499998
1.5895751953125
1.5839355468749998
1.045751953125
1.11826171875
1.3712402343749999
1.4469726562499998
1.480810546875
1.7047851562499998
1.7603759765625
2.2671386718749997
2.0093261718749997
1.8111328125
1.65966796875
1.5791015625
1.574267578125
1.52109375
1.53076171875
1.561376953125
1.474365234375
1.4461669921875
1.496923828125
1.5251220703125
1.4783935546875
1.8062988281249999
2.070556640625
1.7208984374999998
1.6459716796875
1.60166015625
1.4493896484375
1.3825195312499998
1.15048828125
1.0385009765625
1.1617675781249999
1.353515625
1.3921875
1.4590576171874998
1.4671142578124998
1.5283447265624999
1.4888671875
1.5919921874999998
1.4848388671875
1.5492919921875
1.590380859375
1.5380126953125
1.0900634765625
0.8870361328124999
1.287451171875
1.44052734375
1.448583984375
1.6250244140624999
1.843359375
2.24619140625
2.022216796875
1.786962890625
1.6314697265625
1.577490234375
1.5807128906249999
1.5645996093749999
1.5750732421875
1.5597656249999998
1.48564453125
1.4816162109375
1.4848388671875
1.5887695312499999
1.5533203125
1.5533203125
2.209130859375
1.7531249999999998
1.6540283203125
1.6290527343749999
1.4139404296875
1.329345703125
1.0812011718749999
1.1150390625
1.198828125
1.2890625
1.35673828125
1.4147460937499998
1.46630859375
1.5251220703125
1.5678222656249998
1.5517089843749998
1.5106201171875
1.5073974609374998
1.558154296875
1.5589599609375
1.5380126953125
0.9063720703125
1.2640869140625
1.393798828125
1.4655029296875
1.6435546875
1.7345947265625
1.9907958984374998
2.075390625
1.9303710937499998
1.7104248046875
1.5944091796875
1.538818359375
1.5525146484374999
1.542041015625
1.55009765625
1.5484863281249999
1.509814453125
1.5235107421874998
1.5106201171875
1.5202880859374999
1.480810546875
2.1720703125
1.8949218749999999
1.683837890625
1.59521484375
1.474365234375
1.4155517578124999
1.1657958984374999
1.058642578125
1.168212890625
1.268115234375
1.4228027343749998
1.4389160156249998
1.4783935546875
1.5412353515625
1.4630859374999998
1.5082031249999999
1.59521484375
1.5887695312499999
1.533984375
1.5436523437499998
1.5106201171875
0.839501953125
1.264892578125
1.4195800781249999
1.4139404296875
1.509814453125
1.683837890625
1.9891845703125
2.1462890624999997
1.93681640625
1.72412109375
1.6475830078125
1.533984375
1.5533203125
1.6008544921874999
1.5541259765625
1.5186767578125
1.5235107421874998
1.5170654296875
1.4671142578124998
1.4606689453125
1.4993408203124998
2.215576171875
1.9472900390624999
1.7523193359375
1.658056640625
1.525927734375
1.3857421875
1.2020507812499999
1.087646484375
1.087646484375
1.26005859375
1.3873535156249999
1.4356933593749999
1.4429443359374998
1.506591796875
1.53076171875
1.5243164062499999
1.5734619140625
1.5235107421874998
1.525927734375
1.5251220703125
1.5476806640624998
0.84111328125
1.084423828125
1.3664062499999998
1.4574462890625
1.5927978515624999
1.6846435546874998
2.006103515625
2.1906005859374997
2.0085205078125
1.7635986328125
1.5791015625
1.5025634765625
1.5670166015625
1.5662109375
1.5678222656249998
1.4928955078125
1.5299560546875
1.5444580078124999
1.574267578125
1.480810546875
1.4961181640624999
1.848193359375
2.0713623046875
1.67900390625
1.6282470703124998
1.5791015625
1.4397216796874999
1.239111328125
1.1375976562499999
1.0884521484375
1.198828125
1.3156494140625
1.4026611328124998
1.4042724609375
1.4703369140625
1.52109375
1.5968261718749999
1.5734619140625
1.58232421875
1.5396240234374998
1.5170654296875
1.5919921874999998
1.1384033203125
1.0997314453125
1.3833251953124999
1.3801025390625
1.5541259765625
1.6886718749999998
1.7587646484375
2.2486083984375
2.0181884765625
1.803076171875
1.6524169921874998
1.5919921874999998
1.5815185546875
1.574267578125
1.49853515625
1.5283447265624999
1.46953125
1.4606689453125
1.5106201171875
1.5283447265624999
1.5186767578125
1.8103271484374999
2.093115234375
1.851416015625
1.6137451171875
1.5073974609374998
1.40185546875
1.235888671875
1.1480712890625
1.0763671875
1.1698242187499999
1.3100097656249998
1.3712402343749999
1.482421875
1.5476806640624998
1.5154541015624998
1.4783935546875
1.5267333984375
1.5541259765625
1.538818359375
1.5323730468749999
1.5315673828124998
1.1641845703125
0.9402099609375
1.3688232421875
1.4542236328125
1.46630859375
1.7080078125
1.7732666015624998
2.17529296875
2.03671875
1.786962890625
1.611328125
1.5807128906249999
1.53076171875
1.60166015625
1.5750732421875
1.5597656249999998
1.55009765625
1.5017578125
1.5170654296875
1.5041748046874999
1.546875
1.5186767578125
2.1003662109375
1.851416015625
1.6830322265625
1.5831298828125
1.409912109375
1.3349853515624999
1.1287353515625
1.05380859375
1.1335693359374999
1.2052734375
1.3962158203125
1.4598632812499999
1.5033691406249998
1.5750732421875
1.5396240234374998
1.493701171875
1.62744140625
1.6129394531249999
1.5033691406249998
1.5106201171875
1.2898681640624998
0.9232910156249999
1.2850341796875
1.377685546875
1.448583984375
1.6008544921874999
1.722509765625
2.2292724609375
2.0657226562499997
1.915869140625
1.6048828124999999
1.59521484375
1.5678222656249998
1.558154296875
1.509814453125
1.4880615234374999
1.5106201171875
1.5299560546875
1.5154541015624998
1.5235107421874998
1.5283447265624999
1.5186767578125
2.17529296875
1.832080078125
