0.026586914062499998
0.024169921875
0.026586914062499998
0.024169921875
0.022558593749999998
0.024169921875
0.018530273437499998
0.023364257812499997
0.023364257812499997
0.019335937499999997
0.022558593749999998
0.0217529296875
0.023364257812499997
0.023364257812499997
0.020947265625
0.6453369140624999
1.5799072265624998
1.9617919921875
2.4298828125
2.7271728515625
3.02607421875
3.02607421875
3.01962890625
3.0228515624999996
3.0027099609374996
2.940673828125
2.792431640625
3.02607421875
3.0268798828124996
3.0228515624999996
3.02607421875
3.0228515624999996
3.029296875
3.0236572265625
3.0236572265625
0.530126953125
0.024169921875
0.019335937499999997
0.022558593749999998
0.02578125
0.022558593749999998
0.0217529296875
0.019335937499999997
0.0249755859375
0.023364257812499997
0.020947265625
0.0201416015625
0.019335937499999997
0.024169921875
0.022558593749999998
0.024169921875
0.019335937499999997
0.023364257812499997
0.0249755859375
0.023364257812499997
0.022558593749999998
0.0201416015625
0.7033447265624999
1.4445556640625
1.93681640625
2.276806640625
2.8850830078125
3.02607421875
3.029296875
2.99384765625
2.9833740234375
2.9906249999999996
2.96484375
2.8149902343749997
2.711865234375
3.0228515624999996
3.027685546875
3.0244628906249997
3.021240234375
3.0252685546875
3.029296875
3.02607421875
1.754736328125
0.0217529296875
0.0217529296875
0.027392578124999997
0.019335937499999997
0.019335937499999997
0.02578125
0.027392578124999997
0.022558593749999998
0.0281982421875
0.022558593749999998
0.022558593749999998
0.023364257812499997
0.023364257812499997
0.022558593749999998
0.023364257812499997
0.022558593749999998
0.024169921875
0.022558593749999998
0.024169921875
0.022558593749999998
0.023364257812499997
0.023364257812499997
0.95390625
1.5267333984375
2.2018798828125
2.7094482421875
3.0244628906249997
3.027685546875
3.027685546875
2.882666015625
2.963232421875
2.9350341796875
2.8415771484374996
2.7432861328125
3.0268798828124996
3.0244628906249997
3.0244628906249997
3.0220458984375
3.0244628906249997
3.0236572265625
3.0236572265625
2.13984375
0.023364257812499997
0.022558593749999998
0.018530273437499998
0.02578125
0.023364257812499997
0.0217529296875
0.024169921875
0.019335937499999997
0.0217529296875
0.022558593749999998
0.026586914062499998
0.018530273437499998
0.023364257812499997
0.0249755859375
0.020947265625
0.022558593749999998
0.023364257812499997
0.026586914062499998
0.020947265625
0.022558593749999998
0.023364257812499997
0.017724609375
0.6968994140625
1.4139404296875
1.9867675781249998
2.560400390625
2.8157958984375
3.02607421875
3.0244628906249997
3.0244628906249997
3.02607421875
3.02607421875
3.0075439453125
2.8834716796874997
3.027685546875
3.029296875
3.02607421875
3.0244628906249997
3.0252685546875
3.0309082031249996
3.0252685546875
3.0301025390625
0.2731201171875
0.024169921875
0.0201416015625
0.0169189453125
0.019335937499999997
0.022558593749999998
0.023364257812499997
0.023364257812499997
0.020947265625
0.018530273437499998
0.023364257812499997
0.020947265625
0.02578125
0.022558593749999998
0.02578125
0.023364257812499997
0.019335937499999997
0.024169921875
0.023364257812499997
0.026586914062499998
0.022558593749999998
0.022558593749999998
0.0201416015625
1.3067871093749999
1.77568359375
2.2566650390625
2.8238525390625
3.0301025390625
3.0244628906249997
3.0228515624999996
2.9342285156249996
2.9447021484375
2.882666015625
2.808544921875
2.7851806640624996
3.02607421875
3.02607421875
3.0236572265625
3.0252685546875
3.0236572265625
3.0228515624999996
3.029296875
1.1867431640625
0.0217529296875
0.023364257812499997
0.024169921875
0.022558593749999998
0.022558593749999998
0.0217529296875
0.0217529296875
0.0249755859375
0.017724609375
0.0201416015625
0.0281982421875
0.024169921875
0.020947265625
0.022558593749999998
0.023364257812499997
0.02578125
0.0217529296875
0.023364257812499997
0.023364257812499997
0.023364257812499997
0.02900390625
0.0249755859375
0.9232910156249999
1.593603515625
2.0109375
2.7344238281249997
3.027685546875
3.0244628906249997
3.0244628906249997
2.882666015625
2.9640380859374997
2.979345703125
2.8818603515624996
2.7747070312499997
3.0244628906249997
3.0244628906249997
3.0236572265625
3.0228515624999996
3.0268798828124996
3.0252685546875
3.01962890625
3.0252685546875
0.0217529296875
0.020947265625
0.018530273437499998
0.022558593749999998
0.0217529296875
0.023364257812499997
0.023364257812499997
0.022558593749999998
0.023364257812499997
0.020947265625
0.023364257812499997
0.022558593749999998
0.020947265625
0.0201416015625
0.0249755859375
0.022558593749999998
0.0249755859375
0.026586914062499998
0.020947265625
0.023364257812499997
0.0201416015625
0.022558593749999998
1.095703125
1.7845458984375
2.2018798828125
2.8818603515624996
2.72314453125
3.0228515624999996
3.02607421875
3.0252685546875
3.027685546875
3.0236572265625
2.9543701171874996
2.8818603515624996
3.0284912109374997
3.0252685546875
3.0284912109374997
3.0252685546875
3.0268798828124996
3.0252685546875
3.027685546875
3.0188232421874996
0.023364257812499997
0.022558593749999998
0.0281982421875
0.024169921875
0.022558593749999998
0.020947265625
0.022558593749999998
0.0169189453125
0.023364257812499997
0.019335937499999997
0.022558593749999998
0.024169921875
0.0169189453125
0.022558593749999998
0.024169921875
0.024169921875
0.022558593749999998
0.023364257812499997
0.022558593749999998
0.0217529296875
0.019335937499999997
0.0249755859375
0.026586914062499998
1.077978515625
1.84013671875
2.334814453125
2.9302001953124996
3.0252685546875
3.02607421875
3.0268798828124996
2.9801513671874997
2.9519531249999997
2.931005859375
2.8109619140624997
2.8061279296875
3.0268798828124996
3.0188232421874996
3.0236572265625
3.02607421875
3.02607421875
3.029296875
3.0252685546875
1.0650878906249999
0.023364257812499997
0.023364257812499997
0.023364257812499997
0.020947265625
0.022558593749999998
0.0217529296875
0.023364257812499997
0.022558593749999998
0.022558593749999998
0.02578125
0.0217529296875
0.020947265625
0.017724609375
0.026586914062499998
0.022558593749999998
0.022558593749999998
0.022558593749999998
0.023364257812499997
0.023364257812499997
0.0217529296875
0.022558593749999998
0.023364257812499997
1.1706298828125
1.6612792968749999
2.1116455078125
2.689306640625
2.9865966796874996
3.02607421875
3.0228515624999996
3.01962890625
3.0010986328125
3.018017578125
2.9181152343749996
2.81982421875
3.0252685546875
3.01962890625
3.02607421875
3.0236572265625
3.0236572265625
3.0228515624999996
3.021240234375
2.9116699218749997
0.023364257812499997
0.022558593749999998
0.019335937499999997
0.023364257812499997
0.024169921875
0.022558593749999998
0.023364257812499997
0.022558593749999998
0.022558593749999998
0.0249755859375
0.024169921875
0.022558593749999998
0.026586914062499998
0.027392578124999997
0.023364257812499997
0.026586914062499998
0.020947265625
0.017724609375
0.019335937499999997
0.022558593749999998
0.023364257812499997
0.022558593749999998
0.9676025390624999
1.60166015625
2.0625
2.8593017578124997
2.8149902343749997
3.027685546875
3.029296875
3.027685546875
3.0268798828124996
3.02607421875
2.9447021484375
2.8456054687499996
3.02607421875
3.01962890625
3.0252685546875
3.0252685546875
3.0268798828124996
3.0220458984375
3.0244628906249997
3.021240234375
0.024169921875
0.023364257812499997
0.023364257812499997
0.023364257812499997
0.020947265625
0.0169189453125
0.0201416015625
0.023364257812499997
0.019335937499999997
0.023364257812499997
0.022558593749999998
0.0217529296875
0.022558593749999998
0.0201416015625
0.022558593749999998
0.027392578124999997
0.022558593749999998
0.02578125
0.027392578124999997
0.023364257812499997
0.023364257812499997
0.02578125
0.5003173828124999
1.4155517578124999
2.1624023437499997
2.63291015625
3.0244628906249997
3.0244628906249997
3.027685546875
3.0220458984375
2.96484375
2.9495361328125
2.9930419921875
2.8786376953125
3.02607421875
3.0228515624999996
3.02607421875
3.02607421875
3.0244628906249997
3.02607421875
3.0252685546875
3.0325195312499997
0.8548095703124999
0.017724609375
0.0217529296875
0.0217529296875
0.024169921875
0.027392578124999997
0.022558593749999998
0.0201416015625
0.023364257812499997
0.022558593749999998
0.024169921875
0.017724609375
0.018530273437499998
0.022558593749999998
0.023364257812499997
0.020947265625
0.0249755859375
0.030615234374999998
0.0217529296875
0.022558593749999998
0.0217529296875
0.022558593749999998
0.027392578124999997
1.106982421875
1.8667236328124999
2.2751953124999997
2.7932373046874996
3.02607421875
3.027685546875
3.0252685546875
3.02607421875
3.0236572265625
3.0252685546875
2.9592041015625
2.8375488281249996
3.02607421875
3.0252685546875
3.0244628906249997
3.0252685546875
3.0236572265625
3.021240234375
3.0236572265625
1.7523193359375
0.027392578124999997
0.023364257812499997
0.0201416015625
0.022558593749999998
0.022558593749999998
0.026586914062499998
0.022558593749999998
0.026586914062499998
0.022558593749999998
0.024169921875
0.0217529296875
0.017724609375
0.0201416015625
0.022558593749999998
0.0217529296875
0.022558593749999998
0.019335937499999997
0.020947265625
0.026586914062499998
0.0217529296875
0.0217529296875
0.02900390625
1.0328613281249999
1.6411376953124999
2.101171875
2.86494140625
3.027685546875
3.0317138671875
3.0220458984375
3.0284912109374997
3.02607421875
3.0244628906249997
2.98095703125
2.8609130859375
3.0244628906249997
3.0252685546875
3.0252685546875
3.027685546875
3.0228515624999996
3.0252685546875
3.0284912109374997
3.021240234375
0.023364257812499997
0.0249755859375
0.024169921875
0.022558593749999998
0.0249755859375
0.023364257812499997
0.022558593749999998
0.027392578124999997
0.022558593749999998
0.023364257812499997
0.0249755859375
0.0217529296875
0.0217529296875
0.026586914062499998
0.026586914062499998
0.023364257812499997
0.023364257812499997
0.018530273437499998
0.027392578124999997
0.026586914062499998
0.026586914062499998
0.023364257812499997
0.022558593749999998
1.1786865234375
1.732177734375
2.402490234375
2.76826171875
3.027685546875
3.0317138671875
3.02607421875
2.96162109375
3.021240234375
2.9430908203125
2.8657470703124996
2.848828125
3.0252685546875
3.02607421875
3.0236572265625
3.021240234375
3.0284912109374997
3.02607421875
3.0252685546875
0.3504638671875
0.023364257812499997
0.024169921875
0.024169921875
0.024169921875
0.023364257812499997
0.022558593749999998
0.02578125
0.026586914062499998
0.027392578124999997
0.0217529296875
0.0217529296875
0.023364257812499997
0.022558593749999998
0.022558593749999998
0.017724609375
0.022558593749999998
0.0217529296875
0.023364257812499997
0.023364257812499997
0.0217529296875
0.022558593749999998
0.023364257812499997
1.361572265625
2.0391357421875
2.4282714843749997
2.8697753906249996
3.021240234375
3.0252685546875
3.02607421875
3.029296875
3.0244628906249997
2.995458984375
2.9447021484375
2.8697753906249996
3.0309082031249996
3.0244628906249997
3.0244628906249997
3.0244628906249997
3.0244628906249997
3.0244628906249997
3.0268798828124996
1.287451171875
0.0217529296875
0.023364257812499997
0.0249755859375
0.024169921875
0.019335937499999997
0.027392578124999997
0.018530273437499998
0.026586914062499998
0.027392578124999997
0.023364257812499997
0.018530273437499998
0.0217529296875
0.026586914062499998
0.0249755859375
0.024169921875
0.0217529296875
0.022558593749999998
0.024169921875
0.02900390625
0.023364257812499997
0.023364257812499997
0.0281982421875
0.7025390625
1.6806152343749998
2.1229248046875
2.7529541015624996
3.0236572265625
3.0236572265625
3.021240234375
2.9269775390625
3.0123779296874997
3.0228515624999996
2.9447021484375
2.834326171875
3.0244628906249997
3.02607421875
3.0252685546875
3.0244628906249997
3.01962890625
3.029296875
3.02607421875
3.0244628906249997
0.0459228515625
0.022558593749999998
0.023364257812499997
0.022558593749999998
0.026586914062499998
0.02900390625
0.023364257812499997
0.027392578124999997
0.022558593749999998
0.0281982421875
0.02900390625
0.027392578124999997
0.022558593749999998
0.027392578124999997
0.0249755859375
0.024169921875
0.024169921875
0.022558593749999998
0.02900390625
0.023364257812499997
0.022558593749999998
0.022558593749999998
0.7210693359375
1.47275390625
1.9601806640625
2.6836669921875
2.771484375
3.02607421875
3.027685546875
3.0284912109374997
2.9358398437499997
2.956787109375
2.9044189453125
2.8351318359374997
3.021240234375
3.0252685546875
3.02607421875
3.0244628906249997
3.02607421875
3.0268798828124996
3.029296875
3.01962890625
0.0201416015625
0.0201416015625
0.018530273437499998
0.023364257812499997
0.022558593749999998
0.027392578124999997
0.023364257812499997
0.023364257812499997
0.024169921875
0.018530273437499998
0.022558593749999998
0.023364257812499997
0.027392578124999997
0.023364257812499997
0.022558593749999998
0.02900390625
0.022558593749999998
0.0169189453125
0.022558593749999998
0.023364257812499997
0.017724609375
0.023364257812499997
0.0217529296875
1.148876953125
1.7652099609374998
2.3936279296875
2.802099609375
2.9720947265624997
3.02607421875
3.0252685546875
3.02607421875
3.0228515624999996
2.96162109375
2.8834716796874997
2.7811523437499996
3.0252685546875
3.0244628906249997
3.0284912109374997
3.021240234375
3.0252685546875
3.0244628906249997
3.029296875
0.9796874999999999
0.022558593749999998
0.020947265625
0.018530273437499998
0.020947265625
0.018530273437499998
0.022558593749999998
0.0217529296875
0.022558593749999998
0.023364257812499997
0.023364257812499997
0.0217529296875
0.0217529296875
0.019335937499999997
0.0249755859375
0.023364257812499997
0.022558593749999998
0.024169921875
0.023364257812499997
0.023364257812499997
0.022558593749999998
0.023364257812499997
0.023364257812499997
0.8362792968749999
1.6773925781249999
2.199462890625
2.7827636718749997
3.0244628906249997
3.0228515624999996
3.0301025390625
3.0236572265625
2.9922363281249997
2.9600097656249997
2.963232421875
2.8874999999999997
3.0252685546875
3.0220458984375
3.0244628906249997
3.0244628906249997
3.027685546875
3.02607421875
3.0252685546875
3.027685546875
0.023364257812499997
0.023364257812499997
0.023364257812499997
0.023364257812499997
0.024169921875
0.023364257812499997
0.0249755859375
0.027392578124999997
0.0281982421875
0.023364257812499997
0.023364257812499997
0.0249755859375
0.022558593749999998
0.0217529296875
0.023364257812499997
0.018530273437499998
0.0217529296875
0.022558593749999998
0.02578125
0.023364257812499997
0.023364257812499997
0.02578125
0.7726318359375
1.714453125
2.2453857421875
2.7521484375
3.0284912109374997
3.02607421875
3.0244628906249997
3.0188232421874996
2.9592041015625
2.995458984375
3.01318359375
2.8045166015625
3.0204345703124997
3.0268798828124996
3.0244628906249997
3.02607421875
3.0220458984375
3.0244628906249997
3.0244628906249997
3.0228515624999996
0.9885498046875
0.024169921875
0.023364257812499997
0.019335937499999997
0.0201416015625
0.024169921875
0.023364257812499997
0.0201416015625
0.026586914062499998
0.0281982421875
0.022558593749999998
0.022558593749999998
0.022558593749999998
0.018530273437499998
0.02578125
0.027392578124999997
0.023364257812499997
0.020947265625
0.022558593749999998
0.019335937499999997
0.0217529296875
0.020947265625
1.2938964843749998
2.0254394531249997
2.5265625
2.9390625
3.02607421875
3.0309082031249996
3.0252685546875
3.0236572265625
2.96162109375
2.872998046875
2.98095703125
3.01318359375
2.8528564453125
3.0236572265625
3.021240234375
3.0301025390625
3.0252685546875
3.0252685546875
3.02607421875
3.0252685546875
0.694482421875
0.022558593749999998
0.018530273437499998
0.024169921875
0.026586914062499998
0.023364257812499997
0.022558593749999998
0.023364257812499997
0.027392578124999997
0.023364257812499997
0.023364257812499997
0.024169921875
0.0281982421875
0.0217529296875
0.018530273437499998
0.023364257812499997
0.022558593749999998
0.009667968749999999
0.02578125
0.02900390625
0.022558593749999998
0.020947265625
0.023364257812499997
1.04736328125
1.6451660156249999
2.24619140625
2.83271484375
3.02607421875
3.02607421875
3.029296875
2.889111328125
3.0010986328125
2.9922363281249997
2.8391601562499997
2.679638671875
3.0236572265625
3.0252685546875
3.0309082031249996
3.0268798828124996
3.0252685546875
3.0228515624999996
3.0301025390625
1.8554443359375
0.023364257812499997
0.023364257812499997
0.022558593749999998
0.024169921875
0.018530273437499998
0.023364257812499997
0.023364257812499997
0.023364257812499997
0.020947265625
0.0217529296875
0.023364257812499997
0.026586914062499998
0.019335937499999997
0.014501953125
0.023364257812499997
0.022558593749999998
0.022558593749999998
0.0217529296875
0.022558593749999998
0.023364257812499997
0.0281982421875
0.017724609375
0.019335937499999997
1.1867431640625
1.8796142578125
2.4999755859375
2.7980712890625
3.0252685546875
3.0317138671875
3.0075439453125
2.9656494140625
2.8697753906249996
2.8456054687499996
2.8214355468749996
3.0228515624999996
3.02607421875
3.029296875
3.021240234375
3.0268798828124996
3.0228515624999996
3.0252685546875
3.021240234375
0.2634521484375
0.0217529296875
0.022558593749999998
0.024169921875
0.0217529296875
0.026586914062499998
0.026586914062499998
0.018530273437499998
0.018530273437499998
0.019335937499999997
0.0201416015625
0.0217529296875
0.023364257812499997
0.023364257812499997
0.02578125
0.02578125
0.024169921875
0.017724609375
0.018530273437499998
0.0217529296875
0.022558593749999998
0.0217529296875
0.020947265625
1.4147460937499998
1.9472900390624999
2.3501220703125
2.811767578125
3.029296875
3.01962890625
3.0268798828124996
2.9326171875
3.029296875
2.924560546875
2.785986328125
2.866552734375
3.0204345703124997
3.0301025390625
3.0244628906249997
3.0236572265625
3.027685546875
3.0244628906249997
3.0252685546875
1.2737548828124998
0.0281982421875
0.023364257812499997
0.023364257812499997
0.018530273437499998
0.023364257812499997
0.0217529296875
0.022558593749999998
0.023364257812499997
0.022558593749999998
0.022558593749999998
0.022558593749999998
0.024169921875
0.02578125
0.020947265625
0.024169921875
0.0217529296875
0.019335937499999997
0.0281982421875
0.022558593749999998
0.024169921875
0.02578125
0.0217529296875
1.007080078125
1.7184814453125
2.180126953125
2.9076416015624997
3.0244628906249997
3.0268798828124996
3.0236572265625
2.792431640625
2.931005859375
3.011572265625
2.9358398437499997
2.8778320312499996
3.0228515624999996
3.0244628906249997
3.0236572265625
3.0252685546875
3.0244628906249997
3.0252685546875
3.0244628906249997
3.0228515624999996
0.022558593749999998
0.022558593749999998
0.023364257812499997
0.024169921875
0.023364257812499997
0.023364257812499997
0.022558593749999998
0.022558593749999998
0.022558593749999998
0.0249755859375
0.017724609375
0.022558593749999998
0.022558593749999998
0.02578125
0.0217529296875
0.0281982421875
0.023364257812499997
0.022558593749999998
0.023364257812499997
0.020947265625
0.023364257812499997
0.0201416015625
0.8209716796875
1.4671142578124998
2.1503173828124997
2.634521484375
2.608740234375
3.0244628906249997
3.02607421875
3.0244628906249997
3.0284912109374997
3.0284912109374997
3.0252685546875
3.0301025390625
3.0252685546875
3.0244628906249997
3.0268798828124996
3.027685546875
3.0309082031249996
3.0252685546875
3.02607421875
3.0236572265625
0.169189453125
0.023364257812499997
0.022558593749999998
0.023364257812499997
0.0249755859375
0.0201416015625
0.022558593749999998
0.0201416015625
0.026586914062499998
0.024169921875
0.023364257812499997
0.023364257812499997
0.019335937499999997
0.018530273437499998
0.024169921875
0.022558593749999998
0.0201416015625
0.0217529296875
0.0169189453125
0.022558593749999998
0.0217529296875
0.023364257812499997
0.742822265625
1.7942138671874999
2.273583984375
2.473388671875
2.8206298828125
3.02607421875
3.021240234375
2.834326171875
2.95517578125
2.9261718749999996
2.9036132812499997
2.7529541015624996
3.001904296875
3.027685546875
3.0236572265625
3.0252685546875
3.027685546875
3.027685546875
3.02607421875
3.0244628906249997
1.2584472656249999
0.0217529296875
0.022558593749999998
0.024169921875
0.023364257812499997
0.023364257812499997
0.018530273437499998
0.0201416015625
0.023364257812499997
0.023364257812499997
0.022558593749999998
0.020947265625
0.0249755859375
0.022558593749999998
0.024169921875
0.022558593749999998
0.02578125
0.026586914062499998
0.020947265625
0.0217529296875
0.023364257812499997
0.0169189453125
0.027392578124999997
1.34384765625
1.877197265625
2.3614013671875
2.9044189453125
3.021240234375
3.0301025390625
3.0236572265625
2.8206298828125
2.802099609375
2.8206298828125
2.76181640625
2.6997802734375
3.021240234375
3.0268798828124996
3.0188232421874996
3.0268798828124996
3.0252685546875
3.0244628906249997
3.0244628906249997
2.5652343749999997
0.018530273437499998
0.023364257812499997
0.022558593749999998
0.023364257812499997
0.022558593749999998
0.024169921875
0.020947265625
0.022558593749999998
0.023364257812499997
0.020947265625
0.023364257812499997
0.0249755859375
0.0169189453125
0.022558593749999998
0.022558593749999998
0.0281982421875
0.022558593749999998
0.026586914062499998
0.023364257812499997
0.0249755859375
0.022558593749999998
0.024169921875
1.042529296875
1.7281494140625
2.131787109375
2.876220703125
3.0043212890624997
3.0228515624999996
3.0284912109374997
3.0252685546875
3.011572265625
2.921337890625
2.784375
2.679638671875
3.0284912109374997
3.0204345703124997
3.0236572265625
3.0309082031249996
3.02607421875
3.0244628906249997
3.0284912109374997
3.0228515624999996
0.018530273437499998
0.024169921875
0.0201416015625
0.023364257812499997
0.019335937499999997
0.023364257812499997
0.0217529296875
0.018530273437499998
0.023364257812499997
0.023364257812499997
0.022558593749999998
0.024169921875
0.020947265625
0.02578125
0.023364257812499997
0.023364257812499997
0.020947265625
0.017724609375
0.0217529296875
0.022558593749999998
0.023364257812499997
0.023364257812499997
0.7452392578125
1.445361328125
2.051220703125
2.6176025390624997
2.8770263671875
3.0244628906249997
3.02607421875
3.0252685546875
3.0244628906249997
3.0236572265625
3.0164062499999997
2.8536621093749996
2.7569824218749996
3.02607421875
3.0236572265625
3.0244628906249997
3.0268798828124996
3.02607421875
3.02607421875
3.0252685546875
0.59619140625
0.023364257812499997
0.023364257812499997
0.026586914062499998
0.024169921875
0.0249755859375
0.024169921875
0.020947265625
0.022558593749999998
0.023364257812499997
0.019335937499999997
0.022558593749999998
0.02578125
0.0217529296875
0.0217529296875
0.022558593749999998
0.022558593749999998
0.02578125
0.018530273437499998
0.023364257812499997
0.022558593749999998
0.02578125
0.0281982421875
0.9321533203125
1.7490966796874998
2.2494140625
2.8423828125
3.029296875
3.021240234375
3.0236572265625
2.7779296875
2.9197265624999997
2.81015625
2.7344238281249997
2.6876953125
3.0228515624999996
3.027685546875
3.0244628906249997
3.0220458984375
3.0268798828124996
3.02607421875
3.0244628906249997
1.6081054687499998
0.015307617187499999
0.017724609375
0.026586914062499998
0.017724609375
0.019335937499999997
0.020947265625
0.026586914062499998
0.023364257812499997
0.022558593749999998
0.022558593749999998
0.020947265625
0.022558593749999998
0.022558593749999998
0.018530273437499998
0.022558593749999998
0.022558593749999998
0.023364257812499997
0.0217529296875
0.024169921875
0.024169921875
0.023364257812499997
0.0249755859375
0.7130126953125
1.72734375
2.1712646484375
2.66513671875
3.027685546875
3.0244628906249997
3.0236572265625
3.0228515624999996
3.0244628906249997
3.0236572265625
2.9704833984374996
2.8174072265624996
3.0301025390625
3.0268798828124996
3.021240234375
3.0252685546875
3.02607421875
3.027685546875
3.027685546875
3.0244628906249997
0.223974609375
0.022558593749999998
0.023364257812499997
0.023364257812499997
0.0201416015625
0.023364257812499997
0.02578125
0.022558593749999998
0.020947265625
0.023364257812499997
0.0217529296875
0.018530273437499998
0.017724609375
0.023364257812499997
0.019335937499999997
0.022558593749999998
0.018530273437499998
0.022558593749999998
0.0169189453125
0.023364257812499997
0.023364257812499997
0.022558593749999998
0.6131103515624999
1.4928955078125
2.0471923828125
2.7207275390624996
3.029296875
3.02607421875
3.0220458984375
3.0067382812499996
2.7650390624999996
2.8883056640625
2.7126708984374996
2.6699707031249997
2.615185546875
3.029296875
3.027685546875
3.0252685546875
3.0236572265625
3.0220458984375
3.02607421875
3.018017578125
0.2698974609375
0.022558593749999998
0.0217529296875
0.022558593749999998
0.0217529296875
0.023364257812499997
0.023364257812499997
0.023364257812499997
0.022558593749999998
0.022558593749999998
0.027392578124999997
0.022558593749999998
0.024169921875
0.022558593749999998
0.0249755859375
0.023364257812499997
0.022558593749999998
0.022558593749999998
0.023364257812499997
0.022558593749999998
0.022558593749999998
0.020947265625
0.023364257812499997
1.0755615234375
1.6411376953124999
2.2913085937499997
2.4991699218749996
2.7352294921875
3.027685546875
3.02607421875
2.9414794921875
3.0236572265625
3.0236572265625
2.9624267578124996
2.8157958984375
3.02607421875
3.0252685546875
3.0252685546875
3.003515625
3.0244628906249997
3.0244628906249997
3.0252685546875
1.1416259765624999
0.0249755859375
0.022558593749999998
0.026586914062499998
0.019335937499999997
0.017724609375
0.023364257812499997
0.022558593749999998
0.023364257812499997
0.0217529296875
0.022558593749999998
0.023364257812499997
0.024169921875
0.023364257812499997
0.022558593749999998
0.020947265625
0.024169921875
0.024169921875
0.022558593749999998
0.027392578124999997
0.022558593749999998
0.0217529296875
0.022558593749999998
0.3746337890625
0.9369873046874999
1.5992431640625
2.270361328125
2.470166015625
2.914892578125
2.9624267578124996
2.9970703125
3.0236572265625
3.0164062499999997
2.9430908203125
2.811767578125
3.0204345703124997
3.0244628906249997
3.0252685546875
3.027685546875
3.0252685546875
3.0220458984375
3.02607421875
3.027685546875
0.022558593749999998
0.022558593749999998
0.017724609375
0.023364257812499997
0.024169921875
0.024169921875
0.023364257812499997
0.0217529296875
0.026586914062499998
0.018530273437499998
0.02900390625
0.020947265625
0.0249755859375
0.018530273437499998
0.020947265625
0.022558593749999998
0.023364257812499997
0.0217529296875
0.026586914062499998
0.0249755859375
0.023364257812499997
0.020947265625
0.04833984375
1.042529296875
1.8240234375
2.289697265625
2.811767578125
3.0284912109374997
3.02607421875
3.02607421875
2.9422851562499996
2.924560546875
2.94873046875
2.840771484375
3.0244628906249997
3.0268798828124996
3.029296875
3.0244628906249997
3.0252685546875
3.0244628906249997
3.0228515624999996
3.0228515624999996
0.8096923828125
0.019335937499999997
0.0201416015625
0.030615234374999998
0.027392578124999997
0.0217529296875
0.022558593749999998
0.027392578124999997
0.020947265625
0.022558593749999998
0.0281982421875
0.022558593749999998
0.023364257812499997
0.024169921875
0.020947265625
0.022558593749999998
0.024169921875
0.02578125
0.023364257812499997
0.023364257812499997
0.019335937499999997
0.024169921875
0.02900390625
0.6211669921874999
1.3253173828125
1.8103271484374999
2.3823486328125
2.811767578125
3.021240234375
3.0317138671875
3.0083496093749997
3.0010986328125
3.005126953125
2.9430908203125
2.8496337890624996
3.0228515624999996
3.0301025390625
3.0284912109374997
3.0252685546875
3.0236572265625
3.027685546875
3.0204345703124997
1.683837890625
0.0201416015625
0.023364257812499997
0.022558593749999998
0.026586914062499998
0.0217529296875
0.0217529296875
0.022558593749999998
0.024169921875
0.0217529296875
0.018530273437499998
0.0217529296875
0.024169921875
0.02578125
0.026586914062499998
0.01611328125
0.0169189453125
0.0169189453125
0.023364257812499997
0.022558593749999998
0.02578125
0.02578125
0.059619140625
0.734765625
1.3954101562499999
1.9384277343749998
2.5491210937499997
3.02607421875
3.0228515624999996
3.0252685546875
2.9511474609375
3.0172119140625
2.9600097656249997
2.8931396484375
2.7183105468749997
3.0284912109374997
3.0252685546875
3.029296875
3.0244628906249997
3.02607421875
3.0244628906249997
3.0309082031249996
3.0244628906249997
0.22478027343749998
0.0249755859375
0.023364257812499997
0.0217529296875
0.0249755859375
0.026586914062499998
0.023364257812499997
0.0217529296875
0.023364257812499997
0.022558593749999998
0.023364257812499997
0.022558593749999998
0.0217529296875
0.02578125
0.024169921875
0.0217529296875
0.024169921875
0.0217529296875
0.023364257812499997
0.022558593749999998
0.023364257812499997
0.030615234374999998
0.146630859375
1.271337890625
1.8788085937499999
2.3646240234375
2.9495361328125
3.029296875
3.0236572265625
3.02607421875
2.95517578125
3.0236572265625
2.9334228515625
2.8552734374999997
2.8512451171874997
3.0244628906249997
3.0252685546875
3.021240234375
3.0244628906249997
3.0268798828124996
3.0228515624999996
3.0244628906249997
0.6332519531249999
0.020947265625
0.0217529296875
0.018530273437499998
0.02578125
0.023364257812499997
0.022558593749999998
0.020947265625
0.020947265625
0.0217529296875
0.0201416015625
0.022558593749999998
0.026586914062499998
0.022558593749999998
0.022558593749999998
0.023364257812499997
0.0201416015625
0.022558593749999998
0.022558593749999998
0.024169921875
0.0249755859375
0.022558593749999998
0.0322265625
1.2221923828124999
1.9271484374999999
2.4596923828125
2.9253662109375
3.0220458984375
3.0228515624999996
3.0268798828124996
3.0228515624999996
3.02607421875
3.0236572265625
2.9664550781249996
2.9237548828124997
3.0284912109374997
3.0252685546875
3.0252685546875
3.0268798828124996
3.0268798828124996
3.027685546875
3.02607421875
1.3414306640625
0.023364257812499997
0.020947265625
0.0281982421875
0.0217529296875
0.0217529296875
0.022558593749999998
0.0201416015625
0.022558593749999998
0.022558593749999998
0.026586914062499998
0.0281982421875
0.022558593749999998
0.023364257812499997
0.022558593749999998
0.0217529296875
0.0217529296875
0.019335937499999997
0.022558593749999998
0.024169921875
0.024169921875
0.022558593749999998
0.022558593749999998
1.2584472656249999
2.02705078125
2.4758056640625
2.9221435546874996
2.747314453125
3.02607421875
3.0252685546875
3.0010986328125
3.0091552734375
3.0075439453125
2.9430908203125
2.8874999999999997
3.0268798828124996
3.0252685546875
3.0228515624999996
3.0244628906249997
3.0317138671875
3.0284912109374997
3.02607421875
3.0268798828124996
0.17644042968749998
0.023364257812499997
0.023364257812499997
0.0201416015625
0.023364257812499997
0.023364257812499997
0.023364257812499997
0.024169921875
0.022558593749999998
0.0217529296875
0.020947265625
0.0217529296875
0.0217529296875
0.022558593749999998
0.02578125
0.022558593749999998
0.023364257812499997
0.023364257812499997
0.020947265625
0.02578125
0.023364257812499997
0.020947265625
0.024169921875
1.2286376953125
1.96904296875
2.415380859375
2.94873046875
3.027685546875
3.0284912109374997
3.027685546875
2.9334228515625
2.7489257812499996
2.8786376953125
2.776318359375
3.0099609375
3.02607421875
3.029296875
3.027685546875
3.0236572265625
3.0244628906249997
3.02607421875
3.0244628906249997
1.197216796875
0.023364257812499997
0.026586914062499998
0.019335937499999997
0.02578125
0.024169921875
0.02578125
0.022558593749999998
0.024169921875
0.022558593749999998
0.0201416015625
0.023364257812499997
0.023364257812499997
0.0201416015625
0.022558593749999998
0.027392578124999997
0.0217529296875
0.022558593749999998
0.023364257812499997
0.023364257812499997
0.023364257812499997
0.023364257812499997
0.023364257812499997
1.3599609375
2.157568359375
2.5885986328125
3.0309082031249996
3.0244628906249997
3.0268798828124996
3.0244628906249997
2.9922363281249997
3.0220458984375
3.01318359375
3.02607421875
2.8625244140625
3.021240234375
3.021240234375
3.0284912109374997
3.0244628906249997
3.0252685546875
3.0268798828124996
3.0204345703124997
3.02607421875
0.027392578124999997
0.023364257812499997
0.022558593749999998
0.024169921875
0.023364257812499997
0.0217529296875
0.023364257812499997
0.022558593749999998
0.019335937499999997
0.023364257812499997
0.019335937499999997
0.017724609375
0.024169921875
0.022558593749999998
0.023364257812499997
0.023364257812499997
0.022558593749999998
0.0217529296875
0.024169921875
0.018530273437499998
0.0169189453125
0.026586914062499998
0.5808837890624999
1.3172607421875
1.9940185546875
2.5015869140625
2.892333984375
3.02607421875
3.0252685546875
2.9592041015625
3.0244628906249997
2.9986816406249996
2.9197265624999997
2.840771484375
3.0252685546875
3.0244628906249997
3.0244628906249997
3.0228515624999996
3.0204345703124997
3.0268798828124996
3.0228515624999996
3.01962890625
0.8523925781249999
0.024169921875
0.0217529296875
0.023364257812499997
0.023364257812499997
0.018530273437499998
0.027392578124999997
0.023364257812499997
0.022558593749999998
0.023364257812499997
0.02578125
0.022558593749999998
0.022558593749999998
0.024169921875
0.022558593749999998
0.0217529296875
0.02578125
0.020947265625
0.018530273437499998
0.022558593749999998
0.018530273437499998
0.024169921875
0.023364257812499997
1.3333740234375
2.1116455078125
2.502392578125
3.0244628906249997
3.02607421875
3.02607421875
3.02607421875
2.8593017578124997
3.003515625
2.8939453124999996
2.8617187499999996
2.7497314453125
3.01962890625
3.0244628906249997
3.027685546875
3.0268798828124996
3.0244628906249997
3.02607421875
3.0204345703124997
1.7523193359375
0.022558593749999998
0.0217529296875
0.0217529296875
0.019335937499999997
0.022558593749999998
0.0249755859375
0.023364257812499997
0.023364257812499997
0.0217529296875
0.023364257812499997
0.022558593749999998
0.023364257812499997
0.022558593749999998
0.020947265625
0.023364257812499997
0.0217529296875
0.022558593749999998
0.024169921875
0.0217529296875
0.019335937499999997
0.0201416015625
0.0298095703125
0.862060546875
1.6209960937499999
2.1648193359375
2.78759765625
2.6723876953124996
3.0236572265625
3.0244628906249997
3.0244628906249997
3.0268798828124996
3.0156005859375
2.91328125
2.8802490234375
3.021240234375
3.0236572265625
3.01962890625
3.0284912109374997
3.029296875
3.0244628906249997
3.0252685546875
3.0252685546875
0.12568359375
0.02578125
0.0249755859375
0.022558593749999998
0.0169189453125
0.0169189453125
0.024169921875
0.0217529296875
0.022558593749999998
0.018530273437499998
0.027392578124999997
0.022558593749999998
0.019335937499999997
0.022558593749999998
0.023364257812499997
0.024169921875
0.022558593749999998
0.0249755859375
0.022558593749999998
0.027392578124999997
0.0249755859375
0.0217529296875
0.023364257812499997
1.222998046875
1.88525390625
2.3638183593749997
2.8915283203124997
3.02607421875
3.0284912109374997
3.0252685546875
3.0228515624999996
2.9060302734374996
2.908447265625
2.7094482421875
2.9342285156249996
3.0252685546875
3.0220458984375
3.0244628906249997
3.0301025390625
3.0252685546875
3.0252685546875
3.0188232421874996
1.268115234375
0.022558593749999998
0.023364257812499997
0.022558593749999998
0.0201416015625
0.026586914062499998
0.023364257812499997
0.022558593749999998
0.0281982421875
0.023364257812499997
0.0249755859375
0.02578125
0.022558593749999998
0.023364257812499997
0.023364257812499997
0.0249755859375
0.018530273437499998
0.022558593749999998
0.0281982421875
0.019335937499999997
0.022558593749999998
0.017724609375
0.018530273437499998
0.7025390625
1.5017578125
2.0898925781249997
2.70703125
3.0244628906249997
3.0228515624999996
3.0204345703124997
2.9527587890625
3.0236572265625
2.9849853515625
2.91328125
2.80048828125
3.0228515624999996
3.0244628906249997
3.02607421875
3.0244628906249997
3.0244628906249997
3.027685546875
3.0228515624999996
3.0252685546875
0.020947265625
0.022558593749999998
0.023364257812499997
0.018530273437499998
0.024169921875
0.020947265625
0.0217529296875
0.0169189453125
0.0217529296875
0.023364257812499997
0.0201416015625
0.023364257812499997
0.019335937499999997
0.024169921875
0.0217529296875
0.023364257812499997
0.027392578124999997
0.022558593749999998
0.017724609375
0.02578125
0.022558593749999998
0.0201416015625
0.72509765625
1.4195800781249999
1.867529296875
2.5305908203125
2.8077392578125
3.02607421875
3.029296875
3.0244628906249997
3.0252685546875
3.02607421875
3.0067382812499996
2.931005859375
2.8939453124999996
3.02607421875
3.0301025390625
3.0204345703124997
3.0244628906249997
3.0244628906249997
3.029296875
3.02607421875
0.7742431640624999
0.022558593749999998
0.018530273437499998
0.022558593749999998
0.022558593749999998
0.022558593749999998
0.0217529296875
0.023364257812499997
0.022558593749999998
0.023364257812499997
0.020947265625
0.0201416015625
0.020947265625
0.026586914062499998
0.0217529296875
0.023364257812499997
0.02578125
0.0249755859375
0.018530273437499998
0.023364257812499997
0.023364257812499997
0.026586914062499998
0.022558593749999998
1.15693359375
1.7845458984375
2.3630126953125
2.972900390625
3.0268798828124996
3.0244628906249997
3.0268798828124996
2.8786376953125
2.963232421875
2.9712890625
2.8939453124999996
2.771484375
3.0252685546875
3.0244628906249997
3.0301025390625
3.0220458984375
3.021240234375
3.0220458984375
3.0252685546875
1.9795166015624999
0.0217529296875
0.027392578124999997
0.017724609375
0.01611328125
0.023364257812499997
0.027392578124999997
0.022558593749999998
0.023364257812499997
0.023364257812499997
0.02578125
0.022558593749999998
0.0217529296875
0.022558593749999998
0.02578125
0.023364257812499997
0.0217529296875
0.024169921875
0.023364257812499997
0.02578125
0.027392578124999997
0.024169921875
0.020947265625
0.784716796875
1.445361328125
1.8739746093749998
2.6224365234375
2.5595947265624996
3.0309082031249996
3.027685546875
3.0252685546875
3.0067382812499996
3.0164062499999997
2.9600097656249997
2.9036132812499997
3.0220458984375
3.0268798828124996
3.0236572265625
3.02607421875
3.0244628906249997
3.029296875
3.0236572265625
3.0268798828124996
0.1353515625
0.026586914062499998
0.0217529296875
0.022558593749999998
0.027392578124999997
0.018530273437499998
0.024169921875
0.0217529296875
0.02578125
0.023364257812499997
0.0169189453125
0.026586914062499998
0.023364257812499997
0.026586914062499998
0.022558593749999998
0.0298095703125
0.0201416015625
0.018530273437499998
0.026586914062499998
0.0169189453125
0.022558593749999998
0.022558593749999998
0.027392578124999997
1.04736328125
1.6201904296874998
2.2792236328124997
2.7175048828125
2.4234375
3.0228515624999996
3.0252685546875
3.0244628906249997
3.027685546875
2.98740234375
2.9527587890625
2.876220703125
3.01962890625
3.0204345703124997
3.02607421875
3.02607421875
3.0228515624999996
3.0284912109374997
3.027685546875
1.18271484375
0.023364257812499997
0.023364257812499997
0.020947265625
0.027392578124999997
0.022558593749999998
0.023364257812499997
0.0217529296875
0.027392578124999997
0.0217529296875
0.022558593749999998
0.022558593749999998
0.019335937499999997
0.027392578124999997
0.023364257812499997
0.0281982421875
0.024169921875
0.0201416015625
0.019335937499999997
0.027392578124999997
0.027392578124999997
0.0249755859375
0.0281982421875
0.726708984375
1.3092041015625
1.8892822265625
2.72958984375
3.02607421875
3.021240234375
3.0244628906249997
2.96162109375
3.021240234375
2.9882080078124997
2.9527587890625
2.85205078125
3.027685546875
3.0228515624999996
3.02607421875
3.0252685546875
3.0301025390625
3.021240234375
3.027685546875
3.0228515624999996
0.024169921875
0.0217529296875
0.022558593749999998
0.022558593749999998
0.022558593749999998
0.0281982421875
0.022558593749999998
0.0249755859375
0.022558593749999998
0.017724609375
0.017724609375
0.022558593749999998
0.022558593749999998
0.017724609375
0.023364257812499997
0.024169921875
0.022558593749999998
0.030615234374999998
0.0217529296875
0.017724609375
0.022558593749999998
0.022558593749999998
0.024169921875
1.1859374999999999
1.74345703125
2.418603515625
2.73603515625
3.0228515624999996
3.0252685546875
3.0204345703124997
3.0236572265625
3.0244628906249997
3.0228515624999996
2.9511474609375
2.9197265624999997
3.0252685546875
3.0220458984375
3.0244628906249997
3.02607421875
3.0244628906249997
3.0236572265625
3.0268798828124996
0.5671875
0.022558593749999998
0.024169921875
0.0217529296875
0.017724609375
0.020947265625
0.019335937499999997
0.022558593749999998
0.019335937499999997
0.022558593749999998
0.020947265625
0.023364257812499997
0.022558593749999998
0.020947265625
0.022558593749999998
0.018530273437499998
0.0217529296875
0.023364257812499997
0.027392578124999997
0.0217529296875
0.022558593749999998
0.022558593749999998
0.026586914062499998
1.1134277343749999
1.67900390625
2.1309814453125
2.78759765625
3.0244628906249997
3.0228515624999996
3.029296875
2.9833740234375
3.0228515624999996
3.0228515624999996
2.9656494140625
2.8681640625
3.029296875
3.0244628906249997
3.0301025390625
3.0268798828124996
3.0244628906249997
3.0236572265625
3.02607421875
3.02607421875
0.023364257812499997
0.023364257812499997
0.022558593749999998
0.020947265625
0.0217529296875
0.024169921875
0.023364257812499997
0.02578125
0.023364257812499997
0.023364257812499997
0.023364257812499997
0.022558593749999998
0.024169921875
0.0217529296875
0.024169921875
0.0249755859375
0.020947265625
0.018530273437499998
0.0201416015625
0.0217529296875
0.023364257812499997
0.024169921875
0.7669921875
1.384130859375
1.8699462890624998
2.5797363281249996
2.5757080078124996
3.029296875
3.02607421875
3.0099609375
2.9575927734375
3.0139892578125
2.9261718749999996
2.88427734375
3.01962890625
3.0244628906249997
3.027685546875
3.0236572265625
3.029296875
3.0252685546875
3.02607421875
3.02607421875
0.1353515625
0.026586914062499998
0.024169921875
0.019335937499999997
0.023364257812499997
0.022558593749999998
0.022558593749999998
0.02578125
0.0201416015625
0.017724609375
0.022558593749999998
0.027392578124999997
0.0249755859375
0.018530273437499998
0.024169921875
0.023364257812499997
0.022558593749999998
0.022558593749999998
0.024169921875
0.018530273437499998
0.023364257812499997
0.019335937499999997
0.646142578125
1.377685546875
1.9279541015625
2.2647216796875
2.866552734375
3.0244628906249997
3.0204345703124997
3.0244628906249997
3.021240234375
3.0244628906249997
3.0204345703124997
3.0010986328125
2.9221435546874996
3.029296875
3.0228515624999996
3.0252685546875
3.0244628906249997
3.029296875
3.0252685546875
3.0236572265625
3.0083496093749997
0.0201416015625
0.024169921875
0.022558593749999998
0.02578125
0.027392578124999997
0.022558593749999998
0.019335937499999997
0.022558593749999998
0.0217529296875
0.023364257812499997
0.024169921875
0.023364257812499997
0.026586914062499998
0.019335937499999997
0.022558593749999998
0.022558593749999998
0.022558593749999998
0.023364257812499997
0.0169189453125
0.022558593749999998
0.022558593749999998
0.02578125
0.8580322265625
1.4800048828124999
2.0987548828125
2.9036132812499997
3.0236572265625
3.02607421875
3.02607421875
2.985791015625
3.021240234375
3.01962890625
2.9447021484375
2.8359375
3.02607421875
3.0244628906249997
3.0244628906249997
3.02607421875
3.0268798828124996
3.0244628906249997
3.02607421875
3.0236572265625
0.024169921875
0.024169921875
0.01611328125
0.0217529296875
0.023364257812499997
0.023364257812499997
0.020947265625
0.022558593749999998
0.023364257812499997
0.0217529296875
0.022558593749999998
0.0249755859375
0.023364257812499997
0.020947265625
0.0169189453125
0.02578125
0.017724609375
0.023364257812499997
0.022558593749999998
0.0217529296875
0.022558593749999998
0.0217529296875
0.020947265625
1.2310546875
1.848193359375
2.2840576171875
2.8947509765625
3.0220458984375
3.0244628906249997
3.029296875
2.969677734375
3.027685546875
2.963232421875
2.8963623046875
2.840771484375
3.0244628906249997
3.0236572265625
3.02607421875
3.021240234375
3.0228515624999996
3.0252685546875
3.0188232421874996
0.7903564453124999
0.022558593749999998
0.023364257812499997
0.0217529296875
0.017724609375
0.022558593749999998
0.024169921875
0.02578125
0.019335937499999997
0.020947265625
0.020947265625
0.0217529296875
0.023364257812499997
0.022558593749999998
0.023364257812499997
0.02578125
0.02578125
0.022558593749999998
0.0281982421875
0.026586914062499998
0.024169921875
0.024169921875
0.024169921875
1.4252197265625
1.9400390625
2.3275634765624997
2.9688720703125
3.0268798828124996
3.0228515624999996
3.0244628906249997
3.0236572265625
3.0301025390625
3.0228515624999996
2.9575927734375
2.8512451171874997
3.0252685546875
3.0236572265625
3.021240234375
3.021240234375
3.0228515624999996
3.0236572265625
3.02607421875
3.0268798828124996
0.022558593749999998
0.02578125
0.0217529296875
0.0217529296875
0.024169921875
0.017724609375
0.022558593749999998
0.0217529296875
0.0169189453125
0.0281982421875
0.01611328125
0.0217529296875
0.020947265625
0.022558593749999998
0.026586914062499998
0.022558593749999998
0.0217529296875
0.020947265625
0.017724609375
0.0201416015625
0.023364257812499997
0.022558593749999998
0.8958984375
1.6427490234375
2.018994140625
2.489501953125
2.6643310546874996
3.02607421875
3.0284912109374997
2.985791015625
3.0123779296874997
2.977734375
3.0236572265625
2.8625244140625
3.0236572265625
3.0236572265625
3.0325195312499997
3.0228515624999996
3.021240234375
3.0252685546875
3.018017578125
3.02607421875
1.1134277343749999
0.0281982421875
0.0249755859375
0.0217529296875
0.02900390625
0.018530273437499998
0.020947265625
0.027392578124999997
0.023364257812499997
0.023364257812499997
0.01611328125
0.023364257812499997
0.023364257812499997
0.0249755859375
0.033837890625
0.018530273437499998
0.022558593749999998
0.018530273437499998
0.0217529296875
0.023364257812499997
0.0217529296875
0.024169921875
0.022558593749999998
1.155322265625
1.7652099609374998
2.4161865234374997
2.9068359375
3.0252685546875
3.0236572265625
3.02607421875
3.0244628906249997
3.018017578125
3.0252685546875
2.9559814453124997
2.8689697265625
3.029296875
3.0252685546875
3.0252685546875
3.0244628906249997
3.02607421875
3.02607421875
3.0228515624999996
1.1690185546875
0.023364257812499997
0.027392578124999997
0.022558593749999998
0.017724609375
0.023364257812499997
0.020947265625
0.022558593749999998
0.024169921875
0.022558593749999998
0.022558593749999998
0.02578125
0.022558593749999998
0.022558593749999998
0.018530273437499998
0.0217529296875
0.022558593749999998
0.022558593749999998
0.022558593749999998
0.026586914062499998
0.019335937499999997
0.0169189453125
0.022558593749999998
0.8113037109375
1.4953124999999998
2.1342041015624997
2.7303955078124997
3.0139892578125
3.0244628906249997
3.021240234375
3.0268798828124996
3.027685546875
3.021240234375
3.0067382812499996
2.89716796875
3.02607421875
3.0244628906249997
3.01962890625
3.0244628906249997
3.0236572265625
3.0268798828124996
3.02607421875
3.0236572265625
0.022558593749999998
0.017724609375
0.022558593749999998
0.020947265625
0.0249755859375
0.0217529296875
0.022558593749999998
0.023364257812499997
0.0217529296875
0.023364257812499997
0.024169921875
0.020947265625
0.0217529296875
0.0217529296875
0.023364257812499997
0.0217529296875
0.023364257812499997
0.026586914062499998
0.027392578124999997
0.022558593749999998
0.023364257812499997
0.024169921875
0.7081787109375
1.3704345703124998
2.04638671875
2.5918212890624996
2.99384765625
3.02607421875
3.0228515624999996
3.0252685546875
2.9583984374999996
3.021240234375
2.947119140625
2.9269775390625
2.91650390625
3.0309082031249996
3.0268798828124996
3.0268798828124996
3.02607421875
3.0252685546875
3.0244628906249997
3.0244628906249997
1.0884521484375
0.023364257812499997
0.0169189453125
0.020947265625
0.0169189453125
0.024169921875
0.019335937499999997
0.024169921875
0.0281982421875
0.022558593749999998
0.022558593749999998
0.023364257812499997
0.0281982421875
0.02900390625
0.02578125
0.017724609375
0.023364257812499997
0.022558593749999998
0.023364257812499997
0.0169189453125
0.0201416015625
0.02900390625
0.488232421875
1.4171630859375
1.9521240234375
2.4870849609374996
3.0043212890624997
3.0228515624999996
3.0244628906249997
3.0325195312499997
2.9688720703125
3.02607421875
2.9825683593749996
2.9277832031249997
2.8464111328125
3.0301025390625
3.02607421875
3.0236572265625
3.02607421875
3.0244628906249997
3.0252685546875
3.0228515624999996
1.8941162109374998
0.027392578124999997
0.0217529296875
0.022558593749999998
0.0169189453125
0.023364257812499997
0.023364257812499997
0.022558593749999998
0.017724609375
0.0249755859375
0.024169921875
0.022558593749999998
0.017724609375
0.027392578124999997
0.0217529296875
0.0217529296875
0.020947265625
0.0249755859375
0.023364257812499997
0.0217529296875
0.020947265625
0.024169921875
0.0281982421875
1.0248046874999999
1.9029785156249999
2.2671386718749997
2.840771484375
2.663525390625
3.02607421875
3.0204345703124997
3.0099609375
3.0244628906249997
3.0228515624999996
2.9334228515625
2.8133789062499996
3.0284912109374997
3.02607421875
3.0236572265625
3.02607421875
3.02607421875
3.0236572265625
3.0268798828124996
3.02607421875
0.29245605468749997
0.022558593749999998
0.023364257812499997
0.026586914062499998
0.022558593749999998
0.026586914062499998
0.0201416015625
0.023364257812499997
0.0249755859375
0.0217529296875
0.022558593749999998
0.026586914062499998
0.023364257812499997
0.0217529296875
0.0217529296875
0.0217529296875
0.023364257812499997
0.024169921875
0.023364257812499997
0.0217529296875
0.027392578124999997
0.019335937499999997
0.027392578124999997
1.3720458984375
1.880419921875
2.3533447265625
2.9906249999999996
3.0252685546875
3.0244628906249997
3.029296875
2.9036132812499997
2.9640380859374997
3.0043212890624997
2.8560791015625
2.9519531249999997
3.0268798828124996
3.0268798828124996
3.0252685546875
3.02607421875
3.029296875
3.0244628906249997
3.0268798828124996
1.2890625
0.0217529296875
0.019335937499999997
0.024169921875
0.022558593749999998
0.023364257812499997
0.024169921875
0.0249755859375
0.0217529296875
0.026586914062499998
0.022558593749999998
0.017724609375
0.023364257812499997
0.026586914062499998
0.024169921875
0.023364257812499997
0.0217529296875
0.0217529296875
0.023364257812499997
0.024169921875
0.0281982421875
0.0169189453125
0.02578125
1.2181640624999999
1.754736328125
2.1865722656249997
2.8053222656249996
3.0244628906249997
3.027685546875
3.0228515624999996
3.027685546875
3.0236572265625
2.9753173828125
2.924560546875
2.8576904296874996
3.0252685546875
3.0244628906249997
3.0236572265625
3.02607421875
3.0268798828124996
3.0244628906249997
3.0252685546875
3.0220458984375
0.023364257812499997
0.027392578124999997
0.024169921875
0.0217529296875
0.026586914062499998
0.023364257812499997
0.0217529296875
0.0217529296875
0.023364257812499997
0.020947265625
0.024169921875
0.02900390625
0.0249755859375
0.023364257812499997
0.019335937499999997
0.027392578124999997
0.023364257812499997
0.02578125
0.023364257812499997
0.026586914062499998
0.019335937499999997
0.022558593749999998
1.0272216796875
1.674169921875
2.2582763671875
2.8947509765625
3.02607421875
3.0252685546875
3.0228515624999996
2.9543701171874996
3.0244628906249997
2.969677734375
2.91328125
2.7972656249999996
3.0244628906249997
3.0252685546875
3.0252685546875
3.0252685546875
3.02607421875
3.0244628906249997
3.0268798828124996
3.0236572265625
0.06606445312499999
0.022558593749999998
0.0249755859375
0.022558593749999998
0.022558593749999998
0.023364257812499997
0.02578125
0.022558593749999998
0.022558593749999998
0.0217529296875
0.022558593749999998
0.022558593749999998
0.026586914062499998
0.0281982421875
0.023364257812499997
0.0217529296875
0.018530273437499998
0.023364257812499997
0.0169189453125
0.023364257812499997
0.0217529296875
0.022558593749999998
0.0217529296875
1.2399169921875
2.02060546875
2.4790283203124996
2.8915283203124997
3.02607421875
3.02607421875
3.0252685546875
2.9753173828125
2.9479248046874997
2.9841796874999997
2.8625244140625
3.0236572265625
3.0284912109374997
3.0252685546875
3.0244628906249997
3.02607421875
3.0252685546875
3.02607421875
3.01962890625
0.862060546875
0.0217529296875
0.0217529296875
0.022558593749999998
0.022558593749999998
0.0217529296875
0.020947265625
0.0217529296875
0.024169921875
0.022558593749999998
0.0217529296875
0.0217529296875
0.02578125
0.026586914062499998
0.023364257812499997
0.026586914062499998
0.027392578124999997
0.019335937499999997
0.0249755859375
0.022558593749999998
0.019335937499999997
0.023364257812499997
0.023364257812499997
1.2785888671874999
1.8304687499999999
2.2349121093749997
2.6844726562499996
3.0284912109374997
3.0236572265625
3.0268798828124996
3.0317138671875
3.027685546875
3.001904296875
2.8979736328124996
2.7722900390625
3.029296875
3.0236572265625
3.0252685546875
3.0236572265625
3.02607421875
3.02607421875
3.0204345703124997
1.972265625
0.023364257812499997
0.022558593749999998
0.01611328125
0.018530273437499998
0.018530273437499998
0.018530273437499998
0.022558593749999998
0.0249755859375
0.02900390625
0.020947265625
0.023364257812499997
0.02900390625
0.0217529296875
0.0217529296875
0.022558593749999998
0.023364257812499997
0.023364257812499997
0.027392578124999997
0.01611328125
0.022558593749999998
0.022558593749999998
0.027392578124999997
0.8531982421875
1.4872558593749998
1.9730712890625
2.7771240234374996
3.0252685546875
3.0268798828124996
3.0164062499999997
2.8915283203124997
2.98095703125
2.96162109375
2.9173095703125
2.78759765625
3.01962890625
3.02607421875
3.027685546875
3.0147949218749996
3.02607421875
3.0228515624999996
3.02607421875
3.02607421875
0.023364257812499997
0.0169189453125
0.024169921875
0.022558593749999998
0.023364257812499997
0.023364257812499997
0.023364257812499997
0.02578125
0.0217529296875
0.022558593749999998
0.022558593749999998
0.023364257812499997
0.0217529296875
0.022558593749999998
0.02578125
0.022558593749999998
0.022558593749999998
0.0217529296875
0.022558593749999998
0.023364257812499997
0.020947265625
0.023364257812499997
0.7178466796874999
1.5396240234374998
2.1342041015624997
2.7078369140625
3.02607421875
3.02607421875
3.0228515624999996
3.0236572265625
2.921337890625
2.972900390625
2.8955566406249997
2.840771484375
2.8012939453124996
3.027685546875
3.0236572265625
3.0204345703124997
3.0244628906249997
3.02607421875
3.0228515624999996
3.027685546875
0.339990234375
0.023364257812499997
0.0217529296875
0.018530273437499998
0.0217529296875
0.023364257812499997
0.023364257812499997
0.0217529296875
0.019335937499999997
0.02578125
0.020947265625
0.024169921875
0.018530273437499998
0.024169921875
0.0217529296875
0.023364257812499997
0.022558593749999998
0.022558593749999998
0.023364257812499997
0.023364257812499997
0.020947265625
0.023364257812499997
0.0201416015625
1.1819091796874999
1.9021728515624998
2.276806640625
2.7610107421874996
3.027685546875
3.02607421875
3.0252685546875
3.0244628906249997
3.029296875
2.9342285156249996
2.9036132812499997
2.8270751953124997
3.0244628906249997
3.0228515624999996
3.0244628906249997
3.021240234375
3.0252685546875
3.0268798828124996
3.018017578125
1.216552734375
0.020947265625
0.0217529296875
0.01611328125
0.02578125
0.022558593749999998
0.023364257812499997
0.022558593749999998
0.018530273437499998
0.027392578124999997
0.0281982421875
0.023364257812499997
0.027392578124999997
0.023364257812499997
0.023364257812499997
0.0201416015625
0.024169921875
0.022558593749999998
0.022558593749999998
0.022558593749999998
0.023364257812499997
0.022558593749999998
0.0201416015625
1.0594482421875
1.9343994140624998
2.3638183593749997
2.9253662109375
3.029296875
3.02607421875
3.0252685546875
2.9197265624999997
2.9092529296875
2.9100585937499996
2.8681640625
2.7585937499999997
3.029296875
3.027685546875
3.018017578125
3.02607421875
3.0244628906249997
3.0244628906249997
3.0244628906249997
3.01962890625
0.153076171875
0.0217529296875
0.020947265625
0.022558593749999998
0.024169921875
0.02578125
0.024169921875
0.023364257812499997
0.017724609375
0.024169921875
0.0217529296875
0.022558593749999998
0.023364257812499997
0.026586914062499998
0.022558593749999998
0.0217529296875
0.023364257812499997
0.023364257812499997
0.019335937499999997
0.023364257812499997
0.0217529296875
0.026586914062499998
1.013525390625
1.7394287109375
2.1503173828124997
2.5660400390625
2.8850830078125
3.0252685546875
3.0220458984375
3.0244628906249997
2.9664550781249996
2.979345703125
2.8786376953125
2.81982421875
3.0244628906249997
3.0252685546875
3.0252685546875
3.0252685546875
3.0244628906249997
3.0236572265625
3.0244628906249997
3.0244628906249997
0.09748535156249999
0.017724609375
0.026586914062499998
0.0217529296875
0.0201416015625
0.0281982421875
0.020947265625
0.023364257812499997
0.022558593749999998
0.022558593749999998
0.022558593749999998
0.0217529296875
0.022558593749999998
0.022558593749999998
0.024169921875
0.022558593749999998
0.022558593749999998
0.0217529296875
0.024169921875
0.0217529296875
0.0249755859375
0.022558593749999998
0.646142578125
1.2705322265624999
1.8763916015625
2.4709716796875
2.8778320312499996
3.029296875
3.0220458984375
3.0268798828124996
3.0284912109374997
3.0188232421874996
2.9608154296875
2.86494140625
2.7593994140625
3.02607421875
3.02607421875
3.0204345703124997
3.029296875
3.027685546875
3.02607421875
3.029296875
1.0328613281249999
0.022558593749999998
0.0217529296875
0.0217529296875
0.023364257812499997
0.026586914062499998
0.0201416015625
0.023364257812499997
0.023364257812499997
0.018530273437499998
0.023364257812499997
0.017724609375
0.023364257812499997
0.020947265625
0.0281982421875
0.022558593749999998
0.023364257812499997
0.024169921875
0.02578125
0.023364257812499997
0.023364257812499997
0.02578125
0.022558593749999998
0.8104980468749999
1.5315673828124998
2.2494140625
2.8391601562499997
3.0236572265625
3.0236572265625
3.0244628906249997
2.9463134765624996
2.9737060546875
2.8979736328124996
2.8528564453125
2.7432861328125
3.0244628906249997
3.021240234375
3.0252685546875
3.0220458984375
3.0252685546875
3.0252685546875
3.0252685546875
3.02607421875
0.02578125
0.023364257812499997
0.023364257812499997
0.026586914062499998
0.023364257812499997
0.027392578124999997
0.027392578124999997
0.024169921875
0.023364257812499997
0.01611328125
0.0217529296875
0.020947265625
0.022558593749999998
0.018530273437499998
0.023364257812499997
0.022558593749999998
0.024169921875
0.0217529296875
0.0217529296875
0.026586914062499998
0.022558593749999998
0.020947265625
0.717041015625
1.7104248046875
2.2534423828125
2.7126708984374996
2.947119140625
3.0220458984375
3.0188232421874996
3.027685546875
3.0268798828124996
3.01318359375
2.96162109375
2.8077392578125
3.02607421875
3.027685546875
3.027685546875
3.0244628906249997
3.02607421875
3.0268798828124996
3.0236572265625
3.0236572265625
0.5696044921875
0.0281982421875
0.023364257812499997
0.020947265625
0.02578125
0.026586914062499998
0.022558593749999998
0.0217529296875
0.024169921875
0.0217529296875
0.0201416015625
0.022558593749999998
0.020947265625
0.026586914062499998
0.022558593749999998
0.022558593749999998
0.019335937499999997
0.0217529296875
0.027392578124999997
0.022558593749999998
0.024169921875
0.0169189453125
0.66064453125
1.5984375
2.1503173828124997
2.56845703125
3.0228515624999996
3.0228515624999996
3.02607421875
3.021240234375
2.9422851562499996
3.0268798828124996
2.98095703125
2.8931396484375
2.795654296875
3.0244628906249997
3.0236572265625
3.0220458984375
3.0252685546875
3.02607421875
3.0244628906249997
3.0236572265625
2.08828125
0.022558593749999998
0.023364257812499997
0.022558593749999998
0.022558593749999998
0.024169921875
0.022558593749999998
0.018530273437499998
0.022558593749999998
0.022558593749999998
0.018530273437499998
0.022558593749999998
0.022558593749999998
0.02578125
0.026586914062499998
0.023364257812499997
0.022558593749999998
0.026586914062499998
0.023364257812499997
0.023364257812499997
0.023364257812499997
0.022558593749999998
0.022558593749999998
1.135986328125
1.8199951171875
2.26875
2.956787109375
3.0252685546875
3.0236572265625
3.0252685546875
2.856884765625
2.972900390625
2.9720947265624997
2.9334228515625
2.7803466796875
3.0236572265625
3.0252685546875
3.0252685546875
3.027685546875
3.029296875
3.0236572265625
3.0252685546875
1.8264404296874999
0.023364257812499997
0.022558593749999998
0.022558593749999998
0.023364257812499997
0.023364257812499997
0.0217529296875
0.022558593749999998
0.02900390625
0.023364257812499997
0.020947265625
0.024169921875
0.0169189453125
0.0249755859375
0.023364257812499997
0.0217529296875
0.026586914062499998
0.019335937499999997
0.022558593749999998
0.022558593749999998
0.023364257812499997
0.018530273437499998
0.022558593749999998
0.9071777343749999
1.635498046875
2.222021484375
2.698974609375
2.92294921875
3.0228515624999996
3.0268798828124996
3.0236572265625
3.021240234375
3.0075439453125
2.91328125
2.8617187499999996
3.0244628906249997
3.02607421875
3.0220458984375
3.02607421875
3.0252685546875
3.02607421875
3.0236572265625
3.021240234375
0.16838378906249998
0.0249755859375
0.024169921875
0.022558593749999998
0.022558593749999998
0.022558593749999998
0.022558593749999998
0.027392578124999997
0.023364257812499997
0.023364257812499997
0.0169189453125
0.018530273437499998
0.02578125
0.022558593749999998
0.023364257812499997
0.017724609375
0.018530273437499998
0.022558593749999998
0.0217529296875
0.022558593749999998
0.022558593749999998
0.018530273437499998
0.0217529296875
1.47275390625
2.015771484375
2.4355224609375
2.8850830078125
3.0252685546875
3.0244628906249997
3.0236572265625
2.8399658203125
2.99384765625
2.9173095703125
2.8536621093749996
2.7972656249999996
3.02607421875
3.0244628906249997
3.0236572265625
3.0252685546875
3.0236572265625
3.0236572265625
3.0244628906249997
1.1029541015625
0.02578125
0.022558593749999998
0.022558593749999998
0.022558593749999998
0.023364257812499997
0.026586914062499998
0.0281982421875
0.022558593749999998
0.0201416015625
0.0249755859375
0.0217529296875
0.022558593749999998
0.020947265625
0.017724609375
0.020947265625
0.023364257812499997
0.0217529296875
0.0217529296875
0.022558593749999998
0.019335937499999997
0.022558593749999998
0.0217529296875
1.3390136718749999
1.9698486328125
2.3912109375
3.02607421875
3.0252685546875
3.02607421875
3.0252685546875
2.96162109375
2.9503417968749996
2.9761230468749997
2.8754150390624997
2.7747070312499997
3.02607421875
3.0252685546875
3.0236572265625
3.0228515624999996
3.0252685546875
3.01962890625
3.0244628906249997
3.0268798828124996
0.0217529296875
0.023364257812499997
0.027392578124999997
0.0217529296875
0.02578125
0.0322265625
0.023364257812499997
0.023364257812499997
0.022558593749999998
0.023364257812499997
0.018530273437499998
0.022558593749999998
0.027392578124999997
0.0217529296875
0.018530273437499998
0.022558593749999998
0.023364257812499997
0.02578125
0.022558593749999998
0.022558593749999998
0.023364257812499997
0.027392578124999997
1.029638671875
1.7176757812499999
2.2115478515625
2.8496337890624996
2.6127685546875
3.0244628906249997
3.027685546875
3.0244628906249997
3.0252685546875
3.029296875
2.9503417968749996
2.8681640625
3.0244628906249997
3.027685546875
3.0252685546875
3.0252685546875
3.0236572265625
3.021240234375
3.02607421875
3.0252685546875
0.0217529296875
0.019335937499999997
0.023364257812499997
0.0201416015625
0.022558593749999998
0.023364257812499997
0.023364257812499997
0.026586914062499998
0.026586914062499998
0.026586914062499998
0.020947265625
0.022558593749999998
0.023364257812499997
0.022558593749999998
0.0169189453125
0.022558593749999998
0.0217529296875
0.0249755859375
0.0217529296875
0.019335937499999997
0.0249755859375
0.0201416015625
0.0394775390625
1.24716796875
1.94970703125
2.43955078125
2.892333984375
3.029296875
3.0252685546875
3.0252685546875
2.972900390625
2.9608154296875
2.972900390625
2.811767578125
3.0236572265625
3.0204345703124997
3.0228515624999996
3.02607421875
3.0252685546875
3.0236572265625
3.0244628906249997
3.02607421875
1.0417236328125
0.026586914062499998
0.0201416015625
0.0217529296875
0.022558593749999998
0.022558593749999998
0.019335937499999997
0.022558593749999998
0.0201416015625
0.022558593749999998
0.022558593749999998
0.022558593749999998
0.020947265625
0.019335937499999997
0.0249755859375
0.024169921875
0.023364257812499997
0.022558593749999998
0.022558593749999998
0.024169921875
0.019335937499999997
0.023364257812499997
0.0201416015625
1.1625732421875
2.015771484375
2.44921875
2.9914306640625
3.0228515624999996
3.021240234375
3.0244628906249997
2.9100585937499996
3.0268798828124996
3.0236572265625
2.9277832031249997
2.76826171875
3.0228515624999996
3.0236572265625
3.0252685546875
3.0228515624999996
3.027685546875
3.0252685546875
3.021240234375
2.2921142578125
0.022558593749999998
0.0201416015625
0.0217529296875
0.014501953125
0.0217529296875
0.0217529296875
0.02900390625
0.020947265625
0.023364257812499997
0.02578125
0.0201416015625
0.019335937499999997
0.024169921875
0.023364257812499997
0.0281982421875
0.022558593749999998
0.023364257812499997
0.022558593749999998
0.023364257812499997
0.023364257812499997
0.024169921875
0.0201416015625
1.164990234375
1.7458740234374999
2.1624023437499997
2.647412109375
3.0220458984375
3.02607421875
3.0268798828124996
3.0228515624999996
3.0252685546875
3.021240234375
2.9712890625
2.8472167968749997
3.02607421875
3.0252685546875
3.0284912109374997
3.0220458984375
3.027685546875
3.0228515624999996
3.029296875
3.0244628906249997
0.024169921875
0.022558593749999998
0.024169921875
0.022558593749999998
0.0217529296875
0.023364257812499997
0.0217529296875
0.022558593749999998
0.022558593749999998
0.024169921875
0.022558593749999998
0.019335937499999997
0.018530273437499998
0.017724609375
0.018530273437499998
0.022558593749999998
0.022558593749999998
0.02578125
0.020947265625
0.02578125
0.023364257812499997
0.027392578124999997
0.77666015625
1.5807128906249999
2.0826416015625
2.7521484375
3.0244628906249997
3.0228515624999996
3.0236572265625
3.02607421875
2.9430908203125
2.9769287109375
2.8899169921874996
2.8053222656249996
2.7755126953125
3.0252685546875
3.0228515624999996
3.0188232421874996
3.029296875
3.0236572265625
3.0252685546875
3.029296875
0.7049560546875
0.026586914062499998
0.0217529296875
0.024169921875
0.023364257812499997
0.020947265625
0.022558593749999998
0.019335937499999997
0.022558593749999998
0.023364257812499997
0.0169189453125
0.020947265625
0.022558593749999998
0.018530273437499998
0.018530273437499998
0.0217529296875
0.022558593749999998
0.018530273437499998
0.023364257812499997
0.0217529296875
0.023364257812499997
0.0249755859375
0.022558593749999998
1.1802978515625
1.9658203125
2.4161865234374997
2.8391601562499997
3.02607421875
3.0268798828124996
3.0228515624999996
2.9656494140625
3.0228515624999996
3.0228515624999996
2.937451171875
2.8528564453125
3.0244628906249997
3.02607421875
3.0244628906249997
3.0252685546875
3.0268798828124996
3.0244628906249997
3.0236572265625
1.5057861328125
0.022558593749999998
0.0217529296875
0.023364257812499997
0.0201416015625
0.022558593749999998
0.023364257812499997
0.0201416015625
0.026586914062499998
0.0217529296875
0.023364257812499997
0.024169921875
0.022558593749999998
0.020947265625
0.0281982421875
0.02900390625
0.023364257812499997
0.023364257812499997
0.0217529296875
0.0201416015625
0.0201416015625
0.0249755859375
0.023364257812499997
1.168212890625
1.9271484374999999
2.3420654296875
2.9559814453124997
3.01962890625
3.02607421875
3.0268798828124996
3.0244628906249997
3.0220458984375
3.0164062499999997
2.89072265625
2.8391601562499997
3.0252685546875
3.0252685546875
3.02607421875
3.0236572265625
3.0244628906249997
3.02607421875
3.0252685546875
3.02607421875
0.19013671875
0.024169921875
0.024169921875
0.024169921875
0.0201416015625
0.022558593749999998
0.017724609375
0.023364257812499997
0.018530273437499998
0.019335937499999997
0.024169921875
0.0249755859375
0.0217529296875
0.022558593749999998
0.0217529296875
0.026586914062499998
0.024169921875
0.022558593749999998
0.022558593749999998
0.022558593749999998
0.024169921875
0.0217529296875
0.75087890625
1.5275390624999998
2.0133544921874997
2.4886962890624997
2.91328125
3.027685546875
3.0252685546875
3.0244628906249997
2.9197265624999997
2.96484375
2.86494140625
2.8093505859374996
2.953564453125
3.0268798828124996
3.0284912109374997
3.02607421875
3.0244628906249997
3.02607421875
3.02607421875
3.0244628906249997
0.314208984375
0.023364257812499997
0.020947265625
0.022558593749999998
0.0217529296875
0.023364257812499997
0.024169921875
0.0201416015625
0.020947265625
0.022558593749999998
0.022558593749999998
0.022558593749999998
0.0169189453125
0.026586914062499998
0.017724609375
0.027392578124999997
0.0217529296875
0.024169921875
0.022558593749999998
0.022558593749999998
0.0217529296875
0.023364257812499997
0.019335937499999997
0.8435302734375
1.529150390625
2.183349609375
2.6449951171875
2.82626953125
3.0236572265625
3.0309082031249996
3.0236572265625
3.0301025390625
2.9914306640625
2.953564453125
2.8367431640625
3.0252685546875
3.0228515624999996
3.0252685546875
3.0188232421874996
3.0220458984375
3.0236572265625
3.02607421875
1.0868408203125
0.0217529296875
0.023364257812499997
0.023364257812499997
0.027392578124999997
0.023364257812499997
0.0217529296875
0.0281982421875
0.0169189453125
0.027392578124999997
0.030615234374999998
0.02900390625
0.020947265625
0.020947265625
0.0249755859375
0.0217529296875
0.022558593749999998
0.023364257812499997
0.020947265625
0.0217529296875
0.0217529296875
0.022558593749999998
0.023364257812499997
1.203662109375
2.064111328125
2.5338134765625
3.02607421875
3.0268798828124996
3.0244628906249997
3.029296875
2.9712890625
3.0123779296874997
3.0236572265625
2.9833740234375
2.8576904296874996
3.0236572265625
3.0268798828124996
3.0083496093749997
3.0244628906249997
3.02607421875
3.0244628906249997
3.02607421875
3.0309082031249996
0.022558593749999998
0.023364257812499997
0.02578125
0.020947265625
0.023364257812499997
0.022558593749999998
0.017724609375
0.02578125
0.023364257812499997
0.018530273437499998
0.022558593749999998
0.022558593749999998
0.022558593749999998
0.019335937499999997
0.023364257812499997
0.0217529296875
0.023364257812499997
0.0217529296875
0.0249755859375
0.022558593749999998
0.0169189453125
0.023364257812499997
0.46245117187499996
1.5702392578125
2.1140624999999997
2.582958984375
2.8657470703124996
3.0204345703124997
3.02607421875
2.985791015625
3.0027099609374996
3.0067382812499996
3.0010986328125
2.8270751953124997
3.0284912109374997
3.0252685546875
3.0236572265625
3.0252685546875
3.0204345703124997
3.0228515624999996
3.0244628906249997
3.027685546875
0.09023437499999999
0.026586914062499998
0.023364257812499997
0.023364257812499997
0.0217529296875
0.020947265625
0.022558593749999998
0.022558593749999998
0.022558593749999998
0.019335937499999997
0.019335937499999997
0.0217529296875
0.022558593749999998
0.0217529296875
0.0217529296875
0.0217529296875
0.022558593749999998
0.024169921875
0.023364257812499997
0.018530273437499998
0.019335937499999997
0.027392578124999997
0.02578125
0.9901611328125
1.52109375
2.0552490234375
2.3557617187499997
2.63291015625
2.9076416015624997
2.9414794921875
2.7610107421874996
2.8166015625
2.83271484375
2.6852783203125
2.5652343749999997
3.0244628906249997
3.0268798828124996
3.02607421875
3.0252685546875
3.0244628906249997
3.0228515624999996
3.0252685546875
0.0217529296875
0.023364257812499997
0.022558593749999998
0.023364257812499997
0.023364257812499997
0.022558593749999998
0.024169921875
0.017724609375
0.022558593749999998
0.022558593749999998
0.026586914062499998
0.023364257812499997
0.022558593749999998
0.023364257812499997
0.023364257812499997
0.0217529296875
0.023364257812499997
0.020947265625
0.02578125
0.023364257812499997
0.023364257812499997
0.02900390625
0.06767578125
0.149853515625
0.7218749999999999
1.5331787109375
2.1889892578125
2.4371337890625
2.6619140624999997
3.0244628906249997
2.8294921874999996
3.0252685546875
3.0284912109374997
2.9922363281249997
2.8754150390624997
3.0244628906249997
3.0252685546875
3.0252685546875
3.01962890625
3.0252685546875
3.0236572265625
3.0244628906249997
1.34384765625
