3.0228515624999996
3.01962890625
3.029296875
3.0244628906249997
3.0268798828124996
1.8659179687499998
0.9804931640625
0.0217529296875
0.027392578124999997
0.017724609375
0.017724609375
0.018530273437499998
0.027392578124999997
0.0249755859375
0.019335937499999997
0.02900390625
0.0217529296875
0.023364257812499997
0.023364257812499997
0.023364257812499997
0.023364257812499997
0.024169921875
0.022558593749999998
0.024169921875
0.0249755859375
0.02578125
0.1071533203125
1.0409179687499999
2.3726806640625
3.0284912109374997
3.027685546875
3.0268798828124996
3.027685546875
2.985791015625
2.985791015625
2.9076416015624997
2.753759765625
2.570068359375
2.441162109375
2.2276611328125
2.0987548828125
1.9956298828124999
3.0244628906249997
3.02607421875
3.0301025390625
3.0252685546875
3.018017578125
2.8931396484375
1.5734619140625
0.0281982421875
0.0281982421875
0.018530273437499998
0.023364257812499997
0.0201416015625
0.022558593749999998
0.023364257812499997
0.023364257812499997
0.023364257812499997
0.027392578124999997
0.024169921875
0.023364257812499997
0.0217529296875
0.0249755859375
0.02578125
0.023364257812499997
0.017724609375
0.022558593749999998
0.019335937499999997
0.078955078125
0.5180419921875
2.534619140625
3.0002929687499997
3.027685546875
3.0301025390625
3.029296875
3.02607421875
2.8931396484375
2.8617187499999996
2.650634765625
2.4903076171875
2.2566650390625
2.1551513671875
2.060888671875
1.9569580078125
3.0228515624999996
3.029296875
3.0301025390625
3.02607421875
3.029296875
3.0252685546875
1.513037109375
0.15629882812499998
0.023364257812499997
0.024169921875
0.018530273437499998
0.0217529296875
0.0217529296875
0.022558593749999998
0.019335937499999997
0.022558593749999998
0.019335937499999997
0.020947265625
0.023364257812499997
0.019335937499999997
0.022558593749999998
0.026586914062499998
0.011279296874999999
0.023364257812499997
0.0217529296875
0.024169921875
0.0652587890625
0.1716064453125
2.3275634765624997
2.9712890625
3.027685546875
3.0309082031249996
3.02607421875
3.02607421875
2.9189208984375
2.977734375
2.924560546875
2.5595947265624996
2.4113525390625
2.2921142578125
2.0488037109375
1.8441650390625
3.02607421875
3.0284912109374997
3.02607421875
3.02607421875
3.02607421875
3.0284912109374997
1.9070068359374999
0.733154296875
0.023364257812499997
0.02578125
0.023364257812499997
0.022558593749999998
0.0169189453125
0.022558593749999998
0.02900390625
0.022558593749999998
0.0281982421875
0.023364257812499997
0.019335937499999997
0.023364257812499997
0.020947265625
0.0249755859375
0.024169921875
0.022558593749999998
0.024169921875
0.022558593749999998
0.0394775390625
0.11440429687499999
1.6693359374999999
2.8657470703124996
3.0244628906249997
3.0301025390625
3.0244628906249997
3.0268798828124996
3.0244628906249997
3.0067382812499996
2.924560546875
2.6611083984375
2.521728515625
2.3017822265625
2.15595703125
2.0713623046875
3.0252685546875
3.021240234375
3.029296875
3.027685546875
3.0228515624999996
3.02607421875
2.4339111328125
0.7307373046875
0.023364257812499997
0.022558593749999998
0.022558593749999998
0.022558593749999998
0.019335937499999997
0.020947265625
0.0201416015625
0.022558593749999998
0.027392578124999997
0.022558593749999998
0.022558593749999998
0.022558593749999998
0.023364257812499997
0.027392578124999997
0.026586914062499998
0.0217529296875
0.024169921875
0.0217529296875
0.026586914062499998
0.0733154296875
1.4872558593749998
2.4983642578125
2.953564453125
3.029296875
3.0236572265625
3.02607421875
3.0317138671875
2.9205322265625
2.7561767578125
2.6530517578125
2.42666015625
2.2614990234375
2.1785156249999997
2.002880859375
3.0244628906249997
3.02607421875
3.0252685546875
3.0301025390625
3.0252685546875
3.02607421875
2.802099609375
1.3527099609375
0.02578125
0.023364257812499997
0.0217529296875
0.023364257812499997
0.022558593749999998
0.023364257812499997
0.018530273437499998
0.027392578124999997
0.019335937499999997
0.018530273437499998
0.0249755859375
0.023364257812499997
0.023364257812499997
0.0249755859375
0.018530273437499998
0.017724609375
0.024169921875
0.022558593749999998
0.0249755859375
0.11037597656249999
0.18691406249999998
2.1470947265625
2.8077392578125
3.0268798828124996
3.02607421875
3.0252685546875
3.0204345703124997
3.0228515624999996
3.0228515624999996
2.9116699218749997
2.6361328124999996
2.5410644531249997
2.3557617187499997
2.1704589843749997
1.9948242187499998
3.0252685546875
3.01962890625
3.0236572265625
3.02607421875
3.02607421875
3.021240234375
1.87236328125
0.378662109375
0.023364257812499997
0.0201416015625
0.022558593749999998
0.0201416015625
0.0249755859375
0.027392578124999997
0.019335937499999997
0.027392578124999997
0.022558593749999998
0.023364257812499997
0.0281982421875
0.023364257812499997
0.024169921875
0.023364257812499997
0.023364257812499997
0.0201416015625
0.02578125
0.024169921875
0.0652587890625
0.13857421875
1.6532226562499999
2.843994140625
3.02607421875
3.02607421875
3.0228515624999996
3.02607421875
3.0252685546875
2.9124755859375
2.8931396484375
2.6095458984374997
2.4766113281249997
2.3340087890625
2.2276611328125
2.0625
3.0284912109374997
3.02607421875
3.0244628906249997
3.0236572265625
3.0244628906249997
3.027685546875
2.3436767578124997
0.5260986328125
0.017724609375
0.026586914062499998
0.024169921875
0.024169921875
0.022558593749999998
0.023364257812499997
0.024169921875
0.022558593749999998
0.017724609375
0.0217529296875
0.023364257812499997
0.023364257812499997
0.022558593749999998
0.023364257812499997
0.02578125
0.022558593749999998
0.023364257812499997
0.0298095703125
0.041088867187499996
0.11923828125
1.9625976562499998
2.76826171875
3.02607421875
3.0236572265625
3.0236572265625
2.9366455078125
3.0236572265625
2.9712890625
2.8157958984375
2.6764160156249996
2.47177734375
2.3033935546874997
2.2107421874999997
2.0173828124999997
3.0236572265625
3.02607421875
3.027685546875
3.0309082031249996
3.0317138671875
3.0252685546875
2.54267578125
1.0755615234375
0.019335937499999997
0.023364257812499997
0.0281982421875
0.0217529296875
0.019335937499999997
0.023364257812499997
0.022558593749999998
0.019335937499999997
0.022558593749999998
0.01611328125
0.0217529296875
0.022558593749999998
0.022558593749999998
0.022558593749999998
0.022558593749999998
0.02578125
0.023364257812499997
0.0217529296875
0.024169921875
0.120849609375
0.19094238281249998
2.466943359375
3.0301025390625
3.0268798828124996
3.0268798828124996
3.0268798828124996
3.0333251953125
2.9986816406249996
2.9761230468749997
2.7448974609374996
2.5902099609375
2.4234375
2.2228271484374997
2.0971435546875
1.989990234375
3.0236572265625
3.021240234375
3.02607421875
3.0236572265625
3.02607421875
3.0252685546875
1.5919921874999998
0.026586914062499998
0.023364257812499997
0.027392578124999997
0.024169921875
0.0281982421875
0.027392578124999997
0.0217529296875
0.024169921875
0.024169921875
0.0217529296875
0.024169921875
0.022558593749999998
0.023364257812499997
0.022558593749999998
0.02578125
0.0217529296875
0.023364257812499997
0.022558593749999998
0.02900390625
0.059619140625
0.1353515625
2.4443847656249997
2.9801513671874997
3.02607421875
3.0228515624999996
3.0252685546875
3.02607421875
2.92939453125
2.8512451171874997
2.6603027343749996
2.528173828125
2.3565673828125
2.18173828125
2.0568603515625
1.957763671875
3.0244628906249997
3.029296875
3.02607421875
3.0252685546875
3.02607421875
3.0268798828124996
1.4598632812499999
0.153076171875
0.022558593749999998
0.022558593749999998
0.018530273437499998
0.0217529296875
0.022558593749999998
0.018530273437499998
0.023364257812499997
0.019335937499999997
0.022558593749999998
0.022558593749999998
0.022558593749999998
0.026586914062499998
0.022558593749999998
0.022558593749999998
0.023364257812499997
0.023364257812499997
0.023364257812499997
0.030615234374999998
0.072509765625
0.175634765625
2.112451171875
2.8625244140625
3.027685546875
3.0252685546875
3.0252685546875
3.0268798828124996
2.9664550781249996
2.9205322265625
2.8472167968749997
2.6119628906249996
2.46533203125
2.3759033203124997
2.086669921875
1.98837890625
3.0228515624999996
3.0244628906249997
3.021240234375
3.0252685546875
3.0244628906249997
3.02607421875
1.7845458984375
0.8926757812499999
0.0217529296875
0.023364257812499997
0.022558593749999998
0.0249755859375
0.022558593749999998
0.017724609375
0.0249755859375
0.023364257812499997
0.0217529296875
0.0281982421875
0.022558593749999998
0.023364257812499997
0.0217529296875
0.023364257812499997
0.026586914062499998
0.0217529296875
0.022558593749999998
0.01611328125
0.04833984375
0.1297119140625
1.960986328125
2.7996826171875
3.0301025390625
3.0252685546875
3.027685546875
3.02607421875
2.972900390625
3.0067382812499996
2.9833740234375
2.7585937499999997
2.5902099609375
2.3936279296875
2.212353515625
2.02705078125
2.9986816406249996
3.02607421875
3.0252685546875
3.0236572265625
3.027685546875
3.0228515624999996
2.6820556640624997
0.7259033203124999
0.024169921875
0.019335937499999997
0.0201416015625
0.022558593749999998
0.0249755859375
0.023364257812499997
0.0249755859375
0.022558593749999998
0.02578125
0.024169921875
0.0249755859375
0.023364257812499997
0.018530273437499998
0.0217529296875
0.023364257812499997
0.022558593749999998
0.02578125
0.0217529296875
0.024169921875
0.09345703124999999
1.7458740234374999
2.68125
3.0244628906249997
3.0268798828124996
3.02607421875
3.02607421875
3.0075439453125
2.9334228515625
2.8552734374999997
2.6619140624999997
2.505615234375
2.36220703125
2.289697265625
2.1720703125
2.5209228515624997
3.0284912109374997
3.0301025390625
3.0309082031249996
3.02607421875
3.0252685546875
2.7771240234374996
1.2987304687499999
0.023364257812499997
0.0249755859375
0.023364257812499997
0.023364257812499997
0.022558593749999998
0.027392578124999997
0.020947265625
0.024169921875
0.024169921875
0.022558593749999998
0.023364257812499997
0.023364257812499997
0.020947265625
0.023364257812499997
0.023364257812499997
0.026586914062499998
0.020947265625
0.024169921875
0.022558593749999998
0.09345703124999999
0.167578125
2.263916015625
2.963232421875
3.02607421875
3.0228515624999996
3.0268798828124996
3.02607421875
3.0236572265625
3.0244628906249997
2.7408691406249996
2.6216308593749997
2.4556640625
2.2832519531249997
2.0842529296875
1.8731689453125
3.0301025390625
3.0268798828124996
3.0204345703124997
3.0244628906249997
3.0228515624999996
3.0252685546875
1.7410400390624998
0.5051513671875
0.0201416015625
0.024169921875
0.027392578124999997
0.0217529296875
0.024169921875
0.0201416015625
0.020947265625
0.023364257812499997
0.024169921875
0.024169921875
0.023364257812499997
0.023364257812499997
0.023364257812499997
0.022558593749999998
0.02578125
0.02900390625
0.023364257812499997
0.026586914062499998
0.050756835937499994
0.124072265625
1.5202880859374999
2.6748046875
3.029296875
3.021240234375
3.0236572265625
3.0268798828124996
3.0228515624999996
2.9422851562499996
2.8874999999999997
2.6047119140625
2.431494140625
2.2590820312499997
2.1720703125
2.0197998046875
3.0236572265625
3.0252685546875
3.0220458984375
3.0244628906249997
3.0252685546875
3.0236572265625
2.3726806640625
0.5551025390625
0.024169921875
0.024169921875
0.020947265625
0.0217529296875
0.020947265625
0.0281982421875
0.023364257812499997
0.027392578124999997
0.027392578124999997
0.023364257812499997
0.019335937499999997
0.0217529296875
0.027392578124999997
0.017724609375
0.023364257812499997
0.018530273437499998
0.019335937499999997
0.020947265625
0.0708984375
0.14421386718749998
1.6169677734374999
2.81015625
3.029296875
3.027685546875
3.0252685546875
3.0172119140625
2.98095703125
2.9028076171875
2.7932373046874996
2.62646484375
2.39443359375
2.30419921875
2.1632080078125
2.03671875
3.0244628906249997
3.0268798828124996
3.0268798828124996
3.029296875
3.0204345703124997
3.0244628906249997
2.6369384765625
1.1609619140625
0.022558593749999998
0.026586914062499998
0.02578125
0.023364257812499997
0.027392578124999997
0.022558593749999998
0.023364257812499997
0.02578125
0.01611328125
0.022558593749999998
0.022558593749999998
0.018530273437499998
0.024169921875
0.020947265625
0.022558593749999998
0.0201416015625
0.02578125
0.023364257812499997
0.043505859375
0.14824218749999998
0.5260986328125
2.4129638671875
3.027685546875
3.0252685546875
3.0309082031249996
3.0252685546875
3.0244628906249997
3.0164062499999997
2.9970703125
2.6836669921875
2.602294921875
2.4290771484375
2.209130859375
2.070556640625
1.9303710937499998
3.0284912109374997
3.027685546875
3.02607421875
3.027685546875
3.02607421875
3.0252685546875
1.5879638671874998
0.022558593749999998
0.022558593749999998
0.022558593749999998
0.024169921875
0.022558593749999998
0.022558593749999998
0.022558593749999998
0.018530273437499998
0.019335937499999997
0.018530273437499998
0.023364257812499997
0.026586914062499998
0.023364257812499997
0.022558593749999998
0.026586914062499998
0.023364257812499997
0.023364257812499997
0.020947265625
0.02900390625
0.0990966796875
0.1740234375
2.2429687499999997
2.8955566406249997
3.0284912109374997
3.0244628906249997
3.029296875
3.02607421875
2.96484375
2.8738037109374996
2.792431640625
2.5692626953124997
2.402490234375
2.2727783203125
2.126953125
1.9795166015624999
3.02607421875
3.02607421875
3.027685546875
3.0244628906249997
3.0252685546875
3.0236572265625
1.5847412109374999
0.2650634765625
0.024169921875
0.023364257812499997
0.023364257812499997
0.0169189453125
0.023364257812499997
0.0201416015625
0.0249755859375
0.024169921875
0.022558593749999998
0.020947265625
0.0169189453125
0.02578125
0.018530273437499998
0.023364257812499997
0.027392578124999997
0.020947265625
0.0281982421875
0.023364257812499997
0.088623046875
0.1893310546875
1.9787109374999998
2.7400634765625
3.0301025390625
3.0309082031249996
3.0268798828124996
3.0228515624999996
2.9181152343749996
2.89072265625
2.640966796875
2.5015869140625
2.4306884765625
2.270361328125
2.1140624999999997
1.8900878906249998
3.0268798828124996
3.02607421875
3.0252685546875
3.02607421875
3.02607421875
3.0268798828124996
1.998046875
0.9474609374999999
0.023364257812499997
0.022558593749999998
0.024169921875
0.023364257812499997
0.022558593749999998
0.019335937499999997
0.022558593749999998
0.027392578124999997
0.0249755859375
0.023364257812499997
0.02578125
0.026586914062499998
0.0249755859375
0.019335937499999997
0.02578125
0.022558593749999998
0.0217529296875
0.027392578124999997
0.127294921875
0.198193359375
2.0254394531249997
2.977734375
3.0244628906249997
3.0301025390625
3.0220458984375
3.029296875
2.9390625
3.0236572265625
2.900390625
2.695751953125
2.5048095703124997
2.3323974609375
2.1696533203125
2.02060546875
2.6949462890625
3.0244628906249997
3.021240234375
3.0244628906249997
3.0228515624999996
3.0244628906249997
2.4363281249999997
1.03447265625
0.023364257812499997
0.022558593749999998
0.018530273437499998
0.023364257812499997
0.0281982421875
0.018530273437499998
0.0281982421875
0.0249755859375
0.023364257812499997
0.023364257812499997
0.024169921875
0.023364257812499997
0.0169189453125
0.0217529296875
0.023364257812499997
0.023364257812499997
0.017724609375
0.0281982421875
0.040283203125
0.104736328125
1.94970703125
2.5724853515625
3.02607421875
3.0244628906249997
3.0220458984375
3.0244628906249997
3.0268798828124996
3.0228515624999996
2.9906249999999996
2.7771240234374996
2.6119628906249996
2.4766113281249997
2.358984375
2.1543457031249997
2.2453857421875
3.02607421875
3.02607421875
3.0325195312499997
3.0236572265625
3.029296875
2.905224609375
1.4526123046875
0.018530273437499998
0.023364257812499997
0.023364257812499997
0.0201416015625
0.020947265625
0.023364257812499997
0.0249755859375
0.024169921875
0.0201416015625
0.0249755859375
0.0217529296875
0.018530273437499998
0.023364257812499997
0.019335937499999997
0.0281982421875
0.022558593749999998
0.02578125
0.022558593749999998
0.024169921875
0.0604248046875
0.13615722656249998
2.0117431640625
2.7432861328125
3.02607421875
3.02607421875
3.029296875
3.0228515624999996
2.9882080078124997
2.9358398437499997
2.8214355468749996
2.5692626953124997
2.3742919921875
2.2236328125
1.9940185546875
1.8820312499999998
3.0252685546875
3.02607421875
3.0301025390625
3.0228515624999996
3.02607421875
3.0244628906249997
1.783740234375
0.6493652343749999
0.024169921875
0.024169921875
0.0281982421875
0.022558593749999998
0.023364257812499997
0.017724609375
0.0217529296875
0.023364257812499997
0.0169189453125
0.023364257812499997
0.0217529296875
0.020947265625
0.0281982421875
0.0249755859375
0.024169921875
0.023364257812499997
0.023364257812499997
0.0249755859375
0.0717041015625
0.15468749999999998
1.7096191406249999
2.86494140625
3.0268798828124996
3.0252685546875
3.0236572265625
3.029296875
3.0268798828124996
2.9326171875
2.9326171875
2.65869140625
2.5692626953124997
2.370263671875
2.2405517578125
2.10439453125
3.0268798828124996
3.0244628906249997
3.0236572265625
3.0252685546875
3.0220458984375
3.02607421875
2.11083984375
0.6324462890625
0.018530273437499998
0.020947265625
0.027392578124999997
0.024169921875
0.023364257812499997
0.0217529296875
0.022558593749999998
0.02578125
0.023364257812499997
0.01611328125
0.023364257812499997
0.023364257812499997
0.024169921875
0.0249755859375
0.020947265625
0.0201416015625
0.023364257812499997
0.0281982421875
0.0314208984375
0.10554199218749999
1.5275390624999998
2.634521484375
2.963232421875
3.0268798828124996
3.029296875
3.0252685546875
3.027685546875
2.9430908203125
2.882666015625
2.711865234375
2.5394531249999996
2.386376953125
2.25263671875
2.018994140625
3.021240234375
3.0252685546875
3.0244628906249997
3.0268798828124996
3.0252685546875
3.0244628906249997
2.6095458984374997
1.1666015625
0.0281982421875
0.024169921875
0.027392578124999997
0.019335937499999997
0.026586914062499998
0.023364257812499997
0.022558593749999998
0.023364257812499997
0.0201416015625
0.024169921875
0.023364257812499997
0.022558593749999998
0.023364257812499997
0.0249755859375
0.0217529296875
0.018530273437499998
0.017724609375
0.023364257812499997
0.0249755859375
0.107958984375
1.3607666015625
2.3291748046875
3.0284912109374997
3.0268798828124996
3.0220458984375
3.0284912109374997
3.0244628906249997
2.9785400390624996
2.8721923828125
2.6885009765624996
2.537841796875
2.3581787109375
2.08828125
1.8884765625
1.7603759765625
3.0228515624999996
3.02607421875
3.0268798828124996
3.0204345703124997
3.029296875
3.0268798828124996
1.7490966796874998
0.14018554687499998
0.026586914062499998
0.0201416015625
0.024169921875
0.023364257812499997
0.023364257812499997
0.022558593749999998
0.024169921875
0.023364257812499997
0.023364257812499997
0.0201416015625
0.022558593749999998
0.022558593749999998
0.022558593749999998
0.0217529296875
0.023364257812499997
0.02900390625
0.027392578124999997
0.027392578124999997
0.10554199218749999
0.1780517578125
2.3485107421875
2.89716796875
3.0252685546875
3.0284912109374997
3.0244628906249997
3.0268798828124996
2.9785400390624996
2.9342285156249996
2.81015625
2.6055175781249997
2.36220703125
2.1841552734375
2.0600830078125
1.8812255859375
3.0252685546875
3.0268798828124996
3.0252685546875
3.02607421875
3.02607421875
3.0268798828124996
1.7466796875
0.41330566406249997
0.022558593749999998
0.022558593749999998
0.02578125
0.023364257812499997
0.02900390625
0.0298095703125
0.023364257812499997
0.022558593749999998
0.023364257812499997
0.022558593749999998
0.02900390625
0.024169921875
0.0249755859375
0.023364257812499997
0.0217529296875
0.022558593749999998
0.022558593749999998
0.024169921875
0.08217773437499999
0.18449707031249998
1.9440673828125
2.715087890625
3.0252685546875
3.0244628906249997
3.029296875
3.0204345703124997
2.9801513671874997
2.9447021484375
2.7658447265625
2.560400390625
2.386376953125
2.3178955078125
2.22041015625
2.03671875
3.0309082031249996
3.0252685546875
3.02607421875
3.0252685546875
3.02607421875
3.021240234375
1.8900878906249998
0.9531005859374999
0.022558593749999998
0.0201416015625
0.020947265625
0.030615234374999998
0.022558593749999998
0.0217529296875
0.020947265625
0.023364257812499997
0.022558593749999998
0.022558593749999998
0.027392578124999997
0.018530273437499998
0.023364257812499997
0.02578125
0.0217529296875
0.023364257812499997
0.017724609375
0.0281982421875
0.0829833984375
0.15791015625
1.5404296874999999
2.76181640625
3.0244628906249997
3.0228515624999996
3.02607421875
3.02607421875
2.840771484375
2.9302001953124996
2.8423828125
2.618408203125
2.4355224609375
2.260693359375
2.0625
1.9271484374999999
2.4693603515625
3.0268798828124996
3.0244628906249997
3.0268798828124996
3.0284912109374997
3.0204345703124997
2.8294921874999996
1.0385009765625
0.023364257812499997
0.024169921875
0.022558593749999998
0.023364257812499997
0.017724609375
0.019335937499999997
0.023364257812499997
0.0217529296875
0.019335937499999997
0.022558593749999998
0.02900390625
0.027392578124999997
0.0217529296875
0.027392578124999997
0.02578125
0.0249755859375
0.024169921875
0.02578125
0.0765380859375
0.14824218749999998
1.63388671875
2.3662353515625
2.8319091796875
3.0244628906249997
3.0228515624999996
3.029296875
3.0236572265625
3.011572265625
2.9277832031249997
2.8423828125
2.56845703125
2.4419677734375
2.3485107421875
2.212353515625
2.309033203125
3.02607421875
3.0252685546875
3.0244628906249997
3.02607421875
3.0268798828124996
2.8705810546875
1.5025634765625
0.024169921875
0.0249755859375
0.027392578124999997
0.022558593749999998
0.024169921875
0.02578125
0.0201416015625
0.020947265625
0.018530273437499998
0.024169921875
0.023364257812499997
0.023364257812499997
0.02578125
0.0217529296875
0.019335937499999997
0.019335937499999997
0.026586914062499998
0.019335937499999997
0.0346435546875
0.111181640625
0.207861328125
2.183349609375
2.8673583984374997
3.027685546875
3.0252685546875
3.0268798828124996
3.021240234375
2.931005859375
2.9261718749999996
2.7674560546875
2.5982666015625
2.447607421875
2.292919921875
2.1615966796875
2.0117431640625
3.0252685546875
3.029296875
3.027685546875
3.0252685546875
3.021240234375
3.0244628906249997
1.7217041015624999
0.6743408203125
0.023364257812499997
0.022558593749999998
0.0249755859375
0.023364257812499997
0.02578125
0.027392578124999997
0.024169921875
0.020947265625
0.024169921875
0.023364257812499997
0.022558593749999998
0.023364257812499997
0.023364257812499997
0.022558593749999998
0.023364257812499997
0.023364257812499997
0.0217529296875
0.019335937499999997
0.08942871093749999
0.16435546874999998
1.8755859375
2.969677734375
3.027685546875
3.02607421875
3.029296875
3.0301025390625
3.01962890625
2.9116699218749997
2.85849609375
2.6216308593749997
2.4951416015624996
2.2905029296875
2.151123046875
2.0616943359374997
3.0228515624999996
3.0268798828124996
3.0228515624999996
3.02607421875
3.0284912109374997
3.02607421875
2.0536376953124997
0.66064453125
0.0249755859375
0.022558593749999998
0.023364257812499997
0.02578125
0.0249755859375
0.022558593749999998
0.026586914062499998
0.023364257812499997
0.022558593749999998
0.022558593749999998
0.027392578124999997
0.023364257812499997
0.018530273437499998
0.024169921875
0.0217529296875
0.004833984374999999
0.0217529296875
0.024169921875
0.040283203125
0.11279296875
1.5283447265624999
2.6562744140624996
3.0268798828124996
3.0252685546875
3.0268798828124996
3.02607421875
2.9785400390624996
2.9447021484375
2.8689697265625
2.615185546875
2.4838623046875
2.29775390625
2.10439453125
2.0173828124999997
3.0252685546875
3.029296875
3.02607421875
3.0244628906249997
3.02607421875
3.0252685546875
2.642578125
1.2431396484375
0.026586914062499998
0.0169189453125
0.02900390625
0.026586914062499998
0.023364257812499997
0.020947265625
0.018530273437499998
0.020947265625
0.0201416015625
0.022558593749999998
0.023364257812499997
0.0249755859375
0.022558593749999998
0.023364257812499997
0.0394775390625
0.017724609375
0.022558593749999998
0.018530273437499998
0.033032226562499996
0.1313232421875
1.6830322265625
2.44921875
3.0220458984375
3.0244628906249997
3.0268798828124996
3.0268798828124996
3.0244628906249997
2.9342285156249996
2.92294921875
2.6852783203125
2.421826171875
2.3211181640625
2.0842529296875
2.08505859375
1.9086181640625
3.0252685546875
3.0317138671875
3.0236572265625
3.0244628906249997
3.0244628906249997
3.0309082031249996
1.6645019531249998
0.33354492187499996
0.024169921875
0.023364257812499997
0.018530273437499998
0.022558593749999998
0.024169921875
0.027392578124999997
0.0281982421875
0.023364257812499997
0.022558593749999998
0.023364257812499997
0.020947265625
0.023364257812499997
0.023364257812499997
0.024169921875
0.022558593749999998
0.020947265625
0.023364257812499997
0.026586914062499998
0.09426269531249999
0.169189453125
2.0778076171874997
3.029296875
3.0252685546875
3.0244628906249997
3.0236572265625
3.0268798828124996
3.0244628906249997
3.0252685546875
2.8230468749999997
2.505615234375
2.3533447265625
2.2244384765625
2.044775390625
1.8763916015625
3.0236572265625
3.0244628906249997
3.02607421875
3.0244628906249997
3.02607421875
3.02607421875
1.8602783203125
0.33193359375
0.0217529296875
0.027392578124999997
0.023364257812499997
0.0281982421875
0.022558593749999998
0.019335937499999997
0.0249755859375
0.02578125
0.020947265625
0.022558593749999998
0.0217529296875
0.017724609375
0.02578125
0.023364257812499997
0.023364257812499997
0.023364257812499997
0.023364257812499997
0.024169921875
0.050756835937499994
0.12810058593749998
1.69833984375
2.6385498046875
2.908447265625
3.02607421875
3.02607421875
3.0252685546875
3.0244628906249997
3.0236572265625
2.947119140625
2.7545654296874997
2.5168945312499997
2.3968505859375
2.2437744140625
2.018994140625
3.02607421875
3.0220458984375
3.0252685546875
3.0236572265625
3.021240234375
3.02607421875
1.7200927734375
0.8499755859375
0.022558593749999998
0.0249755859375
0.024169921875
0.022558593749999998
0.024169921875
0.02578125
0.022558593749999998
0.020947265625
0.0201416015625
0.023364257812499997
0.0201416015625
0.0217529296875
0.0249755859375
0.018530273437499998
0.023364257812499997
0.019335937499999997
0.0217529296875
0.023364257812499997
0.0378662109375
0.1409912109375
1.5073974609374998
2.434716796875
2.95517578125
3.02607421875
3.0252685546875
3.029296875
2.9656494140625
3.021240234375
2.89072265625
2.719921875
2.47177734375
2.30419921875
2.02705078125
1.9593749999999999
2.44921875
3.029296875
3.0220458984375
3.0236572265625
3.029296875
3.0268798828124996
2.8399658203125
1.5887695312499999
0.024169921875
0.019335937499999997
0.023364257812499997
0.017724609375
0.024169921875
0.0217529296875
0.024169921875
0.0281982421875
0.019335937499999997
0.0217529296875
0.022558593749999998
0.026586914062499998
0.0201416015625
0.0217529296875
0.023364257812499997
0.0201416015625
0.024169921875
0.026586914062499998
0.056396484375
0.130517578125
0.21269531249999998
2.54267578125
3.02607421875
3.0244628906249997
3.0268798828124996
3.02607421875
3.0284912109374997
3.0252685546875
2.977734375
2.8818603515624996
2.6079345703124996
2.4258544921875
2.3485107421875
2.1567626953125
1.9843505859375
3.02607421875
3.0284912109374997
3.0244628906249997
3.0156005859375
3.0268798828124996
3.0236572265625
1.5138427734375
0.0394775390625
0.024169921875
0.027392578124999997
0.0249755859375
0.024169921875
0.0169189453125
0.026586914062499998
0.0217529296875
0.027392578124999997
0.022558593749999998
0.022558593749999998
0.020947265625
0.0201416015625
0.0217529296875
0.027392578124999997
0.017724609375
0.020947265625
0.023364257812499997
0.024169921875
0.062841796875
0.08540039062499999
2.2953369140624997
3.02607421875
3.0244628906249997
3.0244628906249997
3.02607421875
3.0268798828124996
2.947119140625
3.0123779296874997
2.753759765625
2.6208251953125
2.4919189453125
2.3033935546874997
2.2196044921875
1.9432617187499999
3.0220458984375
3.02607421875
3.0244628906249997
3.0244628906249997
3.0228515624999996
3.0252685546875
1.5799072265624998
0.64453125
0.019335937499999997
0.0249755859375
0.0217529296875
0.023364257812499997
0.018530273437499998
0.023364257812499997
0.0201416015625
0.019335937499999997
0.0217529296875
0.0249755859375
0.018530273437499998
0.022558593749999998
0.022558593749999998
0.019335937499999997
0.022558593749999998
0.023364257812499997
0.02578125
0.024169921875
0.026586914062499998
0.1232666015625
1.4284423828125
2.5096435546875
2.96162109375
3.0268798828124996
3.0284912109374997
3.0228515624999996
3.0099609375
2.8754150390624997
2.85205078125
2.578125
2.4943359375
2.273583984375
2.17529296875
2.0576660156249997
3.0317138671875
3.0268798828124996
3.0301025390625
3.0268798828124996
3.0244628906249997
3.021240234375
2.5160888671875
1.1851318359375
0.0217529296875
0.022558593749999998
0.022558593749999998
0.0249755859375
0.023364257812499997
0.023364257812499997
0.022558593749999998
0.0249755859375
0.017724609375
0.019335937499999997
0.018530273437499998
0.018530273437499998
0.022558593749999998
0.0217529296875
0.020947265625
0.023364257812499997
0.0217529296875
0.023364257812499997
0.0580078125
0.133740234375
0.21591796875
2.776318359375
3.0244628906249997
3.02607421875
3.02607421875
3.027685546875
3.0244628906249997
2.9986816406249996
2.995458984375
2.7747070312499997
2.6578857421874997
2.4774169921875
2.328369140625
2.160791015625
2.0576660156249997
3.0252685546875
3.0268798828124996
3.0268798828124996
3.0268798828124996
3.0252685546875
3.0244628906249997
1.2181640624999999
0.022558593749999998
0.023364257812499997
0.0217529296875
0.024169921875
0.023364257812499997
0.0281982421875
0.022558593749999998
0.019335937499999997
0.024169921875
0.018530273437499998
0.023364257812499997
0.020947265625
0.022558593749999998
0.020947265625
0.018530273437499998
0.024169921875
0.023364257812499997
0.024169921875
0.024169921875
0.053173828124999996
1.3801025390625
2.4758056640625
2.9914306640625
3.021240234375
3.0252685546875
3.0099609375
3.021240234375
2.8794433593749997
2.7916259765625
2.6176025390624997
2.3404541015625
2.32998046875
2.165625
2.096337890625
1.90458984375
3.0252685546875
3.0228515624999996
3.0309082031249996
3.02607421875
3.0284912109374997
3.027685546875
1.5847412109374999
0.3472412109375
0.0217529296875
0.023364257812499997
0.017724609375
0.022558593749999998
0.019335937499999997
0.024169921875
0.017724609375
0.022558593749999998
0.022558593749999998
0.024169921875
0.023364257812499997
0.022558593749999998
0.023364257812499997
0.0217529296875
0.023364257812499997
0.0217529296875
0.023364257812499997
0.018530273437499998
0.049145507812499996
0.15871582031249998
1.8103271484374999
2.7432861328125
3.0268798828124996
3.0252685546875
3.0252685546875
3.0228515624999996
2.96484375
2.9737060546875
2.866552734375
2.5757080078124996
2.39765625
2.33642578125
2.1301757812499997
1.8796142578125
3.0204345703124997
3.0244628906249997
3.02607421875
3.0252685546875
3.0236572265625
3.02607421875
1.8586669921874999
0.9071777343749999
0.027392578124999997
0.022558593749999998
0.019335937499999997
0.023364257812499997
0.022558593749999998
0.024169921875
0.018530273437499998
0.022558593749999998
0.026586914062499998
0.0169189453125
0.024169921875
0.0249755859375
0.023364257812499997
0.0249755859375
0.022558593749999998
0.02900390625
0.023364257812499997
0.0281982421875
0.0580078125
0.1377685546875
2.08505859375
2.795654296875
3.0244628906249997
3.0252685546875
3.029296875
3.027685546875
2.8351318359374997
3.0204345703124997
2.98740234375
2.7722900390625
2.560400390625
2.338037109375
2.1704589843749997
2.0689453125
2.6232421875
3.0244628906249997
3.02607421875
3.0252685546875
3.0268798828124996
3.0284912109374997
2.785986328125
0.9676025390624999
0.023364257812499997
0.024169921875
0.0249755859375
0.022558593749999998
0.024169921875
0.026586914062499998
0.02578125
0.0217529296875
0.02578125
0.017724609375
0.0298095703125
0.022558593749999998
0.023364257812499997
0.0249755859375
0.0201416015625
0.023364257812499997
0.022558593749999998
0.0281982421875
0.027392578124999997
0.0990966796875
1.7853515624999998
2.602294921875
3.0252685546875
3.0268798828124996
3.02607421875
3.021240234375
3.0002929687499997
2.9302001953124996
2.81982421875
2.7352294921875
2.5088378906249997
2.2292724609375
2.273583984375
2.0979492187499997
2.109228515625
3.0252685546875
3.0244628906249997
3.021240234375
3.02607421875
3.0252685546875
2.9914306640625
1.3857421875
0.0217529296875
0.022558593749999998
0.026586914062499998
0.015307617187499999
0.026586914062499998
0.022558593749999998
0.022558593749999998
0.023364257812499997
0.027392578124999997
0.022558593749999998
0.023364257812499997
0.024169921875
0.0169189453125
0.022558593749999998
0.023364257812499997
0.024169921875
0.017724609375
0.023364257812499997
0.023364257812499997
0.0717041015625
0.17724609375
2.0625
2.7521484375
3.0236572265625
3.0268798828124996
3.0236572265625
3.0284912109374997
3.018017578125
3.0252685546875
2.98095703125
2.6288818359375
2.49755859375
2.3839599609374997
2.0729736328125
1.8747802734374999
3.0244628906249997
3.0252685546875
3.0252685546875
3.02607421875
3.0220458984375
3.0284912109374997
1.832080078125
0.64775390625
0.023364257812499997
0.022558593749999998
0.022558593749999998
0.022558593749999998
0.0217529296875
0.0217529296875
0.023364257812499997
0.022558593749999998
0.027392578124999997
0.023364257812499997
0.026586914062499998
0.024169921875
0.0249755859375
0.018530273437499998
0.026586914062499998
0.022558593749999998
0.023364257812499997
0.0281982421875
0.07009277343749999
0.146630859375
1.482421875
2.7400634765625
3.027685546875
3.02607421875
3.0252685546875
3.0252685546875
3.0252685546875
2.937451171875
2.8560791015625
2.5692626953124997
2.5072265624999996
2.358984375
2.2002685546875
2.0818359374999997
3.0228515624999996
3.0301025390625
3.02607421875
3.0244628906249997
3.02607421875
3.02607421875
2.5313964843749996
0.6276123046875
0.027392578124999997
0.023364257812499997
0.023364257812499997
0.023364257812499997
0.0217529296875
0.022558593749999998
0.018530273437499998
0.024169921875
0.0217529296875
0.024169921875
0.018530273437499998
0.018530273437499998
0.022558593749999998
0.0217529296875
0.023364257812499997
0.024169921875
0.023364257812499997
0.023364257812499997
0.058813476562499994
0.133740234375
1.4848388671875
2.6055175781249997
2.995458984375
3.02607421875
3.02607421875
3.02607421875
3.0244628906249997
2.9970703125
2.9745117187499996
2.7489257812499996
2.49755859375
2.3662353515625
2.1873779296875
2.054443359375
3.0268798828124996
3.02607421875
3.029296875
3.0301025390625
3.0220458984375
3.0309082031249996
3.02607421875
1.2528076171875
0.0217529296875
0.023364257812499997
0.018530273437499998
0.0298095703125
0.0249755859375
0.022558593749999998
0.022558593749999998
0.0249755859375
0.0201416015625
0.023364257812499997
0.0249755859375
0.024169921875
0.018530273437499998
0.022558593749999998
0.0217529296875
0.023364257812499997
0.027392578124999997
0.023364257812499997
0.037060546874999996
0.107958984375
0.20625
2.2187988281249997
2.8576904296874996
3.0252685546875
3.0268798828124996
3.0268798828124996
3.0236572265625
3.0252685546875
3.0244628906249997
2.9140869140624996
2.5531494140624997
2.4661376953125
2.305810546875
2.118896484375
2.0431640625
3.0252685546875
3.0252685546875
3.021240234375
3.02607421875
3.0309082031249996
3.0301025390625
1.658056640625
0.35690917968749997
0.019335937499999997
0.0217529296875
0.024169921875
0.02578125
0.027392578124999997
0.023364257812499997
0.022558593749999998
0.019335937499999997
0.022558593749999998
0.026586914062499998
0.024169921875
0.023364257812499997
0.0217529296875
0.023364257812499997
0.019335937499999997
0.022558593749999998
0.017724609375
0.022558593749999998
0.058813476562499994
0.15871582031249998
1.8635009765625
2.785986328125
3.0252685546875
3.0236572265625
2.9769287109375
3.0236572265625
2.8874999999999997
2.9422851562499996
2.8206298828125
2.4886962890624997
2.33642578125
2.2373291015625
2.0584716796875
1.9102294921874998
3.02607421875
3.0252685546875
3.0244628906249997
3.0244628906249997
3.02607421875
3.0228515624999996
2.015771484375
0.9289306640624999
0.023364257812499997
0.018530273437499998
0.024169921875
0.023364257812499997
0.020947265625
0.023364257812499997
0.018530273437499998
0.0217529296875
0.023364257812499997
0.026586914062499998
0.027392578124999997
0.020947265625
0.023364257812499997
0.02578125
0.022558593749999998
0.0281982421875
0.0217529296875
0.024169921875
0.056396484375
0.16032714843749998
1.6290527343749999
2.5160888671875
3.0244628906249997
3.0228515624999996
3.02607421875
3.0252685546875
2.8866943359375
3.029296875
2.9422851562499996
2.6135742187499997
2.4886962890624997
2.3485107421875
2.1438720703125
1.9166748046875
2.5708740234375
3.0244628906249997
3.0220458984375
3.0236572265625
3.0284912109374997
3.029296875
2.872998046875
1.4373046875
0.022558593749999998
0.023364257812499997
0.027392578124999997
0.019335937499999997
0.023364257812499997
0.023364257812499997
0.023364257812499997
0.024169921875
0.0169189453125
0.030615234374999998
0.02578125
0.022558593749999998
0.02900390625
0.018530273437499998
0.0217529296875
0.022558593749999998
0.019335937499999997
0.024169921875
0.0652587890625
0.1409912109375
0.21511230468749998
2.20107421875
3.018017578125
3.0228515624999996
3.027685546875
3.0268798828124996
3.027685546875
2.98095703125
3.0147949218749996
2.9100585937499996
2.6159912109374996
2.5233398437499996
2.3710693359375
2.147900390625
2.0069091796875
3.0228515624999996
3.0236572265625
3.021240234375
3.029296875
3.0244628906249997
3.02607421875
1.7023681640625
0.022558593749999998
0.018530273437499998
0.024169921875
0.022558593749999998
0.0217529296875
0.023364257812499997
0.026586914062499998
0.018530273437499998
0.024169921875
0.024169921875
0.023364257812499997
0.0217529296875
0.0217529296875
0.022558593749999998
0.0217529296875
0.0169189453125
0.022558593749999998
0.0217529296875
0.020947265625
0.08217773437499999
0.159521484375
1.5194824218749998
2.7666503906249997
3.0164062499999997
3.02607421875
3.0268798828124996
3.027685546875
3.0244628906249997
2.9479248046874997
2.85849609375
2.6208251953125
2.5724853515625
2.4516357421875
2.222021484375
2.05927734375
3.0309082031249996
3.0244628906249997
3.02607421875
3.0220458984375
3.02607421875
3.01962890625
2.3235351562499997
0.6066650390625
0.022558593749999998
0.022558593749999998
0.023364257812499997
0.022558593749999998
0.027392578124999997
0.018530273437499998
0.027392578124999997
0.0281982421875
0.019335937499999997
0.0217529296875
0.023364257812499997
0.027392578124999997
0.017724609375
0.022558593749999998
0.0281982421875
0.022558593749999998
0.022558593749999998
0.0249755859375
0.054785156249999994
0.1329345703125
1.3220947265624998
2.5152832031249996
2.9519531249999997
3.0252685546875
3.0236572265625
3.0244628906249997
3.029296875
3.0220458984375
2.9358398437499997
2.7569824218749996
2.602294921875
2.470166015625
2.2582763671875
2.0818359374999997
3.0252685546875
3.029296875
3.0309082031249996
3.0268798828124996
3.0252685546875
3.0284912109374997
2.9801513671874997
1.1456542968749999
0.0217529296875
0.023364257812499997
0.022558593749999998
0.024169921875
0.0201416015625
0.0249755859375
0.0249755859375
0.0201416015625
0.0217529296875
0.023364257812499997
0.023364257812499997
0.023364257812499997
0.0217529296875
0.024169921875
0.022558593749999998
0.026586914062499998
0.02578125
0.023364257812499997
0.02900390625
0.10151367187499999
0.17644042968749998
2.4097412109375
2.98095703125
3.0268798828124996
3.0284912109374997
3.0284912109374997
3.01962890625
3.0204345703124997
3.0244628906249997
2.937451171875
2.663525390625
2.389599609375
2.196240234375
1.9996582031249999
1.8232177734375
3.02607421875
3.0228515624999996
3.0236572265625
3.0236572265625
3.02607421875
3.0268798828124996
1.5275390624999998
0.10151367187499999
0.027392578124999997
0.024169921875
0.0217529296875
0.022558593749999998
0.0217529296875
0.027392578124999997
0.024169921875
0.020947265625
0.019335937499999997
0.0217529296875
0.0169189453125
0.024169921875
0.022558593749999998
0.023364257812499997
0.024169921875
0.0201416015625
0.023364257812499997
0.0249755859375
0.0910400390625
0.16435546874999998
2.0471923828125
2.7972656249999996
3.0244628906249997
3.02607421875
3.02607421875
3.0244628906249997
2.9140869140624996
2.8319091796875
2.6691650390625
2.5370361328124997
2.40732421875
2.2590820312499997
2.334814453125
1.9521240234375
3.0268798828124996
3.0244628906249997
3.0252685546875
3.02607421875
3.02607421875
3.02607421875
2.11728515625
0.8386962890624999
0.019335937499999997
0.020947265625
0.023364257812499997
0.020947265625
0.022558593749999998
0.022558593749999998
0.024169921875
0.0169189453125
0.022558593749999998
0.0201416015625
0.0281982421875
0.02578125
0.023364257812499997
0.022558593749999998
0.022558593749999998
0.022558593749999998
0.0217529296875
0.023364257812499997
0.075732421875
0.1506591796875
1.6927001953124998
2.518505859375
2.9519531249999997
3.0252685546875
3.0252685546875
3.0228515624999996
3.0268798828124996
2.9583984374999996
2.898779296875
2.7046142578124996
2.487890625
2.3243408203125
2.244580078125
2.1221191406249997
3.0252685546875
3.02607421875
3.0252685546875
3.0309082031249996
3.0228515624999996
3.021240234375
2.528173828125
1.377685546875
0.022558593749999998
0.023364257812499997
0.02900390625
0.018530273437499998
0.023364257812499997
0.023364257812499997
0.022558593749999998
0.0217529296875
0.026586914062499998
0.018530273437499998
0.0281982421875
0.023364257812499997
0.022558593749999998
0.020947265625
0.023364257812499997
0.020947265625
0.0217529296875
0.02900390625
0.046728515624999994
0.1248779296875
0.22236328125
2.2856689453125
3.0244628906249997
3.0244628906249997
3.02607421875
3.0220458984375
3.0301025390625
3.0091552734375
2.9737060546875
2.8633300781249997
2.5716796874999996
2.4685546874999997
2.2534423828125
2.077001953125
1.8957275390625
3.0284912109374997
3.02607421875
3.0228515624999996
3.0284912109374997
3.0220458984375
3.0268798828124996
1.6024658203125
0.348046875
0.023364257812499997
0.023364257812499997
0.023364257812499997
0.0217529296875
0.024169921875
0.020947265625
0.026586914062499998
0.027392578124999997
0.023364257812499997
0.022558593749999998
0.019335937499999997
0.022558593749999998
0.0201416015625
0.022558593749999998
0.027392578124999997
0.022558593749999998
0.022558593749999998
0.0249755859375
0.078955078125
0.16032714843749998
1.861083984375
2.6876953125
3.0244628906249997
3.02607421875
3.0252685546875
3.0268798828124996
2.940673828125
2.9277832031249997
2.7835693359375
2.6119628906249996
2.5031982421874996
2.334814453125
2.0979492187499997
2.012548828125
3.02607421875
3.0284912109374997
3.0244628906249997
3.0244628906249997
3.0268798828124996
3.0301025390625
2.43955078125
0.91201171875
0.018530273437499998
0.027392578124999997
0.023364257812499997
0.02578125
0.023364257812499997
0.017724609375
0.024169921875
0.024169921875
0.027392578124999997
0.019335937499999997
0.024169921875
0.0217529296875
0.024169921875
0.022558593749999998
0.0217529296875
0.023364257812499997
0.027392578124999997
0.0201416015625
0.0668701171875
0.1458251953125
1.2101074218749999
2.528173828125
2.91650390625
3.0236572265625
3.0268798828124996
3.0301025390625
2.889111328125
2.9986816406249996
3.0309082031249996
2.8109619140624997
2.6385498046875
2.4065185546875
2.1938232421875
2.1277587890625
2.2067138671874997
3.0204345703124997
3.0244628906249997
3.02607421875
3.0188232421874996
3.029296875
2.9704833984374996
1.023193359375
0.0249755859375
0.023364257812499997
0.020947265625
0.0201416015625
0.023364257812499997
0.023364257812499997
0.023364257812499997
0.02578125
0.023364257812499997
0.0217529296875
0.024169921875
0.023364257812499997
0.024169921875
0.0249755859375
0.026586914062499998
0.022558593749999998
0.02578125
0.023364257812499997
0.0322265625
0.1071533203125
0.36416015625
2.2913085937499997
2.8633300781249997
3.0228515624999996
3.0284912109374997
3.02607421875
3.0252685546875
2.9785400390624996
3.0236572265625
2.7175048828125
2.512060546875
2.3775146484375
2.2405517578125
2.1422607421874997
1.9956298828124999
3.0284912109374997
3.02607421875
3.0268798828124996
3.0252685546875
3.027685546875
3.0067382812499996
1.4373046875
0.0217529296875
0.024169921875
0.0217529296875
0.022558593749999998
0.027392578124999997
0.0217529296875
0.0201416015625
0.0217529296875
0.023364257812499997
0.0169189453125
0.024169921875
0.023364257812499997
0.027392578124999997
0.022558593749999998
0.022558593749999998
0.0281982421875
0.022558593749999998
0.02578125
0.02900390625
0.10554199218749999
0.20061035156249998
2.04638671875
2.8029052734374997
3.0244628906249997
3.0220458984375
3.0268798828124996
3.0244628906249997
2.874609375
2.8963623046875
2.7779296875
2.6095458984374997
2.454052734375
2.2695556640625
2.1591796875
1.9746826171874998
3.029296875
3.0252685546875
3.02607421875
3.0252685546875
3.0244628906249997
3.02607421875
1.670947265625
0.6485595703125
0.0201416015625
0.0217529296875
0.023364257812499997
0.020947265625
0.023364257812499997
0.023364257812499997
0.017724609375
0.027392578124999997
0.018530273437499998
0.0217529296875
0.023364257812499997
0.024169921875
0.023364257812499997
0.023364257812499997
0.019335937499999997
0.023364257812499997
0.026586914062499998
0.024169921875
0.10231933593749999
0.17644042968749998
1.6991455078125
2.6699707031249997
3.0252685546875
3.0228515624999996
3.0268798828124996
3.0236572265625
3.01962890625
3.0244628906249997
2.9173095703125
2.7134765625
2.5644287109375
2.3871826171875
2.257470703125
2.1140624999999997
3.0317138671875
3.0204345703124997
3.027685546875
3.01962890625
3.021240234375
3.0204345703124997
2.3162841796875
0.6227783203124999
0.0281982421875
0.022558593749999998
0.024169921875
0.022558593749999998
0.024169921875
0.020947265625
0.0217529296875
0.024169921875
0.0217529296875
0.023364257812499997
0.024169921875
0.022558593749999998
0.023364257812499997
0.023364257812499997
0.023364257812499997
0.0201416015625
0.02578125
0.023364257812499997
0.06767578125
0.13857421875
0.22075195312499998
2.6047119140625
3.0220458984375
3.02607421875
3.0252685546875
3.0236572265625
2.96162109375
2.9720947265624997
2.9181152343749996
2.75537109375
2.6159912109374996
2.4443847656249997
2.3477050781249997
2.1221191406249997
3.018017578125
3.027685546875
3.0244628906249997
3.0244628906249997
3.0220458984375
3.02607421875
3.0252685546875
1.2906738281249999
0.02578125
0.022558593749999998
0.023364257812499997
0.018530273437499998
0.022558593749999998
0.0217529296875
0.0217529296875
0.011279296874999999
0.0217529296875
0.0281982421875
0.024169921875
0.024169921875
0.018530273437499998
0.0201416015625
0.022558593749999998
0.022558593749999998
0.0169189453125
0.022558593749999998
0.0314208984375
0.09426269531249999
0.1973876953125
2.212353515625
2.8955566406249997
3.0268798828124996
3.0284912109374997
3.0252685546875
2.979345703125
2.9656494140625
2.8705810546875
2.7972656249999996
2.447607421875
2.34931640625
2.222021484375
2.0085205078125
1.9271484374999999
3.0252685546875
3.0284912109374997
3.0252685546875
3.02607421875
3.0244628906249997
3.021240234375
1.625830078125
0.32951660156249996
0.018530273437499998
0.024169921875
0.024169921875
0.020947265625
0.023364257812499997
0.0201416015625
0.022558593749999998
0.022558593749999998
0.027392578124999997
0.023364257812499997
0.023364257812499997
0.022558593749999998
0.020947265625
0.02578125
0.0249755859375
0.0201416015625
0.019335937499999997
0.0281982421875
0.1329345703125
0.2022216796875
1.7072021484375
2.8431884765624997
3.029296875
3.0252685546875
3.0268798828124996
3.0268798828124996
3.011572265625
3.0059326171875
2.972900390625
2.6901123046874997
2.5410644531249997
2.305810546875
2.222021484375
2.0052978515624997
3.027685546875
3.0284912109374997
3.027685546875
3.0252685546875
3.02607421875
3.0244628906249997
1.7724609375
0.3520751953125
0.027392578124999997
0.022558593749999998
0.022558593749999998
0.020947265625
0.022558593749999998
0.023364257812499997
0.023364257812499997
0.027392578124999997
0.019335937499999997
0.0217529296875
0.024169921875
0.0201416015625
0.017724609375
0.023364257812499997
0.018530273437499998
0.022558593749999998
0.018530273437499998
0.0249755859375
0.088623046875
0.165966796875
2.0681396484375
2.9277832031249997
3.0244628906249997
3.027685546875
3.0268798828124996
3.01962890625
2.8866943359375
2.9922363281249997
2.89072265625
2.7368408203124996
2.5209228515624997
2.42666015625
2.292919921875
2.0633056640625
3.0228515624999996
3.0252685546875
3.0268798828124996
3.0188232421874996
3.0268798828124996
3.0268798828124996
1.9795166015624999
0.974853515625
0.023364257812499997
0.027392578124999997
0.023364257812499997
0.022558593749999998
0.023364257812499997
0.0249755859375
0.024169921875
0.02578125
0.022558593749999998
0.024169921875
0.024169921875
0.023364257812499997
0.023364257812499997
0.0217529296875
0.022558593749999998
0.0217529296875
0.026586914062499998
0.023364257812499997
0.0281982421875
0.10231933593749999
1.65
2.5402587890625
2.9414794921875
3.0252685546875
3.02607421875
3.0244628906249997
2.9970703125
2.9914306640625
2.98740234375
2.900390625
2.55234375
2.3960449218749997
2.2115478515625
2.044775390625
2.2494140625
3.0244628906249997
3.027685546875
3.0252685546875
3.0252685546875
3.0268798828124996
2.953564453125
1.5444580078124999
0.0539794921875
0.0249755859375
0.024169921875
0.0249755859375
0.02578125
0.02578125
0.0217529296875
0.02900390625
0.022558593749999998
0.023364257812499997
0.024169921875
0.0217529296875
0.022558593749999998
0.022558593749999998
0.023364257812499997
0.023364257812499997
0.0346435546875
0.023364257812499997
0.018530273437499998
0.095068359375
0.1740234375
2.2647216796875
2.9664550781249996
3.0268798828124996
3.0252685546875
3.021240234375
3.0252685546875
2.963232421875
3.0147949218749996
2.9382568359374996
2.7094482421875
2.357373046875
2.28486328125
2.1422607421874997
1.980322265625
3.0244628906249997
3.0252685546875
3.0204345703124997
3.0284912109374997
3.0252685546875
3.0252685546875
1.706396484375
0.0394775390625
0.022558593749999998
0.022558593749999998
0.023364257812499997
0.023364257812499997
0.026586914062499998
0.0281982421875
0.023364257812499997
0.024169921875
0.0217529296875
0.02578125
0.024169921875
0.0298095703125
0.022558593749999998
0.022558593749999998
0.023364257812499997
0.020947265625
0.022558593749999998
0.02578125
0.049145507812499996
0.12890625
1.9754882812499999
2.695751953125
3.0244628906249997
3.027685546875
3.0043212890624997
3.021240234375
3.005126953125
2.8512451171874997
2.6901123046874997
2.495947265625
2.328369140625
2.2026855468749997
2.1583740234374997
2.0093261718749997
3.0244628906249997
3.0228515624999996
3.0268798828124996
3.0220458984375
3.02607421875
3.0268798828124996
1.6072998046875
0.694482421875
0.022558593749999998
0.0249755859375
0.026586914062499998
0.022558593749999998
0.022558593749999998
0.017724609375
0.022558593749999998
0.022558593749999998
0.024169921875
0.020947265625
0.019335937499999997
0.022558593749999998
0.0217529296875
0.024169921875
0.019335937499999997
0.0201416015625
0.0249755859375
0.020947265625
0.08056640625
0.1796630859375
1.4888671875
2.6014892578124997
3.02607421875
3.0301025390625
3.0252685546875
3.02607421875
3.027685546875
2.9962646484374997
2.892333984375
2.7271728515625
2.5716796874999996
2.405712890625
2.2163818359375
2.0359130859375
3.0236572265625
3.029296875
3.0268798828124996
3.029296875
3.027685546875
3.021240234375
2.1076171875
1.19560546875
0.0217529296875
0.023364257812499997
0.0169189453125
0.0249755859375
0.022558593749999998
0.0217529296875
0.0249755859375
0.017724609375
0.018530273437499998
0.023364257812499997
0.018530273437499998
0.022558593749999998
0.023364257812499997
0.024169921875
0.0217529296875
0.023364257812499997
0.0201416015625
0.0201416015625
0.0845947265625
0.15791015625
0.22880859374999998
2.3323974609375
2.96162109375
3.029296875
3.027685546875
3.0252685546875
3.0204345703124997
2.9156982421874997
2.78759765625
2.5007812499999997
2.386376953125
2.0874755859375
2.118896484375
1.9835449218749999
1.8570556640625
3.0244628906249997
3.0284912109374997
3.0252685546875
3.0252685546875
3.02607421875
3.0244628906249997
1.5879638671874998
0.023364257812499997
0.017724609375
0.022558593749999998
0.024169921875
0.023364257812499997
0.023364257812499997
0.023364257812499997
0.022558593749999998
0.022558593749999998
0.023364257812499997
0.023364257812499997
0.017724609375
0.02578125
0.0249755859375
0.026586914062499998
0.02578125
0.022558593749999998
0.0281982421875
0.1039306640625
0.1796630859375
0.2537841796875
2.5652343749999997
3.0236572265625
3.021240234375
3.0236572265625
3.0268798828124996
3.0244628906249997
2.9463134765624996
2.947119140625
2.7593994140625
2.6216308593749997
2.3879882812499997
2.241357421875
2.0044921875
1.8385253906249999
3.0252685546875
3.0252685546875
3.0204345703124997
3.0236572265625
3.0236572265625
3.0268798828124996
1.7257324218749999
0.4447265625
0.023364257812499997
0.02578125
0.023364257812499997
0.01611328125
0.023364257812499997
0.023364257812499997
0.023364257812499997
0.02578125
0.024169921875
0.02900390625
0.019335937499999997
0.017724609375
0.023364257812499997
0.023364257812499997
0.019335937499999997
0.0249755859375
0.023364257812499997
0.0346435546875
0.1087646484375
0.20705566406249998
1.7217041015624999
2.663525390625
3.0204345703124997
3.0268798828124996
3.0268798828124996
3.0301025390625
3.0268798828124996
3.0147949218749996
3.0099609375
2.6385498046875
2.4814453125
2.3017822265625
2.0971435546875
1.9303710937499998
3.0244628906249997
3.0284912109374997
3.0301025390625
3.0252685546875
3.0252685546875
3.0252685546875
1.843359375
0.90234375
0.026586914062499998
0.018530273437499998
0.019335937499999997
0.023364257812499997
0.0314208984375
0.027392578124999997
0.022558593749999998
0.017724609375
0.027392578124999997
0.022558593749999998
0.0201416015625
0.023364257812499997
0.027392578124999997
0.026586914062499998
0.019335937499999997
0.0169189453125
0.023364257812499997
0.040283203125
0.11440429687499999
0.191748046875
1.9537353515625
2.8641357421875
3.0301025390625
3.0252685546875
3.0244628906249997
3.02607421875
2.8625244140625
2.9326171875
2.7489257812499996
2.5265625
2.4524414062499997
2.23974609375
2.16884765625
2.015771484375
3.021240234375
3.0268798828124996
3.0268798828124996
3.02607421875
3.0252685546875
3.02607421875
2.7545654296874997
0.945849609375
0.024169921875
0.024169921875
0.022558593749999998
0.022558593749999998
0.023364257812499997
0.020947265625
0.023364257812499997
0.0249755859375
0.020947265625
0.0104736328125
0.0169189453125
0.023364257812499997
0.019335937499999997
0.027392578124999997
0.0217529296875
0.022558593749999998
0.019335937499999997
0.0314208984375
0.09829101562499999
0.17724609375
1.796630859375
2.705419921875
3.02607421875
3.02607421875
3.02607421875
3.0228515624999996
2.8979736328124996
2.9463134765624996
2.860107421875
2.7521484375
2.5305908203125
2.3823486328125
2.2405517578125
1.9907958984374998
2.08828125
3.0252685546875
3.0244628906249997
3.0309082031249996
3.0244628906249997
3.0268798828124996
3.0244628906249997
1.5476806640624998
0.1200439453125
0.017724609375
0.019335937499999997
0.023364257812499997
0.027392578124999997
0.023364257812499997
0.0217529296875
0.024169921875
0.022558593749999998
0.02578125
0.022558593749999998
0.023364257812499997
0.024169921875
0.023364257812499997
0.023364257812499997
0.026586914062499998
0.022558593749999998
0.024169921875
0.033837890625
0.1353515625
0.21269531249999998
2.13984375
2.9269775390625
3.0228515624999996
3.02607421875
3.0284912109374997
3.0284912109374997
3.0244628906249997
2.9745117187499996
2.8617187499999996
2.5837646484374996
2.4484130859374997
2.2292724609375
2.07861328125
1.9110351562499999
3.0244628906249997
3.0244628906249997
3.0268798828124996
3.0252685546875
3.0268798828124996
3.0252685546875
1.7474853515625
0.14501953125
0.022558593749999998
0.022558593749999998
0.026586914062499998
0.0281982421875
0.0201416015625
0.026586914062499998
0.023364257812499997
0.017724609375
0.022558593749999998
0.027392578124999997
0.024169921875
0.026586914062499998
0.023364257812499997
0.027392578124999997
0.0217529296875
0.018530273437499998
0.022558593749999998
0.053173828124999996
0.12246093749999999
0.1998046875
2.1567626953125
2.848828125
3.02607421875
3.0220458984375
3.021240234375
3.0252685546875
3.0164062499999997
2.8883056640625
2.7263671874999997
2.5434814453124996
2.3912109375
2.2405517578125
2.0552490234375
1.8369140625
3.0244628906249997
3.02607421875
3.0252685546875
3.02607421875
3.0244628906249997
3.0252685546875
1.7080078125
0.6896484374999999
0.0249755859375
0.023364257812499997
0.026586914062499998
0.023364257812499997
0.023364257812499997
0.022558593749999998
0.022558593749999998
0.018530273437499998
0.027392578124999997
0.023364257812499997
0.022558593749999998
0.023364257812499997
0.018530273437499998
0.02900390625
0.018530273437499998
0.024169921875
0.026586914062499998
0.0459228515625
0.12890625
0.21672363281249998
1.9682373046875
2.91328125
3.029296875
3.0252685546875
3.0220458984375
3.02607421875
3.0002929687499997
3.0228515624999996
2.947119140625
2.6216308593749997
2.4991699218749996
2.3195068359374997
2.0536376953124997
1.912646484375
3.0252685546875
3.02607421875
3.0252685546875
3.0236572265625
3.0228515624999996
3.0228515624999996
2.5241455078125
1.329345703125
0.027392578124999997
0.024169921875
0.018530273437499998
0.023364257812499997
0.0217529296875
0.0249755859375
0.0201416015625
0.024169921875
0.022558593749999998
0.022558593749999998
0.022558593749999998
0.023364257812499997
0.022558593749999998
0.018530273437499998
0.0217529296875
0.026586914062499998
0.023364257812499997
0.024169921875
0.0636474609375
0.141796875
0.21511230468749998
2.7158935546875
3.018017578125
3.027685546875
3.0268798828124996
3.02607421875
3.0252685546875
2.9237548828124997
2.78759765625
2.5837646484374996
2.4016845703125
2.247802734375
2.0302734375
1.95615234375
1.735400390625
3.029296875
3.0244628906249997
3.0236572265625
3.027685546875
3.0228515624999996
3.0252685546875
1.22783203125
0.02578125
0.022558593749999998
0.018530273437499998
0.022558593749999998
0.0201416015625
0.027392578124999997
0.023364257812499997
0.022558593749999998
0.020947265625
0.0249755859375
0.024169921875
0.022558593749999998
0.023364257812499997
0.018530273437499998
0.022558593749999998
0.019335937499999997
0.022558593749999998
0.0217529296875
0.09023437499999999
0.1716064453125
0.2795654296875
2.450830078125
3.0252685546875
3.029296875
3.0228515624999996
3.0268798828124996
3.0244628906249997
2.921337890625
2.9068359375
2.7779296875
2.5201171875
2.373486328125
2.29453125
2.1519287109375
1.9617919921875
3.021240234375
3.0236572265625
3.0268798828124996
3.0244628906249997
3.0252685546875
3.02607421875
1.4880615234374999
0.399609375
0.0217529296875
0.023364257812499997
0.023364257812499997
0.0217529296875
0.019335937499999997
0.018530273437499998
0.020947265625
0.023364257812499997
0.02578125
0.022558593749999998
0.0249755859375
0.022558593749999998
0.024169921875
0.0201416015625
0.023364257812499997
0.023364257812499997
0.019335937499999997
0.0298095703125
0.1264892578125
0.2022216796875
1.8578613281249998
2.7650390624999996
3.021240234375
3.027685546875
3.0204345703124997
3.0301025390625
3.0268798828124996
2.9825683593749996
2.89072265625
2.5894042968749997
2.4202148437499997
2.392822265625
2.1543457031249997
1.9625976562499998
3.0252685546875
3.02607421875
3.02607421875
3.0301025390625
3.0244628906249997
3.0236572265625
1.9295654296875
1.007080078125
0.027392578124999997
0.023364257812499997
0.023364257812499997
0.019335937499999997
0.023364257812499997
0.027392578124999997
0.0249755859375
0.024169921875
0.026586914062499998
0.023364257812499997
0.017724609375
0.022558593749999998
0.022558593749999998
0.027392578124999997
0.017724609375
0.02578125
0.022558593749999998
0.0281982421875
0.08540039062499999
0.159521484375
1.43408203125
2.719921875
3.0220458984375
3.0252685546875
3.0220458984375
3.027685546875
2.92939453125
2.9986816406249996
3.0123779296874997
2.715087890625
2.642578125
2.373486328125
2.3235351562499997
2.13984375
3.0236572265625
3.02607421875
3.0204345703124997
3.02607421875
3.029296875
3.0252685546875
2.7626220703124997
0.9974121093749999
0.024169921875
0.022558593749999998
0.0217529296875
0.017724609375
0.0217529296875
0.023364257812499997
0.023364257812499997
0.024169921875
0.022558593749999998
0.023364257812499997
0.023364257812499997
0.027392578124999997
0.026586914062499998
0.024169921875
0.024169921875
0.0217529296875
0.027392578124999997
0.024169921875
0.0515625
0.15227050781249998
1.635498046875
2.4097412109375
2.8359375
3.0325195312499997
3.02607421875
3.011572265625
2.898779296875
2.979345703125
2.9358398437499997
2.6288818359375
2.5048095703124997
2.36865234375
2.2341064453125
1.9746826171874998
1.9352050781249999
3.0252685546875
3.0236572265625
3.0220458984375
3.0268798828124996
3.027685546875
3.021240234375
1.477587890625
0.13212890624999998
0.0281982421875
0.027392578124999997
0.0281982421875
0.017724609375
0.023364257812499997
0.020947265625
0.019335937499999997
0.023364257812499997
0.023364257812499997
0.020947265625
0.024169921875
0.018530273437499998
0.022558593749999998
0.023364257812499997
0.027392578124999997
0.023364257812499997
0.023364257812499997
0.0733154296875
0.15468749999999998
0.2255859375
2.325146484375
2.9519531249999997
3.02607421875
3.02607421875
3.02607421875
3.0236572265625
3.01962890625
2.9970703125
2.9302001953124996
2.6562744140624996
2.4524414062499997
2.23330078125
2.109228515625
1.928759765625
3.029296875
3.0236572265625
3.0244628906249997
3.0252685546875
3.02607421875
3.0268798828124996
1.869140625
0.15791015625
0.023364257812499997
0.023364257812499997
0.023364257812499997
0.023364257812499997
0.024169921875
0.020947265625
0.022558593749999998
0.023364257812499997
0.0249755859375
0.024169921875
0.01611328125
0.019335937499999997
0.022558593749999998
0.023364257812499997
0.0217529296875
0.022558593749999998
0.022558593749999998
0.027392578124999997
0.103125
0.1812744140625
2.1567626953125
2.769873046875
3.0236572265625
3.0236572265625
3.0228515624999996
3.0284912109374997
2.8955566406249997
2.8834716796874997
2.795654296875
2.5716796874999996
2.4210205078125
2.254248046875
2.1164794921875
1.9053955078125
3.02607421875
3.02607421875
3.0284912109374997
3.02607421875
3.029296875
3.0268798828124996
1.6685302734374998
0.7468505859375
0.019335937499999997
0.023364257812499997
0.024169921875
0.023364257812499997
0.023364257812499997
0.027392578124999997
0.019335937499999997
0.023364257812499997
0.018530273437499998
0.024169921875
0.022558593749999998
0.022558593749999998
0.024169921875
0.023364257812499997
0.026586914062499998
0.0217529296875
0.02578125
0.041088867187499996
0.11440429687499999
0.217529296875
1.6878662109375
2.6627197265625
3.027685546875
3.0252685546875
3.027685546875
3.0204345703124997
2.9801513671874997
2.9277832031249997
2.8697753906249996
2.586181640625
2.43310546875
2.276806640625
2.1060058593749997
2.022216796875
3.02607421875
3.027685546875
3.027685546875
3.02607421875
3.0204345703124997
3.0301025390625
2.6240478515624996
1.3599609375
0.023364257812499997
0.0217529296875
0.0217529296875
0.020947265625
0.024169921875
0.022558593749999998
0.022558593749999998
0.022558593749999998
0.022558593749999998
0.0249755859375
0.022558593749999998
0.023364257812499997
0.027392578124999997
0.02578125
0.0249755859375
0.019335937499999997
0.022558593749999998
0.02578125
0.11762695312499999
0.19255371093749998
0.259423828125
2.5644287109375
2.9390625
3.02607421875
3.027685546875
3.02607421875
3.0252685546875
2.9914306640625
2.9559814453124997
2.7884033203125
2.7585937499999997
2.4129638671875
2.255859375
2.1382324218749997
1.9795166015624999
3.0268798828124996
3.021240234375
3.0244628906249997
3.0236572265625
3.0236572265625
3.0268798828124996
1.3897705078125
0.022558593749999998
0.022558593749999998
0.022558593749999998
0.0249755859375
0.0217529296875
0.022558593749999998
0.019335937499999997
0.0217529296875
0.022558593749999998
0.024169921875
0.022558593749999998
0.027392578124999997
0.023364257812499997
0.020947265625
0.022558593749999998
0.024169921875
0.024169921875
0.0201416015625
0.06606445312499999
0.13857421875
0.7702148437499999
2.358984375
2.947119140625
3.02607421875
3.0252685546875
3.0252685546875
3.02607421875
2.9181152343749996
2.8536621093749996
2.7142822265624997
2.473388671875
2.373486328125
2.1809326171875
2.0568603515625
1.883642578125
3.0252685546875
3.02607421875
3.0244628906249997
3.0228515624999996
3.0244628906249997
3.027685546875
1.4888671875
0.3794677734375
0.024169921875
0.0217529296875
0.0249755859375
0.022558593749999998
0.0249755859375
0.023364257812499997
0.0281982421875
0.019335937499999997
0.017724609375
0.018530273437499998
0.023364257812499997
0.026586914062499998
0.0217529296875
0.018530273437499998
0.020947265625
0.023364257812499997
0.019335937499999997
0.057202148437499996
0.159521484375
0.23283691406249998
2.1567626953125
2.8464111328125
3.02607421875
3.0244628906249997
3.0244628906249997
3.027685546875
3.0236572265625
2.9060302734374996
2.7497314453125
2.4886962890624997
2.3638183593749997
2.24619140625
2.022216796875
1.880419921875
3.0244628906249997
3.0244628906249997
3.0236572265625
3.0252685546875
3.0252685546875
3.027685546875
1.85947265625
0.9369873046874999
0.020947265625
0.0201416015625
0.038671874999999994
0.026586914062499998
0.019335937499999997
0.018530273437499998
0.024169921875
0.0217529296875
0.027392578124999997
0.023364257812499997
0.022558593749999998
0.024169921875
0.022558593749999998
0.024169921875
0.023364257812499997
0.022558593749999998
0.023364257812499997
0.062841796875
0.143408203125
0.21591796875
1.224609375
2.6280761718749996
2.972900390625
3.0204345703124997
3.0228515624999996
3.02607421875
2.8456054687499996
2.9028076171875
2.7779296875
2.5330078124999997
2.40732421875
2.20107421875
2.044775390625
1.9787109374999998
3.0236572265625
3.0252685546875
3.02607421875
3.0220458984375
3.0252685546875
3.0228515624999996
2.876220703125
1.0803955078125
0.02578125
0.024169921875
0.0249755859375
0.0217529296875
0.018530273437499998
0.023364257812499997
0.0201416015625
0.023364257812499997
0.022558593749999998
0.020947265625
0.018530273437499998
0.0201416015625
0.0201416015625
0.024169921875
0.019335937499999997
0.024169921875
0.027392578124999997
0.07734374999999999
0.1611328125
0.23283691406249998
1.77890625
2.8029052734374997
3.0228515624999996
3.0244628906249997
3.02607421875
3.0244628906249997
2.900390625
2.874609375
2.7207275390624996
2.5265625
2.3565673828125
2.255859375
2.160791015625
2.0334960937499997
2.0761962890625
3.0252685546875
3.0268798828124996
3.037353515625
3.027685546875
3.0252685546875
2.9342285156249996
1.4671142578124998
0.0652587890625
0.024169921875
0.020947265625
0.0201416015625
0.023364257812499997
0.022558593749999998
0.024169921875
0.023364257812499997
0.023364257812499997
0.0201416015625
0.018530273437499998
0.022558593749999998
0.022558593749999998
0.02578125
0.023364257812499997
0.0249755859375
0.023364257812499997
0.038671874999999994
0.11279296875
0.21108398437499998
0.28439941406249997
2.12373046875
2.866552734375
3.02607421875
3.0236572265625
3.027685546875
3.0252685546875
3.0220458984375
3.01962890625
2.9156982421874997
2.6852783203125
2.4790283203124996
2.27197265625
2.1503173828124997
1.964208984375
3.0284912109374997
3.0220458984375
3.0268798828124996
3.0309082031249996
3.0244628906249997
3.0244628906249997
1.7603759765625
0.2505615234375
0.023364257812499997
0.0217529296875
0.022558593749999998
0.0217529296875
0.0217529296875
0.020947265625
0.0281982421875
0.0281982421875
0.02578125
0.023364257812499997
0.024169921875
0.0201416015625
0.018530273437499998
0.022558593749999998
0.024169921875
0.023364257812499997
0.024169921875
0.075732421875
0.153076171875
0.23203125
2.16884765625
2.85205078125
3.027685546875
3.0228515624999996
3.0268798828124996
3.029296875
3.0228515624999996
2.9664550781249996
2.85205078125
2.6079345703124996
2.4604980468749997
2.43310546875
2.16884765625
1.9658203125
3.02607421875
3.029296875
3.02607421875
3.029296875
3.0268798828124996
3.0252685546875
1.7490966796874998
0.7694091796875
0.019335937499999997
0.0201416015625
0.0217529296875
0.024169921875
0.023364257812499997
0.022558593749999998
0.026586914062499998
0.0281982421875
0.020947265625
0.023364257812499997
0.024169921875
0.0217529296875
0.024169921875
0.023364257812499997
0.022558593749999998
0.023364257812499997
0.026586914062499998
0.038671874999999994
0.11359863281249999
0.21591796875
1.46630859375
2.5612060546874997
3.0220458984375
3.029296875
3.0252685546875
3.0252685546875
2.9761230468749997
2.8689697265625
2.7416748046875
2.4806396484374997
2.4177978515625
2.309033203125
2.086669921875
1.9593749999999999
3.0252685546875
3.0252685546875
3.0252685546875
3.027685546875
3.0268798828124996
3.027685546875
2.7593994140625
1.2955078125
0.0217529296875
0.0217529296875
0.026586914062499998
0.024169921875
0.017724609375
0.022558593749999998
0.023364257812499997
0.0217529296875
0.02578125
0.019335937499999997
0.019335937499999997
0.026586914062499998
0.0281982421875
0.0217529296875
0.022558593749999998
0.024169921875
0.0281982421875
0.043505859375
0.1458251953125
0.223974609375
0.2908447265625
2.4846679687499997
2.8915283203124997
3.01962890625
3.02607421875
2.9970703125
2.9914306640625
2.9849853515625
2.9463134765624996
2.7263671874999997
2.528173828125
2.3654296875
2.2147705078124997
2.070556640625
1.9650146484375
3.0244628906249997
3.0244628906249997
3.02607421875
3.021240234375
3.027685546875
3.027685546875
1.46630859375
0.049145507812499996
0.022558593749999998
0.023364257812499997
0.0249755859375
0.023364257812499997
0.023364257812499997
0.024169921875
0.022558593749999998
0.022558593749999998
0.022558593749999998
0.027392578124999997
0.019335937499999997
0.022558593749999998
0.024169921875
0.024169921875
0.026586914062499998
0.022558593749999998
0.027392578124999997
0.104736328125
0.17724609375
0.2715087890625
2.244580078125
2.8423828125
3.0252685546875
3.0244628906249997
3.02607421875
3.0244628906249997
3.001904296875
2.9656494140625
2.9124755859375
2.6119628906249996
2.4363281249999997
2.280029296875
2.101171875
1.9585693359374998
3.01962890625
3.02607421875
3.0301025390625
3.0244628906249997
3.02607421875
3.0268798828124996
1.577490234375
0.39719238281249997
0.0249755859375
0.0217529296875
0.0217529296875
0.018530273437499998
0.024169921875
0.027392578124999997
0.02578125
0.024169921875
0.024169921875
0.023364257812499997
0.018530273437499998
0.022558593749999998
0.026586914062499998
0.024169921875
0.022558593749999998
0.024169921875
0.0201416015625
0.0555908203125
0.15629882812499998
0.23283691406249998
1.9948242187499998
2.8995849609374997
3.0228515624999996
3.0228515624999996
3.0244628906249997
3.0268798828124996
2.953564453125
2.8657470703124996
2.731201171875
2.5313964843749996
2.40087890625
2.2308837890624997
2.0826416015625
1.9279541015625
3.0301025390625
