2.7900146484375
2.570068359375
2.410546875
2.2510253906249997
2.109228515625
1.9682373046875
1.8103271484374999
1.4783935546875
3.021240234375
3.0244628906249997
3.021240234375
3.027685546875
3.0252685546875
3.0220458984375
1.5944091796875
0.14018554687499998
0.0201416015625
0.022558593749999998
0.027392578124999997
0.027392578124999997
0.027392578124999997
0.022558593749999998
0.019335937499999997
0.0217529296875
0.022558593749999998
0.024169921875
0.0281982421875
0.026586914062499998
0.0217529296875
0.0201416015625
0.023364257812499997
0.078955078125
0.1796630859375
0.2578125
0.323876953125
2.051220703125
2.479833984375
2.9358398437499997
3.027685546875
3.021240234375
3.029296875
3.0252685546875
2.94873046875
2.9350341796875
2.8560791015625
2.5265625
2.34931640625
2.2099365234375
2.0842529296875
1.8546386718749999
3.0236572265625
3.0244628906249997
3.0236572265625
3.0301025390625
3.037353515625
3.0252685546875
2.0230224609375
0.8274169921875
0.02900390625
0.023364257812499997
0.0217529296875
0.0217529296875
0.023364257812499997
0.018530273437499998
0.022558593749999998
0.022558593749999998
0.02578125
0.023364257812499997
0.024169921875
0.022558593749999998
0.027392578124999997
0.024169921875
0.0249755859375
0.024169921875
0.09023437499999999
0.1740234375
0.269091796875
0.3311279296875
2.20751953125
2.843994140625
2.9833740234375
3.0252685546875
3.0301025390625
3.0268798828124996
2.8254638671874996
2.8222412109375
2.711865234375
2.463720703125
2.2679443359375
1.9827392578124998
1.8820312499999998
1.6371093749999999
3.0268798828124996
3.0268798828124996
3.0204345703124997
3.0220458984375
3.029296875
3.02607421875
2.0665283203125
0.77666015625
0.022558593749999998
0.0169189453125
0.0217529296875
0.022558593749999998
0.0249755859375
0.026586914062499998
0.023364257812499997
0.0217529296875
0.024169921875
0.022558593749999998
0.024169921875
0.0249755859375
0.026586914062499998
0.023364257812499997
0.02578125
0.027392578124999997
0.09829101562499999
0.20463867187499998
0.2747314453125
0.343212890625
2.03671875
2.7078369140625
3.0244628906249997
2.9986816406249996
3.0156005859375
3.021240234375
2.9575927734375
2.85849609375
2.69091796875
2.586181640625
2.3742919921875
2.244580078125
2.08828125
1.877197265625
3.02607421875
3.02607421875
3.0268798828124996
3.021240234375
3.0252685546875
3.0309082031249996
2.6433837890625
1.445361328125
0.0217529296875
0.0217529296875
0.017724609375
0.024169921875
0.038671874999999994
0.019335937499999997
0.020947265625
0.023364257812499997
0.022558593749999998
0.02578125
0.023364257812499997
0.024169921875
0.024169921875
0.024169921875
0.019335937499999997
0.02578125
0.09023437499999999
0.169189453125
0.23928222656249998
0.33757324218749996
1.9384277343749998
2.54267578125
3.0309082031249996
3.0317138671875
3.0397705078125
2.9511474609375
2.80048828125
2.8810546875
2.8383544921875
2.6039062499999996
2.415380859375
2.2872802734374997
2.0729736328125
1.82724609375
1.6862548828125
3.0244628906249997
3.0284912109374997
3.029296875
3.0244628906249997
3.0244628906249997
3.021240234375
1.9617919921875
0.030615234374999998
0.023364257812499997
0.023364257812499997
0.024169921875
0.0217529296875
0.023364257812499997
0.022558593749999998
0.02578125
0.0249755859375
0.017724609375
0.0217529296875
0.0201416015625
0.022558593749999998
0.023364257812499997
0.0217529296875
0.027392578124999997
0.049951171875
0.1248779296875
0.22880859374999998
0.2940673828125
0.3601318359375
2.41376953125
2.8431884765624997
3.0252685546875
3.0301025390625
3.0228515624999996
3.0252685546875
2.8778320312499996
2.889111328125
2.7489257812499996
2.4935302734375
2.2695556640625
2.1052001953125
1.883642578125
1.7023681640625
3.0228515624999996
3.0309082031249996
3.0236572265625
3.027685546875
3.029296875
3.0252685546875
1.8417480468749998
0.59619140625
0.022558593749999998
0.0281982421875
0.022558593749999998
0.018530273437499998
0.022558593749999998
0.0217529296875
0.02578125
0.0249755859375
0.024169921875
0.023364257812499997
0.020947265625
0.022558593749999998
0.027392578124999997
0.023364257812499997
0.022558593749999998
0.0555908203125
0.13212890624999998
0.20947265625
0.278759765625
0.3714111328125
1.9666259765624998
2.6546630859375
2.9769287109375
2.9761230468749997
2.9020019531249996
3.0526611328124997
2.9302001953124996
2.85205078125
2.6925292968749996
2.4629150390625
2.30419921875
2.0149658203125
1.8868652343749999
1.7571533203124998
3.0244628906249997
3.02607421875
3.0252685546875
3.0204345703124997
3.02607421875
3.027685546875
2.03671875
1.0731445312499999
0.024169921875
0.02578125
0.0217529296875
0.026586914062499998
0.023364257812499997
0.023364257812499997
0.023364257812499997
0.027392578124999997
0.0217529296875
0.018530273437499998
0.027392578124999997
0.024169921875
0.030615234374999998
0.019335937499999997
0.023364257812499997
0.07814941406249999
0.15791015625
0.23525390624999998
0.322265625
0.388330078125
1.9078125
2.7867919921874997
2.9559814453124997
3.0236572265625
3.0236572265625
2.9656494140625
2.8931396484375
2.8939453124999996
2.8625244140625
2.5885986328125
2.4387451171875
2.2260498046875
2.1052001953125
1.915869140625
3.0236572265625
3.0252685546875
3.018017578125
3.0204345703124997
3.0244628906249997
3.02607421875
3.0188232421874996
1.1351806640625
0.022558593749999998
0.022558593749999998
0.024169921875
0.022558593749999998
0.027392578124999997
0.0217529296875
0.023364257812499997
0.023364257812499997
0.0281982421875
0.022558593749999998
0.024169921875
0.0169189453125
0.023364257812499997
0.024169921875
0.024169921875
0.024169921875
0.11762695312499999
0.19497070312499998
0.2698974609375
0.33515625
1.7418457031249999
2.487890625
2.9261718749999996
3.0236572265625
3.0301025390625
2.985791015625
2.9455078125
2.8367431640625
2.7368408203124996
2.6546630859375
2.3009765625
2.1333984375
2.0842529296875
1.94970703125
1.8143554687499999
3.02607421875
3.027685546875
3.02607421875
3.029296875
3.02607421875
2.9124755859375
1.8135498046874998
0.27392578125
0.022558593749999998
0.023364257812499997
0.023364257812499997
0.018530273437499998
0.0217529296875
0.0217529296875
0.026586914062499998
0.022558593749999998
0.023364257812499997
0.018530273437499998
0.024169921875
0.0249755859375
0.020947265625
0.0169189453125
0.03544921875
0.111181640625
0.1893310546875
0.262646484375
0.35288085937499997
0.41330566406249997
2.325146484375
3.02607421875
3.021240234375
3.02607421875
2.9575927734375
2.9930419921875
2.9028076171875
2.850439453125
2.5571777343749997
2.4290771484375
2.247802734375
2.0568603515625
1.8925048828125
1.716064453125
3.0252685546875
3.0284912109374997
3.0252685546875
3.0204345703124997
3.0268798828124996
3.02607421875
1.8361083984375
0.45358886718749997
0.023364257812499997
0.0217529296875
0.017724609375
0.026586914062499998
0.024169921875
0.02578125
0.024169921875
0.022558593749999998
0.019335937499999997
0.0201416015625
0.023364257812499997
0.018530273437499998
0.02900390625
0.0281982421875
0.0249755859375
0.062841796875
0.1651611328125
0.23928222656249998
0.31259765624999997
0.37785644531249996
2.2566650390625
2.8939453124999996
3.02607421875
2.956787109375
3.01962890625
3.0268798828124996
2.9447021484375
2.9044189453125
2.785986328125
2.5845703125
2.2953369140624997
2.1825439453124997
1.9859619140625
1.7458740234374999
3.02607421875
3.0252685546875
3.0268798828124996
3.0268798828124996
3.0252685546875
3.029296875
1.9996582031249999
0.9329589843749999
0.02578125
0.019335937499999997
0.023364257812499997
0.022558593749999998
0.0281982421875
0.0169189453125
0.023364257812499997
0.024169921875
0.022558593749999998
0.023364257812499997
0.0249755859375
0.026586914062499998
0.0281982421875
0.020947265625
0.0217529296875
0.049951171875
0.1248779296875
0.2022216796875
0.2779541015625
0.3665771484375
1.7813232421874998
2.7175048828125
3.02607421875
3.0309082031249996
3.0244628906249997
3.0204345703124997
2.9994873046875
2.91328125
2.8174072265624996
2.5168945312499997
2.3267578125
2.1946289062499997
1.8908935546874999
1.8715576171875
2.763427734375
3.021240234375
3.0236572265625
3.0236572265625
3.02607421875
3.0268798828124996
2.771484375
1.4711425781249998
0.024169921875
0.022558593749999998
0.024169921875
0.0281982421875
0.02578125
0.0249755859375
0.0217529296875
0.020947265625
0.0249755859375
0.0217529296875
0.020947265625
0.019335937499999997
0.027392578124999997
0.018530273437499998
0.022558593749999998
0.023364257812499997
0.0990966796875
0.19658203124999998
0.2715087890625
0.3391845703125
0.768603515625
2.6401611328124996
3.0236572265625
3.0268798828124996
3.0228515624999996
2.977734375
2.8681640625
2.78759765625
2.6482177734374996
2.3952392578125
2.1019775390624997
2.0173828124999997
1.9376220703125
1.7901855468749999
2.193017578125
3.0268798828124996
3.02607421875
3.027685546875
3.0252685546875
3.027685546875
3.0284912109374997
1.5557373046874998
0.17080078124999998
0.0217529296875
0.0281982421875
0.023364257812499997
0.023364257812499997
0.023364257812499997
0.027392578124999997
0.023364257812499997
0.023364257812499997
0.0217529296875
0.022558593749999998
0.023364257812499997
0.023364257812499997
0.024169921875
0.024169921875
0.0475341796875
0.149853515625
0.2263916015625
0.2940673828125
0.38591308593749996
0.44633789062499996
2.421826171875
2.914892578125
3.0252685546875
3.02607421875
3.0252685546875
2.985791015625
2.9277832031249997
2.8689697265625
2.6280761718749996
2.44599609375
2.2711669921874997
2.183349609375
2.0326904296875
1.8981445312499998
3.0252685546875
3.0244628906249997
3.0236572265625
3.021240234375
3.0252685546875
3.029296875
1.815966796875
0.655810546875
0.026586914062499998
0.026586914062499998
0.0201416015625
0.020947265625
0.0217529296875
0.0217529296875
0.023364257812499997
0.024169921875
0.024169921875
0.023364257812499997
0.023364257812499997
0.022558593749999998
0.0217529296875
0.0217529296875
0.02900390625
0.08942871093749999
0.159521484375
0.26022949218749997
0.3279052734375
0.394775390625
2.1712646484375
3.02607421875
3.0244628906249997
3.0244628906249997
3.0228515624999996
3.0236572265625
2.9688720703125
2.8037109375
2.592626953125
2.389599609375
2.2808349609375
2.0987548828125
1.972265625
1.8538330078124998
3.0268798828124996
3.029296875
3.0284912109374997
3.0236572265625
3.029296875
3.0252685546875
2.4355224609375
0.8121093749999999
0.022558593749999998
0.022558593749999998
0.013696289062499999
0.023364257812499997
0.019335937499999997
0.023364257812499997
0.019335937499999997
0.024169921875
0.0201416015625
0.024169921875
0.027392578124999997
0.042700195312499994
0.0201416015625
0.0217529296875
0.023364257812499997
0.037060546874999996
0.14018554687499998
0.21672363281249998
0.2892333984375
0.34885253906249997
1.869140625
2.7722900390625
3.02607421875
3.029296875
3.0244628906249997
3.0204345703124997
2.9712890625
2.914892578125
2.8294921874999996
2.60068359375
2.3154785156249997
2.2002685546875
2.0737792968749997
1.912646484375
3.0301025390625
3.02607421875
3.0309082031249996
3.0252685546875
3.027685546875
3.02607421875
2.4516357421875
1.5082031249999999
0.0249755859375
0.024169921875
0.020947265625
0.023364257812499997
0.022558593749999998
0.02578125
0.024169921875
0.0281982421875
0.023364257812499997
0.0217529296875
0.022558593749999998
0.022558593749999998
0.022558593749999998
0.0217529296875
0.018530273437499998
0.024169921875
0.088623046875
0.1619384765625
0.2650634765625
0.32951660156249996
0.43505859375
2.5660400390625
3.029296875
3.0244628906249997
3.0204345703124997
3.0228515624999996
2.9334228515625
2.905224609375
2.6176025390624997
2.4661376953125
2.3267578125
2.20751953125
1.9762939453125
1.8369140625
1.7499023437499999
3.0268798828124996
3.0244628906249997
3.0268798828124996
3.02607421875
3.0268798828124996
3.0268798828124996
1.69833984375
0.018530273437499998
0.0169189453125
0.0217529296875
0.023364257812499997
0.023364257812499997
0.024169921875
0.022558593749999998
0.027392578124999997
0.023364257812499997
0.023364257812499997
0.023364257812499997
0.024169921875
0.017724609375
0.027392578124999997
0.024169921875
0.02578125
0.09426269531249999
0.1957763671875
0.2666748046875
0.33676757812499997
0.40283203125
2.4749999999999996
2.96162109375
3.0204345703124997
3.02607421875
3.0252685546875
3.0244628906249997
2.89716796875
2.8069335937499997
2.6522460937499996
2.5112548828124996
2.2631103515624997
2.115673828125
1.92392578125
1.8046875
3.0220458984375
3.0236572265625
3.0244628906249997
3.02607421875
3.0268798828124996
3.0268798828124996
1.658056640625
0.5099853515625
0.023364257812499997
0.020947265625
0.022558593749999998
0.018530273437499998
0.024169921875
0.02578125
0.017724609375
0.023364257812499997
0.02578125
0.023364257812499997
0.019335937499999997
0.024169921875
0.023364257812499997
0.026586914062499998
0.0249755859375
0.08137207031249999
0.16274414062499998
0.23122558593749998
0.301318359375
0.394775390625
2.0761962890625
2.78759765625
3.021240234375
3.0252685546875
3.0252685546875
3.0228515624999996
2.9583984374999996
2.9020019531249996
2.6055175781249997
2.4685546874999997
2.3396484374999997
2.3259521484375
2.0818359374999997
1.8844482421875
3.0228515624999996
3.02607421875
3.0236572265625
3.0301025390625
3.0228515624999996
3.0284912109374997
1.9835449218749999
1.05380859375
0.027392578124999997
0.026586914062499998
0.022558593749999998
0.022558593749999998
0.0281982421875
0.02578125
0.024169921875
0.024169921875
0.0201416015625
0.026586914062499998
0.022558593749999998
0.022558593749999998
0.020947265625
0.0249755859375
0.022558593749999998
0.0346435546875
0.10957031249999999
0.21591796875
0.2860107421875
0.348046875
1.9271484374999999
2.7779296875
3.0236572265625
3.0252685546875
3.01962890625
3.02607421875
2.8955566406249997
2.89072265625
2.824658203125
2.6200195312499996
2.4661376953125
2.2373291015625
2.1140624999999997
1.9142578124999998
3.0309082031249996
3.0204345703124997
3.0244628906249997
3.0268798828124996
3.0244628906249997
3.0268798828124996
2.7650390624999996
1.0675048828125
0.026586914062499998
0.023364257812499997
0.0201416015625
0.020947265625
0.02578125
0.0217529296875
0.02900390625
0.022558593749999998
0.023364257812499997
0.0281982421875
0.024169921875
0.022558593749999998
0.0217529296875
0.022558593749999998
0.024169921875
0.019335937499999997
0.116015625
0.19013671875
0.265869140625
0.33515625
1.6564453124999998
2.6965576171874996
3.027685546875
3.02607421875
3.0204345703124997
3.0244628906249997
2.99384765625
2.921337890625
2.7835693359375
2.5982666015625
2.39765625
2.26552734375
2.112451171875
1.8522216796875
1.77568359375
3.0268798828124996
3.0309082031249996
3.0244628906249997
3.0268798828124996
3.0268798828124996
2.8899169921874996
1.47275390625
0.185302734375
0.0217529296875
0.024169921875
0.027392578124999997
0.024169921875
0.02578125
0.0201416015625
0.023364257812499997
0.027392578124999997
0.018530273437499998
0.027392578124999997
0.023364257812499997
0.020947265625
0.023364257812499997
0.0281982421875
0.024169921875
0.0708984375
0.149853515625
0.17080078124999998
0.323876953125
0.38107910156249997
2.3678466796874997
3.0268798828124996
3.02607421875
3.027685546875
3.018017578125
3.0236572265625
2.940673828125
2.8713867187499997
2.5257568359375
2.3614013671875
2.1624023437499997
1.9940185546875
1.8361083984375
1.6846435546874998
3.0204345703124997
3.0228515624999996
3.0244628906249997
3.02607421875
3.0268798828124996
3.0301025390625
1.912646484375
0.3585205078125
0.023364257812499997
0.023364257812499997
0.018530273437499998
0.024169921875
0.018530273437499998
0.0201416015625
0.0217529296875
0.0201416015625
0.022558593749999998
0.023364257812499997
0.0281982421875
0.022558593749999998
0.023364257812499997
0.0217529296875
0.020947265625
0.0580078125
0.1538818359375
0.23283691406249998
0.301318359375
0.375439453125
2.2002685546875
2.7577880859375
3.027685546875
3.0244628906249997
3.0268798828124996
3.0301025390625
2.956787109375
2.82626953125
2.7650390624999996
2.5233398437499996
2.3146728515625
2.2147705078124997
2.067333984375
1.9472900390624999
3.0188232421874996
3.0268798828124996
3.02607421875
3.0244628906249997
3.0252685546875
3.02607421875
1.764404296875
0.7661865234374999
0.023364257812499997
0.023364257812499997
0.0249755859375
0.0217529296875
0.02578125
0.0217529296875
0.0249755859375
0.022558593749999998
0.023364257812499997
0.018530273437499998
0.024169921875
0.022558593749999998
0.0217529296875
0.022558593749999998
0.0249755859375
0.07734374999999999
0.1538818359375
0.22880859374999998
0.2956787109375
0.3875244140625
2.1060058593749997
2.905224609375
3.0244628906249997
3.02607421875
3.0220458984375
3.02607421875
2.9962646484374997
2.9302001953124996
2.8222412109375
2.5233398437499996
2.386376953125
2.1938232421875
1.98837890625
1.8167724609375
3.0244628906249997
3.0252685546875
3.02607421875
3.0228515624999996
3.0268798828124996
3.02607421875
2.7980712890625
1.43408203125
0.023364257812499997
0.023364257812499997
0.024169921875
0.022558593749999998
0.0217529296875
0.023364257812499997
0.024169921875
0.023364257812499997
0.0217529296875
0.0217529296875
0.018530273437499998
0.023364257812499997
0.027392578124999997
0.023364257812499997
0.024169921875
0.02578125
0.0797607421875
0.1506591796875
0.2505615234375
0.3198486328125
0.38671875
2.570068359375
2.9737060546875
3.0236572265625
3.0284912109374997
2.9817626953125
2.9608154296875
2.8528564453125
2.7513427734375
2.689306640625
2.389599609375
2.1809326171875
2.09150390625
1.9271484374999999
1.8006591796875
3.0244628906249997
3.02607421875
3.0252685546875
3.0244628906249997
3.0252685546875
3.0244628906249997
1.3881591796875
0.064453125
0.0201416015625
0.023364257812499997
0.023364257812499997
0.022558593749999998
0.0169189453125
0.023364257812499997
0.023364257812499997
0.023364257812499997
0.022558593749999998
0.027392578124999997
0.02900390625
0.022558593749999998
0.0217529296875
0.023364257812499997
0.0249755859375
0.08620605468749999
0.1861083984375
0.26022949218749997
0.32871093749999997
0.4165283203125
2.415380859375
3.018017578125
3.02607421875
3.029296875
3.01962890625
3.01318359375
2.8738037109374996
2.7650390624999996
2.5885986328125
2.3267578125
2.176904296875
2.02705078125
1.931982421875
1.6717529296875
3.0220458984375
3.0268798828124996
3.0228515624999996
3.0252685546875
3.02607421875
3.0284912109374997
1.6935058593749999
0.6034423828125
0.022558593749999998
0.022558593749999998
0.0249755859375
0.0169189453125
0.023364257812499997
0.018530273437499998
0.024169921875
0.017724609375
0.023364257812499997
0.023364257812499997
0.018530273437499998
0.023364257812499997
0.024169921875
0.022558593749999998
0.027392578124999997
0.095068359375
0.1740234375
0.2457275390625
0.34079589843749997
0.4036376953125
2.29775390625
3.0244628906249997
3.0244628906249997
3.0236572265625
3.0244628906249997
3.021240234375
2.8810546875
2.8093505859374996
2.7078369140625
2.4806396484374997
2.2953369140624997
2.1060058593749997
1.960986328125
1.8183837890624999
3.0236572265625
3.0236572265625
3.029296875
3.0204345703124997
3.02607421875
3.021240234375
2.1325927734375
0.8854248046875
0.0169189453125
0.0217529296875
0.023364257812499997
0.023364257812499997
0.02900390625
0.023364257812499997
0.022558593749999998
0.023364257812499997
0.0249755859375
0.018530273437499998
0.024169921875
0.018530273437499998
0.023364257812499997
0.022558593749999998
0.0201416015625
0.049145507812499996
0.12810058593749998
0.230419921875
0.2956787109375
0.3601318359375
1.9432617187499999
2.9575927734375
3.0268798828124996
3.0268798828124996
3.0284912109374997
2.98740234375
2.9785400390624996
2.956787109375
2.8214355468749996
2.570068359375
2.4161865234374997
2.2623046875
2.0898925781249997
1.77568359375
3.02607421875
3.02607421875
3.0204345703124997
3.0244628906249997
3.0244628906249997
3.02607421875
2.1865722656249997
1.1915771484375
0.023364257812499997
0.024169921875
0.018530273437499998
0.02578125
0.018530273437499998
0.022558593749999998
0.0217529296875
0.017724609375
0.024169921875
0.023364257812499997
0.023364257812499997
0.027392578124999997
0.022558593749999998
0.0281982421875
0.023364257812499997
0.024169921875
0.095068359375
0.1716064453125
0.249755859375
0.339990234375
2.1293701171875
2.65869140625
3.0228515624999996
3.02607421875
3.0268798828124996
3.02607421875
2.9302001953124996
2.8738037109374996
2.7908203124999997
2.608740234375
2.3694580078125
2.1720703125
1.9625976562499998
1.815966796875
1.667724609375
3.027685546875
3.0204345703124997
3.0284912109374997
3.0244628906249997
3.027685546875
3.0244628906249997
1.5726562499999999
0.022558593749999998
0.0281982421875
0.022558593749999998
0.026586914062499998
0.023364257812499997
0.019335937499999997
0.026586914062499998
0.023364257812499997
0.020947265625
0.023364257812499997
0.023364257812499997
0.022558593749999998
0.024169921875
0.023364257812499997
0.027392578124999997
0.024169921875
0.08217773437499999
0.1635498046875
0.2618408203125
0.330322265625
0.38913574218749997
2.591015625
2.9769287109375
3.0220458984375
3.027685546875
3.0268798828124996
3.0244628906249997
2.8423828125
2.89072265625
2.81982421875
2.5934326171874997
2.3404541015625
2.141455078125
1.9271484374999999
1.84013671875
3.0228515624999996
3.0252685546875
3.0220458984375
3.0252685546875
3.02607421875
3.0252685546875
1.8780029296874998
0.517236328125
0.026586914062499998
0.018530273437499998
0.023364257812499997
0.023364257812499997
0.0249755859375
0.019335937499999997
0.026586914062499998
0.02900390625
0.023364257812499997
0.017724609375
0.0281982421875
0.020947265625
0.023364257812499997
0.020947265625
0.023364257812499997
0.024169921875
0.1087646484375
0.18852539062499998
0.26103515625
0.35288085937499997
2.0979492187499997
2.81982421875
3.0236572265625
3.0268798828124996
3.029296875
3.02607421875
2.9011962890625
2.8697753906249996
2.82626953125
2.582958984375
2.399267578125
2.25263671875
2.151123046875
1.9714599609374999
3.0252685546875
3.021240234375
3.0236572265625
3.0244628906249997
3.02607421875
3.02607421875
1.7716552734375
0.9402099609375
0.023364257812499997
0.02578125
0.022558593749999998
0.022558593749999998
0.0217529296875
0.023364257812499997
0.020947265625
0.024169921875
0.024169921875
0.023364257812499997
0.022558593749999998
0.0217529296875
0.023364257812499997
0.022558593749999998
0.0217529296875
0.024169921875
0.078955078125
0.159521484375
0.2586181640625
0.3230712890625
1.5621826171875
2.7505371093749997
3.0252685546875
3.0268798828124996
3.0284912109374997
3.0252685546875
2.8464111328125
2.81015625
2.5797363281249996
2.3783203125
2.1825439453124997
2.0069091796875
1.7523193359375
1.7958251953125
2.624853515625
3.01962890625
3.0244628906249997
3.0252685546875
3.0244628906249997
3.0252685546875
2.792431640625
1.055419921875
0.022558593749999998
0.024169921875
0.022558593749999998
0.0281982421875
0.0217529296875
0.026586914062499998
0.022558593749999998
0.019335937499999997
0.027392578124999997
0.026586914062499998
0.020947265625
0.022558593749999998
0.0249755859375
0.023364257812499997
0.02578125
0.04833984375
0.1248779296875
0.2296142578125
0.301318359375
0.3633544921875
1.8860595703124998
2.6014892578124997
2.9882080078124997
3.02607421875
3.0252685546875
3.02607421875
3.0236572265625
2.9624267578124996
2.9358398437499997
2.8238525390625
2.4629150390625
2.31064453125
2.1704589843749997
2.044775390625
2.5587890625
3.0252685546875
3.0236572265625
3.0244628906249997
3.0284912109374997
3.0284912109374997
2.81015625
1.5726562499999999
0.2586181640625
0.0217529296875
0.0217529296875
0.026586914062499998
0.020947265625
0.017724609375
0.023364257812499997
0.022558593749999998
0.0217529296875
0.0217529296875
0.019335937499999997
0.018530273437499998
0.023364257812499997
0.0201416015625
0.020947265625
0.023364257812499997
0.0765380859375
0.159521484375
0.23122558593749998
0.32145996093749996
0.38591308593749996
2.16884765625
2.8625244140625
3.0236572265625
3.0252685546875
2.995458984375
2.9342285156249996
2.8383544921875
2.8399658203125
2.640966796875
2.3259521484375
2.2131591796875
1.896533203125
1.8812255859375
1.767626953125
3.0244628906249997
3.0252685546875
3.0244628906249997
3.0244628906249997
3.027685546875
3.0252685546875
1.7184814453125
0.7371826171875
0.023364257812499997
0.023364257812499997
0.018530273437499998
0.026586914062499998
0.017724609375
0.024169921875
0.0217529296875
0.02578125
0.0217529296875
0.0217529296875
0.022558593749999998
0.02578125
0.022558593749999998
0.0281982421875
0.0281982421875
0.103125
0.182080078125
0.27392578125
0.346435546875
0.40605468749999996
2.1583740234374997
2.995458984375
3.0252685546875
3.0284912109374997
3.0236572265625
3.01962890625
3.0228515624999996
2.8037109375
2.640966796875
2.441162109375
2.328369140625
2.1712646484375
1.8280517578125
1.864306640625
3.0244628906249997
3.0244628906249997
3.0244628906249997
3.0268798828124996
3.02607421875
3.0317138671875
2.5547607421875
0.78955078125
0.022558593749999998
0.022558593749999998
0.0249755859375
0.017724609375
0.023364257812499997
0.019335937499999997
0.022558593749999998
0.024169921875
0.0249755859375
0.024169921875
0.0281982421875
0.024169921875
0.024169921875
0.024169921875
0.0249755859375
0.0322265625
0.133740234375
0.20625
0.28359375
0.34965820312499996
1.6250244140624999
2.5853759765624997
2.9011962890625
3.0228515624999996
2.8174072265624996
2.972900390625
3.0220458984375
2.908447265625
2.8754150390624997
2.6119628906249996
2.4290771484375
2.231689453125
2.07216796875
1.896533203125
3.0317138671875
3.027685546875
3.0220458984375
3.02607421875
3.0252685546875
3.029296875
2.1857666015625
1.2334716796875
0.0201416015625
0.023364257812499997
0.022558593749999998
0.024169921875
0.0201416015625
0.023364257812499997
0.0201416015625
0.018530273437499998
0.022558593749999998
0.02900390625
0.023364257812499997
0.024169921875
0.022558593749999998
0.026586914062499998
0.038671874999999994
0.049145507812499996
0.1232666015625
0.20302734374999998
0.27392578125
0.362548828125
0.42619628906249996
2.196240234375
2.81015625
2.9994873046875
3.005126953125
3.0075439453125
2.9334228515625
2.9342285156249996
2.8456054687499996
2.6498291015624997
2.4194091796875
2.3501220703125
2.2212158203125
2.0488037109375
1.95615234375
3.01962890625
3.0301025390625
3.0252685546875
3.029296875
3.0204345703124997
3.011572265625
1.593603515625
0.022558593749999998
0.020947265625
0.022558593749999998
0.017724609375
0.024169921875
0.0217529296875
0.020947265625
0.027392578124999997
0.022558593749999998
0.022558593749999998
0.023364257812499997
0.017724609375
0.02900390625
0.022558593749999998
0.024169921875
0.0394775390625
0.11843261718749999
0.19497070312499998
0.2876220703125
0.3544921875
0.41813964843749996
2.367041015625
2.8955566406249997
3.02607421875
3.0228515624999996
3.0002929687499997
2.96484375
2.8512451171874997
2.7755126953125
2.647412109375
2.4580810546875
2.109228515625
2.0906982421875
1.98193359375
2.0214111328124997
3.02607421875
3.0236572265625
3.027685546875
3.0236572265625
3.02607421875
3.02607421875
1.8167724609375
0.5389892578125
0.022558593749999998
0.0217529296875
0.022558593749999998
0.0217529296875
0.027392578124999997
0.026586914062499998
0.0249755859375
0.0249755859375
0.0217529296875
0.022558593749999998
0.022558593749999998
0.02578125
0.022558593749999998
0.02578125
0.0249755859375
0.10554199218749999
0.182080078125
0.2553955078125
0.323876953125
0.40927734374999997
1.95615234375
2.70703125
2.9906249999999996
3.0252685546875
3.0244628906249997
3.02607421875
2.908447265625
2.7819580078125
2.7110595703125
2.5209228515624997
2.36865234375
2.193017578125
1.9811279296875
1.7853515624999998
3.0220458984375
3.0236572265625
3.02607421875
3.0252685546875
3.0252685546875
3.029296875
1.948095703125
1.0546142578125
0.024169921875
0.02900390625
0.026586914062499998
0.018530273437499998
0.022558593749999998
0.022558593749999998
0.023364257812499997
0.0281982421875
0.0201416015625
0.0281982421875
0.0281982421875
0.022558593749999998
0.022558593749999998
0.024169921875
0.022558593749999998
0.08701171875
0.1651611328125
0.2384765625
0.33273925781249997
0.39316406249999997
1.7176757812499999
2.6981689453124997
3.0244628906249997
3.0268798828124996
2.9559814453124997
3.02607421875
2.811767578125
2.843994140625
2.771484375
2.5072265624999996
2.358984375
2.2107421874999997
2.1140624999999997
1.9384277343749998
2.357373046875
3.0252685546875
3.02607421875
3.0252685546875
3.0317138671875
3.02607421875
2.9398681640624997
1.1021484375
0.022558593749999998
0.024169921875
0.024169921875
0.026586914062499998
0.027392578124999997
0.018530273437499998
0.022558593749999998
0.0217529296875
0.023364257812499997
0.0217529296875
0.0201416015625
0.022558593749999998
0.022558593749999998
0.022558593749999998
0.019335937499999997
0.046728515624999994
0.12246093749999999
0.22075195312499998
0.2940673828125
0.36093749999999997
1.6298583984375
2.466943359375
2.8874999999999997
3.0244628906249997
3.027685546875
2.9745117187499996
3.0091552734375
2.9108642578125
2.8858886718749996
2.7328124999999996
2.5080322265625
2.280029296875
2.1470947265625
1.9730712890625
1.8796142578125
3.0244628906249997
3.0317138671875
3.0236572265625
3.0244628906249997
3.0252685546875
2.9640380859374997
1.7289550781249998
0.4439208984375
0.0217529296875
0.0217529296875
0.023364257812499997
0.024169921875
0.0217529296875
0.027392578124999997
0.0217529296875
0.023364257812499997
0.022558593749999998
0.022558593749999998
0.0217529296875
0.023364257812499997
0.024169921875
0.0217529296875
0.024169921875
0.0910400390625
0.17241210937499998
0.24169921875
0.33757324218749996
0.40202636718749996
2.334814453125
2.9068359375
3.02607421875
3.0284912109374997
3.021240234375
3.0268798828124996
2.8721923828125
2.8770263671875
2.68125
2.4500244140625
2.2751953124999997
2.0842529296875
1.8578613281249998
1.73056640625
3.0236572265625
3.0252685546875
3.0244628906249997
3.0268798828124996
3.0244628906249997
3.02607421875
1.803076171875
0.7919677734374999
0.023364257812499997
0.022558593749999998
0.026586914062499998
0.0217529296875
0.0217529296875
0.024169921875
0.0217529296875
0.022558593749999998
0.0217529296875
0.024169921875
0.0217529296875
0.022558593749999998
0.022558593749999998
0.02578125
0.024169921875
0.0829833984375
0.16435546874999998
0.259423828125
0.3262939453125
0.39316406249999997
1.893310546875
2.9761230468749997
3.0228515624999996
3.0268798828124996
3.02607421875
3.0236572265625
2.9197265624999997
2.7328124999999996
2.624853515625
2.431494140625
2.4282714843749997
2.2405517578125
2.125341796875
1.9432617187499999
3.0244628906249997
3.0188232421874996
3.0268798828124996
3.0268798828124996
3.029296875
3.0252685546875
2.6603027343749996
0.9635742187499999
0.0201416015625
0.022558593749999998
0.022558593749999998
0.023364257812499997
0.019335937499999997
0.022558593749999998
0.023364257812499997
0.024169921875
0.023364257812499997
0.023364257812499997
0.022558593749999998
0.022558593749999998
0.0249755859375
0.0201416015625
0.0217529296875
0.0249755859375
0.091845703125
0.1957763671875
0.2715087890625
0.33273925781249997
1.8586669921874999
2.5241455078125
3.0325195312499997
3.027685546875
3.0236572265625
3.0244628906249997
3.0244628906249997
2.91328125
2.7972656249999996
2.5894042968749997
2.4145751953125
2.2469970703124997
2.109228515625
1.9440673828125
3.0244628906249997
3.0252685546875
3.0204345703124997
3.027685546875
3.021240234375
3.027685546875
2.578125
1.40185546875
0.088623046875
0.022558593749999998
0.026586914062499998
0.0201416015625
0.023364257812499997
0.0217529296875
0.023364257812499997
0.027392578124999997
0.022558593749999998
0.022558593749999998
0.02578125
0.0249755859375
0.020947265625
0.0281982421875
0.023364257812499997
0.023364257812499997
0.0749267578125
0.15146484375
0.2296142578125
0.322265625
0.3843017578125
2.1704589843749997
2.73603515625
3.021240234375
3.02607421875
3.0228515624999996
2.9737060546875
2.8802490234375
2.8230468749999997
2.6111572265625
2.5193115234374996
2.402490234375
2.1841552734375
2.0012695312499997
1.8989501953124999
3.02607421875
3.0220458984375
3.0252685546875
3.0244628906249997
3.0252685546875
3.02607421875
1.8240234375
0.5478515625
0.0217529296875
0.022558593749999998
0.0217529296875
0.0217529296875
0.0249755859375
0.020947265625
0.02578125
0.027392578124999997
0.0217529296875
0.022558593749999998
0.022558593749999998
0.023364257812499997
0.019335937499999997
0.026586914062499998
0.0201416015625
0.0539794921875
0.133740234375
0.23525390624999998
0.301318359375
0.3681884765625
2.102783203125
2.9906249999999996
3.029296875
3.0252685546875
2.9914306640625
3.01962890625
2.8391601562499997
2.65869140625
2.6014892578124997
2.4556640625
2.333203125
2.2405517578125
2.0713623046875
1.8506103515624999
3.0284912109374997
3.029296875
3.0252685546875
3.0244628906249997
3.0244628906249997
3.0220458984375
2.3017822265625
0.5631591796875
0.023364257812499997
0.023364257812499997
0.024169921875
0.022558593749999998
0.019335937499999997
0.0217529296875
0.0217529296875
0.026586914062499998
0.026586914062499998
0.023364257812499997
0.023364257812499997
0.022558593749999998
0.023364257812499997
0.0217529296875
0.027392578124999997
0.03544921875
0.1393798828125
0.214306640625
0.285205078125
0.3520751953125
1.843359375
2.6272705078125
2.8673583984374997
3.0204345703124997
2.9962646484374997
3.0228515624999996
2.9181152343749996
2.8496337890624996
2.840771484375
2.4234375
2.4041015624999997
2.1696533203125
2.035107421875
1.7724609375
3.0244628906249997
3.0252685546875
3.0252685546875
3.02607421875
3.02607421875
3.0252685546875
2.0069091796875
1.1545166015625
0.022558593749999998
0.022558593749999998
0.02578125
0.024169921875
0.0217529296875
0.024169921875
0.0249755859375
0.0249755859375
0.023364257812499997
0.023364257812499997
0.022558593749999998
0.026586914062499998
0.0249755859375
0.022558593749999998
0.0201416015625
0.049951171875
0.1248779296875
0.20947265625
0.2795654296875
0.3673828125
2.0496093749999997
2.6441894531249996
3.027685546875
3.02607421875
3.0236572265625
3.005126953125
2.882666015625
2.7916259765625
2.731201171875
2.454052734375
2.296142578125
2.1624023437499997
1.960986328125
1.7829345703125
1.670947265625
3.0252685546875
3.027685546875
3.01962890625
3.0204345703124997
3.0204345703124997
2.83271484375
1.5807128906249999
0.02578125
0.02900390625
0.023364257812499997
0.0281982421875
0.02578125
0.023364257812499997
0.022558593749999998
0.026586914062499998
0.027392578124999997
0.027392578124999997
0.0217529296875
0.0249755859375
0.024169921875
0.023364257812499997
0.0217529296875
0.0459228515625
0.12246093749999999
0.1998046875
0.29326171875
0.36174316406249996
0.42216796874999996
2.450830078125
2.89716796875
3.0268798828124996
3.0164062499999997
3.0268798828124996
3.0228515624999996
2.9205322265625
2.8633300781249997
2.7183105468749997
2.4911132812499996
2.341259765625
2.1342041015624997
2.0576660156249997
1.9102294921874998
3.0244628906249997
3.0252685546875
3.0244628906249997
3.02607421875
3.021240234375
3.0268798828124996
1.6105224609375
0.294873046875
0.020947265625
0.024169921875
0.022558593749999998
0.023364257812499997
0.018530273437499998
0.0281982421875
0.023364257812499997
0.022558593749999998
0.0217529296875
0.017724609375
0.017724609375
0.023364257812499997
0.022558593749999998
0.02578125
0.0249755859375
0.064453125
0.1651611328125
0.24331054687499998
0.3198486328125
0.37705078124999997
2.08505859375
2.7005859374999996
3.01318359375
3.0284912109374997
3.0268798828124996
3.0301025390625
2.7980712890625
2.8995849609374997
2.8536621093749996
2.63935546875
2.5845703125
2.2913085937499997
2.1954345703125
1.9456787109375
3.0228515624999996
3.0268798828124996
3.0204345703124997
3.021240234375
3.0252685546875
3.0244628906249997
1.9432617187499999
0.8580322265625
0.019335937499999997
0.0281982421875
0.02578125
0.022558593749999998
0.019335937499999997
0.022558593749999998
0.024169921875
0.0217529296875
0.022558593749999998
0.023364257812499997
0.0217529296875
0.02578125
0.020947265625
0.0201416015625
0.023364257812499997
0.040283203125
0.12165527343749999
0.191748046875
0.265869140625
0.3601318359375
1.73056640625
2.6111572265625
3.02607421875
3.0236572265625
3.02607421875
2.9946533203124996
2.9020019531249996
2.8552734374999997
2.7666503906249997
2.578125
2.418603515625
2.24619140625
2.1084228515625
1.941650390625
3.0236572265625
3.0252685546875
3.0252685546875
3.0228515624999996
3.0244628906249997
3.027685546875
2.7368408203124996
1.3744628906249998
0.022558593749999998
0.027392578124999997
0.0201416015625
0.017724609375
0.024169921875
0.0201416015625
0.023364257812499997
0.022558593749999998
0.022558593749999998
0.022558593749999998
0.024169921875
0.022558593749999998
0.024169921875
0.019335937499999997
0.022558593749999998
0.024169921875
0.08217773437499999
0.1611328125
0.26103515625
0.330322265625
0.791162109375
2.3855712890625
3.0083496093749997
3.0252685546875
3.02607421875
3.027685546875
2.956787109375
2.8447998046875
2.7674560546875
2.6039062499999996
2.4564697265624997
2.2888916015625
2.1889892578125
1.944873046875
1.9078125
3.0244628906249997
3.0244628906249997
3.021240234375
3.0244628906249997
3.0301025390625
3.0244628906249997
1.8054931640624998
0.12165527343749999
0.022558593749999998
0.022558593749999998
0.0249755859375
0.020947265625
0.020947265625
0.027392578124999997
0.0249755859375
0.022558593749999998
0.0201416015625
0.024169921875
0.02578125
0.022558593749999998
0.022558593749999998
0.018530273437499998
0.023364257812499997
0.0459228515625
0.120849609375
0.22478027343749998
0.291650390625
0.36416015625
2.34609375
2.9398681640624997
3.0252685546875
3.029296875
3.02607421875
2.96484375
2.7086425781249996
2.784375
2.6997802734375
2.44921875
2.2099365234375
2.128564453125
1.9940185546875
1.79501953125
3.02607421875
3.01962890625
3.02607421875
3.027685546875
3.027685546875
3.0244628906249997
1.7603759765625
0.52529296875
0.018530273437499998
0.023364257812499997
0.022558593749999998
0.022558593749999998
0.020947265625
0.0249755859375
0.023364257812499997
0.0281982421875
0.023364257812499997
0.024169921875
0.023364257812499997
0.017724609375
0.024169921875
0.024169921875
0.0217529296875
0.046728515624999994
0.153076171875
0.2215576171875
0.29648437499999997
0.3843017578125
2.0906982421875
2.785986328125
3.0252685546875
3.027685546875
2.9946533203124996
2.89716796875
2.8302978515625
2.727978515625
2.6433837890625
2.487890625
2.3525390625
2.196240234375
1.9907958984374998
1.791796875
3.0204345703124997
3.0236572265625
3.027685546875
3.029296875
3.0252685546875
3.02607421875
2.6119628906249996
1.22138671875
0.022558593749999998
0.02900390625
0.023364257812499997
0.0217529296875
0.0281982421875
0.023364257812499997
0.023364257812499997
0.022558593749999998
0.022558593749999998
0.023364257812499997
0.0249755859375
0.0217529296875
0.022558593749999998
0.024169921875
0.02578125
0.06606445312499999
0.146630859375
0.217529296875
0.2876220703125
0.38349609375
2.002880859375
2.69091796875
2.9761230468749997
3.0268798828124996
3.0301025390625
3.0268798828124996
3.0091552734375
2.76826171875
2.8593017578124997
2.6643310546874996
2.4065185546875
2.2212158203125
2.0657226562499997
1.93681640625
1.780517578125
3.0268798828124996
3.021240234375
3.037353515625
3.0268798828124996
3.0268798828124996
2.9922363281249997
1.7531249999999998
0.024169921875
0.023364257812499997
0.022558593749999998
0.022558593749999998
0.027392578124999997
0.023364257812499997
0.023364257812499997
0.023364257812499997
0.02578125
0.019335937499999997
0.02578125
0.022558593749999998
0.0217529296875
0.023364257812499997
0.017724609375
0.024169921875
0.08540039062499999
0.16032714843749998
0.23283691406249998
0.330322265625
0.3955810546875
2.4339111328125
3.0252685546875
3.0244628906249997
3.0284912109374997
2.905224609375
3.027685546875
2.8576904296874996
2.8391601562499997
2.8133789062499996
2.489501953125
2.328369140625
2.0794189453125
1.85625
1.6153564453125
3.0268798828124996
3.0228515624999996
3.02607421875
3.0252685546875
3.021240234375
3.0252685546875
1.593603515625
0.38591308593749996
0.022558593749999998
0.023364257812499997
0.022558593749999998
0.0281982421875
0.019335937499999997
0.022558593749999998
0.022558593749999998
0.022558593749999998
0.022558593749999998
0.0217529296875
0.024169921875
0.023364257812499997
0.0281982421875
0.023364257812499997
0.0217529296875
0.061230468749999996
0.143408203125
0.23686523437499998
0.30937499999999996
0.3802734375
1.6604736328124998
2.80048828125
3.0244628906249997
3.0172119140625
3.0268798828124996
3.0228515624999996
3.0147949218749996
2.7505371093749997
2.6063232421875
2.3968505859375
2.2953369140624997
2.0278564453125
1.9545410156249998
1.7023681640625
3.0301025390625
3.02607421875
3.0268798828124996
3.01962890625
3.0301025390625
3.0236572265625
2.698974609375
0.9490722656249999
0.0217529296875
0.022558593749999998
0.023364257812499997
0.024169921875
0.019335937499999997
0.023364257812499997
0.024169921875
0.027392578124999997
0.0169189453125
0.023364257812499997
0.02900390625
0.023364257812499997
0.023364257812499997
0.0281982421875
0.030615234374999998
0.0797607421875
0.18852539062499998
0.26022949218749997
0.3343505859375
0.38913574218749997
1.8232177734375
2.7497314453125
3.0204345703124997
3.029296875
3.029296875
3.003515625
3.0091552734375
2.9100585937499996
2.9156982421874997
2.6216308593749997
2.3960449218749997
2.18818359375
2.0665283203125
1.819189453125
2.9060302734374996
3.02607421875
3.0236572265625
3.0228515624999996
3.0252685546875
3.029296875
2.553955078125
1.4461669921875
0.1611328125
0.026586914062499998
0.022558593749999998
0.027392578124999997
0.022558593749999998
0.019335937499999997
0.023364257812499997
0.0169189453125
0.022558593749999998
0.022558593749999998
0.0217529296875
0.024169921875
0.0249755859375
0.023364257812499997
0.024169921875
0.0249755859375
0.120849609375
0.1941650390625
0.2698974609375
0.35771484374999996
0.4245849609375
2.408935546875
2.96484375
3.0268798828124996
3.029296875
2.8593017578124997
3.0139892578125
2.9116699218749997
2.763427734375
2.5821533203125
2.4097412109375
2.212353515625
2.002880859375
1.8949218749999999
1.738623046875
3.0252685546875
3.027685546875
3.027685546875
3.0228515624999996
3.0244628906249997
3.02607421875
1.770849609375
0.7001220703125
0.027392578124999997
0.022558593749999998
0.023364257812499997
0.023364257812499997
0.023364257812499997
0.022558593749999998
0.024169921875
0.0169189453125
0.027392578124999997
0.0169189453125
0.026586914062499998
0.0217529296875
0.02578125
0.024169921875
0.024169921875
0.07734374999999999
0.1619384765625
0.1780517578125
0.330322265625
0.39638671875
2.0761962890625
2.8689697265625
3.0268798828124996
3.0252685546875
3.0244628906249997
3.0284912109374997
2.9906249999999996
2.8850830078125
2.6538574218749997
2.4210205078125
2.2953369140624997
2.099560546875
1.9070068359374999
1.7208984374999998
3.0268798828124996
3.0228515624999996
3.0244628906249997
3.0228515624999996
3.02607421875
3.027685546875
2.2429687499999997
0.8016357421875
0.0249755859375
0.026586914062499998
0.022558593749999998
0.023364257812499997
0.023364257812499997
0.022558593749999998
0.023364257812499997
0.026586914062499998
0.0281982421875
0.0249755859375
0.023364257812499997
0.022558593749999998
0.026586914062499998
0.022558593749999998
0.023364257812499997
0.058813476562499994
0.1635498046875
0.2384765625
0.307763671875
0.37060546875
1.960986328125
2.7134765625
2.9849853515625
3.0325195312499997
2.9753173828125
2.9455078125
2.979345703125
2.8496337890624996
2.7948486328124997
2.4830566406249996
2.3436767578124997
2.096337890625
2.006103515625
1.7660156249999999
3.0220458984375
3.0252685546875
3.027685546875
3.02607421875
3.0252685546875
3.0244628906249997
2.1205078125
1.110205078125
0.0217529296875
0.0249755859375
0.023364257812499997
0.0281982421875
0.022558593749999998
0.019335937499999997
0.027392578124999997
0.022558593749999998
0.0249755859375
0.023364257812499997
0.0201416015625
0.024169921875
0.0249755859375
0.018530273437499998
0.02900390625
0.0684814453125
0.1538818359375
0.23203125
0.29648437499999997
0.38188476562499996
2.00771484375
2.776318359375
3.0252685546875
3.01962890625
3.0268798828124996
3.027685546875
3.0010986328125
2.9753173828125
2.9124755859375
2.5958496093749996
2.3912109375
2.26552734375
2.0488037109375
1.9440673828125
1.8006591796875
3.0252685546875
3.0236572265625
3.0301025390625
3.029296875
3.0244628906249997
2.9527587890625
1.66611328125
0.0201416015625
0.0217529296875
0.024169921875
0.019335937499999997
0.024169921875
0.022558593749999998
0.024169921875
0.0249755859375
0.024169921875
0.0281982421875
0.0169189453125
0.023364257812499997
0.026586914062499998
0.022558593749999998
0.023364257812499997
0.024169921875
0.0652587890625
0.1458251953125
0.24492187499999998
0.3182373046875
0.3794677734375
2.5394531249999996
3.027685546875
3.0228515624999996
3.0252685546875
2.9543701171874996
3.0010986328125
2.908447265625
2.88427734375
2.642578125
2.4306884765625
2.093115234375
2.0898925781249997
1.9875732421874999
1.8224121093749999
3.027685546875
3.0244628906249997
3.0204345703124997
3.0236572265625
3.0268798828124996
3.029296875
1.8038818359375
0.5857177734375
0.022558593749999998
0.022558593749999998
0.019335937499999997
0.023364257812499997
0.0217529296875
0.023364257812499997
0.022558593749999998
0.026586914062499998
0.022558593749999998
0.026586914062499998
0.018530273437499998
0.0169189453125
0.024169921875
0.020947265625
0.027392578124999997
0.027392578124999997
0.1232666015625
0.19899902343749998
0.2715087890625
0.36174316406249996
2.3307861328125
2.924560546875
3.0244628906249997
3.029296875
3.0244628906249997
3.011572265625
2.8963623046875
2.8576904296874996
2.7046142578124996
2.4468017578125
2.24619140625
2.0455810546874997
1.9916015624999999
1.82724609375
3.0309082031249996
3.0244628906249997
3.02607421875
3.0204345703124997
3.0268798828124996
3.02607421875
1.9811279296875
1.007080078125
0.024169921875
0.023364257812499997
0.0249755859375
0.011279296874999999
0.019335937499999997
0.02578125
0.0281982421875
0.022558593749999998
0.0281982421875
0.0281982421875
0.023364257812499997
0.0217529296875
0.023364257812499997
0.018530273437499998
0.024169921875
0.033837890625
0.10957031249999999
0.1877197265625
0.2860107421875
0.3472412109375
1.6290527343749999
2.5072265624999996
2.98095703125
3.0268798828124996
2.985791015625
3.0204345703124997
2.7980712890625
2.8061279296875
2.7134765625
2.6176025390624997
2.280029296875
2.152734375
2.0020751953125
1.8570556640625
2.9156982421874997
3.01962890625
3.029296875
3.0228515624999996
3.0188232421874996
3.02607421875
2.634521484375
1.6588623046875
0.022558593749999998
0.024169921875
0.023364257812499997
0.02578125
0.0217529296875
0.023364257812499997
0.023364257812499997
0.023364257812499997
0.022558593749999998
0.026586914062499998
0.027392578124999997
0.027392578124999997
0.022558593749999998
0.023364257812499997
0.02578125
0.04833984375
0.12246093749999999
0.22236328125
0.298095703125
0.3601318359375
1.6298583984375
2.5918212890624996
2.9285888671875
3.0252685546875
3.0252685546875
3.0252685546875
3.02607421875
2.9197265624999997
2.8294921874999996
2.6095458984374997
2.383154296875
2.2429687499999997
2.176904296875
1.9303710937499998
2.3597900390624997
3.0244628906249997
3.0244628906249997
3.0236572265625
3.0268798828124996
3.027685546875
3.02607421875
1.662890625
0.322265625
0.026586914062499998
0.023364257812499997
0.020947265625
0.0217529296875
0.0217529296875
0.022558593749999998
0.027392578124999997
0.019335937499999997
0.0249755859375
0.023364257812499997
0.027392578124999997
0.0249755859375
0.023364257812499997
0.026586914062499998
0.0249755859375
0.0926513671875
0.169189453125
0.24733886718749998
0.31662597656249997
0.40202636718749996
2.434716796875
2.9801513671874997
3.021240234375
3.029296875
3.0236572265625
2.9559814453124997
2.9519531249999997
2.8979736328124996
2.7988769531249997
2.4355224609375
2.31708984375
2.165625
2.012548828125
1.791796875
3.0236572265625
3.0317138671875
3.01962890625
3.02607421875
3.0188232421874996
3.0252685546875
1.84013671875
0.708984375
0.023364257812499997
0.022558593749999998
0.022558593749999998
0.023364257812499997
0.023364257812499997
0.022558593749999998
0.023364257812499997
0.027392578124999997
0.0281982421875
0.02900390625
0.022558593749999998
0.0201416015625
0.0201416015625
0.022558593749999998
0.0217529296875
0.0604248046875
0.1345458984375
0.23283691406249998
0.3053466796875
0.3673828125
2.131787109375
2.9898193359375
3.0268798828124996
3.02607421875
3.0236572265625
3.0220458984375
2.848828125
2.7416748046875
2.5096435546875
2.334814453125
2.2905029296875
2.0729736328125
1.909423828125
1.799853515625
3.021240234375
3.027685546875
3.0236572265625
3.02607421875
3.0244628906249997
3.02607421875
2.592626953125
0.8048583984375
0.0217529296875
0.024169921875
0.018530273437499998
0.026586914062499998
0.022558593749999998
0.0217529296875
0.023364257812499997
0.022558593749999998
0.023364257812499997
0.0217529296875
0.023364257812499997
0.024169921875
0.023364257812499997
0.026586914062499998
0.0281982421875
0.0515625
0.15791015625
0.2296142578125
0.30454101562499997
0.3665771484375
1.9086181640625
2.7432861328125
3.0228515624999996
3.0244628906249997
3.0252685546875
3.02607421875
2.9438964843749997
2.8544677734375
2.6272705078125
2.5467041015625
2.341259765625
2.20751953125
2.031884765625
1.9231201171874999
3.027685546875
3.0301025390625
3.0252685546875
3.0236572265625
3.02607421875
3.02607421875
2.260693359375
1.239111328125
0.0394775390625
0.0217529296875
0.024169921875
0.0217529296875
0.023364257812499997
0.017724609375
0.0249755859375
0.027392578124999997
0.018530273437499998
0.022558593749999998
0.023364257812499997
0.023364257812499997
0.022558593749999998
0.0217529296875
0.024169921875
0.0475341796875
0.116015625
0.1973876953125
0.2731201171875
0.356103515625
0.781494140625
2.512060546875
3.027685546875
3.0244628906249997
3.0228515624999996
3.0244628906249997
3.02607421875
2.9044189453125
2.8552734374999997
2.6627197265625
2.4564697265624997
2.281640625
2.044775390625
1.8441650390625
1.71123046875
3.0236572265625
3.0252685546875
3.0252685546875
3.0244628906249997
3.0268798828124996
3.0204345703124997
1.8135498046874998
0.024169921875
0.017724609375
0.02578125
0.022558593749999998
0.023364257812499997
0.022558593749999998
0.018530273437499998
0.0201416015625
0.023364257812499997
0.0249755859375
0.026586914062499998
0.0281982421875
0.022558593749999998
0.0217529296875
0.022558593749999998
0.022558593749999998
0.08137207031249999
0.15871582031249998
0.25620117187499997
0.32951660156249996
0.388330078125
2.5531494140624997
2.795654296875
3.0309082031249996
3.02607421875
2.99384765625
2.9358398437499997
2.7271728515625
2.5950439453125
2.3477050781249997
2.2373291015625
2.0794189453125
2.0214111328124997
1.877197265625
1.7337890624999999
3.02607421875
3.0244628906249997
3.02607421875
3.02607421875
3.02607421875
3.0268798828124996
1.9360107421875
0.46164550781249997
0.022558593749999998
0.022558593749999998
0.024169921875
0.0217529296875
0.023364257812499997
0.023364257812499997
0.0217529296875
0.022558593749999998
0.023364257812499997
0.023364257812499997
0.024169921875
0.022558593749999998
0.024169921875
0.022558593749999998
0.037060546874999996
0.11359863281249999
0.21914062499999998
0.281982421875
0.35288085937499997
0.439892578125
2.302587890625
2.9189208984375
3.02607421875
3.0252685546875
3.0252685546875
3.0204345703124997
2.9269775390625
2.9116699218749997
2.8294921874999996
2.5273681640624996
2.389599609375
2.2308837890624997
2.0625
1.8409423828125
3.0252685546875
3.0252685546875
3.0268798828124996
3.0244628906249997
3.0268798828124996
3.0228515624999996
2.04638671875
0.9901611328125
0.023364257812499997
0.018530273437499998
0.022558593749999998
0.023364257812499997
0.022558593749999998
0.019335937499999997
0.017724609375
0.026586914062499998
0.023364257812499997
0.023364257812499997
0.022558593749999998
0.024169921875
0.0217529296875
0.024169921875
0.0249755859375
0.0443115234375
0.116015625
0.19658203124999998
0.29326171875
0.3601318359375
1.9521240234375
2.7948486328124997
3.0252685546875
3.0309082031249996
3.0309082031249996
3.02607421875
2.8077392578125
2.8810546875
2.8456054687499996
2.6780273437499997
2.4838623046875
2.29775390625
2.1438720703125
1.9545410156249998
2.40087890625
3.021240234375
3.0268798828124996
3.0252685546875
3.021240234375
3.027685546875
2.6844726562499996
1.26328125
0.024169921875
0.0217529296875
0.020947265625
0.023364257812499997
0.018530273437499998
0.020947265625
0.024169921875
0.022558593749999998
0.0249755859375
0.0281982421875
0.022558593749999998
0.018530273437499998
0.017724609375
0.027392578124999997
0.022558593749999998
0.0217529296875
0.09748535156249999
0.20302734374999998
0.27634277343749997
0.3359619140625
0.64453125
2.6683593749999996
3.0204345703124997
3.0252685546875
3.0002929687499997
2.92294921875
2.8818603515624996
2.689306640625
2.6216308593749997
2.286474609375
2.312255859375
2.2067138671874997
2.0584716796875
1.8393310546875
1.9521240234375
3.0252685546875
3.0252685546875
3.0244628906249997
3.0252685546875
3.0252685546875
2.9882080078124997
1.5218994140625
0.23122558593749998
0.0217529296875
0.023364257812499997
0.018530273437499998
0.0217529296875
0.022558593749999998
0.020947265625
0.023364257812499997
0.0249755859375
0.024169921875
0.022558593749999998
0.02578125
0.024169921875
0.022558593749999998
0.023364257812499997
0.0322265625
0.136962890625
0.21108398437499998
0.278759765625
0.3681884765625
0.43022460937499996
2.2083251953125
2.8810546875
3.0244628906249997
3.02607421875
3.02607421875
3.0309082031249996
3.0204345703124997
2.9221435546874996
2.776318359375
2.4629150390625
2.3936279296875
2.204296875
1.98193359375
1.8457763671874998
3.027685546875
3.02607421875
3.0252685546875
3.0268798828124996
3.0244628906249997
3.02607421875
1.8925048828125
0.6807861328125
0.026586914062499998
0.023364257812499997
0.022558593749999998
0.019335937499999997
0.017724609375
0.02578125
0.01611328125
0.024169921875
0.017724609375
0.018530273437499998
0.024169921875
0.02900390625
0.023364257812499997
0.023364257812499997
0.019335937499999997
0.0717041015625
0.15629882812499998
0.25217285156249997
0.31743164062499996
0.38994140624999996
1.9271484374999999
3.0268798828124996
3.0268798828124996
3.0252685546875
2.989013671875
3.0244628906249997
2.9761230468749997
2.9479248046874997
2.753759765625
2.5475097656249996
2.386376953125
2.1728759765625
2.0230224609375
1.9134521484375
3.02607421875
3.02607421875
3.02607421875
3.02607421875
3.0309082031249996
3.02607421875
2.5837646484374996
0.7774658203125
0.018530273437499998
0.023364257812499997
0.018530273437499998
0.022558593749999998
0.0217529296875
0.023364257812499997
0.022558593749999998
0.026586914062499998
0.023364257812499997
0.0217529296875
0.026586914062499998
0.022558593749999998
0.019335937499999997
0.024169921875
0.024169921875
0.017724609375
0.013696289062499999
0.175634765625
0.25620117187499997
0.3198486328125
2.0278564453125
2.8915283203124997
3.0268798828124996
3.027685546875
3.0252685546875
2.8641357421875
2.8818603515624996
2.7932373046874996
2.719921875
2.4967529296874997
2.46533203125
2.1382324218749997
1.964208984375
1.7378173828124999
3.0228515624999996
3.0244628906249997
3.02607421875
3.02607421875
3.01962890625
3.0284912109374997
2.6739990234374997
1.3043701171875
0.0249755859375
0.0217529296875
0.027392578124999997
0.019335937499999997
0.018530273437499998
0.023364257812499997
0.024169921875
0.027392578124999997
0.02578125
0.022558593749999998
0.023364257812499997
0.0201416015625
0.027392578124999997
0.0120849609375
0.024169921875
0.0298095703125
0.0910400390625
0.1740234375
0.24492187499999998
0.3359619140625
0.40605468749999996
2.5547607421875
3.027685546875
3.0228515624999996
3.02607421875
3.0268798828124996
3.005126953125
2.937451171875
2.8552734374999997
2.615185546875
2.3759033203124997
2.2840576171875
2.0745849609375
1.9295654296875
1.6991455078125
3.0309082031249996
3.0252685546875
3.0244628906249997
3.02607421875
3.0236572265625
3.02607421875
1.8256347656249998
0.091845703125
0.023364257812499997
0.02578125
0.02578125
0.022558593749999998
0.024169921875
0.024169921875
0.02900390625
0.023364257812499997
0.022558593749999998
0.024169921875
0.026586914062499998
0.023364257812499997
0.022558593749999998
0.023364257812499997
0.024169921875
0.0443115234375
0.1200439453125
0.22478027343749998
0.28842773437499997
0.362548828125
2.4234375
2.94873046875
3.0268798828124996
3.02607421875
2.9906249999999996
2.7884033203125
2.7908203124999997
2.744091796875
2.54267578125
2.4355224609375
2.196240234375
2.022216796875
1.9110351562499999
1.7877685546875
3.0268798828124996
3.02607421875
3.0236572265625
3.0244628906249997
3.0244628906249997
3.021240234375
1.6685302734374998
0.4189453125
0.017724609375
0.022558593749999998
0.027392578124999997
0.022558593749999998
0.023364257812499997
0.024169921875
0.02578125
0.02900390625
0.017724609375
0.022558593749999998
0.02900390625
0.022558593749999998
0.022558593749999998
0.023364257812499997
0.027392578124999997
0.06606445312499999
0.1651611328125
0.240087890625
0.310986328125
0.39638671875
2.1978515625
2.8689697265625
3.027685546875
3.0244628906249997
2.9479248046874997
3.001904296875
2.99384765625
2.8174072265624996
2.7207275390624996
2.4129638671875
2.3372314453125
2.1221191406249997
1.9916015624999999
1.7249267578124998
3.02607421875
3.027685546875
3.0236572265625
3.0268798828124996
3.02607421875
3.0309082031249996
1.8699462890624998
1.07958984375
0.026586914062499998
0.02900390625
0.041088867187499996
0.024169921875
0.0217529296875
0.019335937499999997
0.0201416015625
0.020947265625
0.023364257812499997
0.022558593749999998
0.0249755859375
0.0281982421875
0.024169921875
0.027392578124999997
0.02578125
0.0765380859375
0.1554931640625
0.2296142578125
0.3230712890625
0.3843017578125
1.8763916015625
2.7739013671875
3.0244628906249997
3.02607421875
3.0236572265625
3.0244628906249997
2.995458984375
2.9156982421874997
2.8689697265625
2.679638671875
2.3904052734375
2.18173828125
2.028662109375
1.9118408203125
1.9835449218749999
3.02607421875
3.0244628906249997
3.0252685546875
3.0252685546875
3.02607421875
2.8874999999999997
1.1150390625
0.0201416015625
0.022558593749999998
0.026586914062499998
0.023364257812499997
0.023364257812499997
0.02578125
0.023364257812499997
0.02578125
0.026586914062499998
0.023364257812499997
0.023364257812499997
0.024169921875
0.023364257812499997
0.023364257812499997
0.024169921875
0.033837890625
0.107958984375
0.20947265625
0.2811767578125
0.35126953125
1.6951171875
2.4363281249999997
2.8311035156249997
2.9865966796874996
2.9978759765625
3.0002929687499997
3.0228515624999996
2.8874999999999997
2.8214355468749996
2.6627197265625
2.4532470703125
2.3203125
2.0093261718749997
1.9013671875
1.770849609375
3.02607421875
3.02607421875
3.027685546875
3.0252685546875
3.021240234375
2.9849853515625
1.6532226562499999
0.4036376953125
0.024169921875
0.0217529296875
0.020947265625
0.024169921875
0.023364257812499997
0.024169921875
0.024169921875
0.023364257812499997
0.027392578124999997
0.0249755859375
0.023364257812499997
0.022558593749999998
0.024169921875
0.023364257812499997
0.026586914062499998
0.1119873046875
0.18852539062499998
0.262646484375
0.35690917968749997
0.41733398437499997
2.2115478515625
2.86494140625
3.0325195312499997
3.0236572265625
3.02607421875
3.0244628906249997
2.921337890625
2.8947509765625
2.9503417968749996
2.544287109375
2.350927734375
2.2268554687499997
2.0326904296875
1.909423828125
3.0244628906249997
3.027685546875
3.0244628906249997
3.02607421875
3.0268798828124996
3.0268798828124996
1.8981445312499998
0.64775390625
0.023364257812499997
0.02578125
0.022558593749999998
0.022558593749999998
0.0249755859375
0.022558593749999998
0.017724609375
0.024169921875
0.0217529296875
0.026586914062499998
0.0249755859375
0.022558593749999998
0.0217529296875
0.0217529296875
0.024169921875
0.0539794921875
0.1313232421875
0.23122558593749998
0.3037353515625
0.36899414062499997
1.706396484375
2.7787353515624997
3.0301025390625
3.02607421875
3.0236572265625
3.02607421875
2.9672607421875
2.8375488281249996
2.7102539062499997
2.5998779296874996
2.4604980468749997
2.15595703125
1.8788085937499999
1.8232177734375
3.02607421875
3.0268798828124996
3.0252685546875
3.0252685546875
3.0268798828124996
3.0284912109374997
2.608740234375
0.9144287109375
0.0201416015625
0.019335937499999997
0.022558593749999998
0.0201416015625
0.020947265625
0.022558593749999998
0.026586914062499998
0.022558593749999998
0.024169921875
0.023364257812499997
0.0217529296875
0.023364257812499997
0.0217529296875
0.0217529296875
0.018530273437499998
0.0555908203125
0.1619384765625
0.2344482421875
0.30937499999999996
0.3746337890625
1.770849609375
2.6369384765625
2.95517578125
3.0099609375
3.0236572265625
3.0075439453125
2.8786376953125
2.8335205078124996
2.8037109375
2.5531494140624997
2.2888916015625
2.1454833984375
2.067333984375
1.91748046875
3.0067382812499996
3.0284912109374997
3.0252685546875
3.0220458984375
3.0252685546875
3.027685546875
2.6820556640624997
1.4961181640624999
0.11923828125
0.022558593749999998
0.0217529296875
0.027392578124999997
0.0217529296875
0.0249755859375
0.0281982421875
0.023364257812499997
0.023364257812499997
0.020947265625
0.023364257812499997
0.023364257812499997
0.02578125
0.023364257812499997
0.024169921875
0.069287109375
0.146630859375
0.22236328125
0.3158203125
0.3802734375
1.45341796875
2.5233398437499996
3.02607421875
3.0301025390625
3.0244628906249997
2.7497314453125
2.9140869140624996
2.7996826171875
2.7207275390624996
2.5974609374999997
2.2993652343749997
2.1374267578125
1.9795166015624999
1.8731689453125
1.7474853515625
3.0309082031249996
3.029296875
3.02607421875
3.0309082031249996
3.0284912109374997
3.02607421875
1.9513183593749999
0.223974609375
0.023364257812499997
0.023364257812499997
0.02578125
0.024169921875
0.018530273437499998
0.020947265625
0.022558593749999998
0.019335937499999997
0.026586914062499998
0.024169921875
0.023364257812499997
0.0249755859375
0.026586914062499998
0.019335937499999997
0.0580078125
0.1377685546875
0.23686523437499998
0.31259765624999997
0.3714111328125
0.4326416015625
2.4532470703125
2.8955566406249997
2.9028076171875
3.0236572265625
3.0067382812499996
3.0252685546875
2.953564453125
2.8157958984375
2.6925292968749996
2.4661376953125
2.2695556640625
2.128564453125
1.9698486328125
1.8385253906249999
3.0268798828124996
3.027685546875
3.0244628906249997
3.0252685546875
3.0268798828124996
3.0252685546875
1.8248291015625
0.6977050781249999
0.0201416015625
0.023364257812499997
0.027392578124999997
0.026586914062499998
0.0217529296875
0.0249755859375
0.022558593749999998
0.02578125
0.022558593749999998
0.022558593749999998
0.0249755859375
0.023364257812499997
0.023364257812499997
0.0298095703125
0.024169921875
0.09426269531249999
0.1732177734375
0.2457275390625
0.314208984375
0.41008300781249996
2.3694580078125
3.0228515624999996
3.0252685546875
3.02607421875
3.0252685546875
2.9624267578124996
2.7964599609375
2.6707763671875
2.534619140625
2.2469970703124997
2.08828125
1.993212890625
1.77890625
1.6556396484375
3.0252685546875
3.0284912109374997
3.0252685546875
3.027685546875
3.0220458984375
3.0244628906249997
2.3654296875
1.095703125
0.023364257812499997
0.023364257812499997
0.024169921875
0.027392578124999997
0.022558593749999998
0.024169921875
0.0201416015625
0.024169921875
0.0281982421875
0.0217529296875
0.019335937499999997
0.027392578124999997
0.023364257812499997
0.022558593749999998
0.030615234374999998
0.10957031249999999
0.17724609375
0.27634277343749997
0.348046875
0.41411132812499996
2.2832519531249997
2.953564453125
3.0284912109374997
3.021240234375
3.0284912109374997
3.027685546875
2.9672607421875
2.9672607421875
2.7787353515624997
2.4725830078124997
2.3114501953124997
2.1180908203124997
1.9746826171874998
1.8143554687499999
3.027685546875
3.0252685546875
3.0268798828124996
3.0284912109374997
3.02607421875
3.0268798828124996
3.0043212890624997
1.2592529296875
0.064453125
0.02578125
0.02578125
0.020947265625
0.023364257812499997
0.022558593749999998
0.023364257812499997
0.02578125
0.0249755859375
0.018530273437499998
0.02578125
0.027392578124999997
0.023364257812499997
0.0217529296875
0.024169921875
0.0620361328125
0.1699951171875
0.2384765625
0.307763671875
0.378662109375
2.1164794921875
2.6208251953125
3.0220458984375
3.0284912109374997
3.0244628906249997
2.9455078125
2.8738037109374996
2.7585937499999997
2.6868896484375
2.4725830078124997
2.2349121093749997
2.1632080078125
2.0431640625
1.948095703125
1.8465820312499999
3.0236572265625
3.0268798828124996
3.02607421875
3.029296875
3.0252685546875
3.0139892578125
1.6975341796874999
0.5083740234374999
0.026586914062499998
0.023364257812499997
0.022558593749999998
0.024169921875
0.023364257812499997
0.023364257812499997
0.02900390625
0.019335937499999997
0.0765380859375
0.017724609375
0.022558593749999998
0.0201416015625
0.024169921875
0.027392578124999997
0.056396484375
0.1345458984375
0.21269531249999998
0.2795654296875
0.37382812499999996
0.43344726562499997
2.26552734375
3.0236572265625
3.0228515624999996
3.0236572265625
2.9688720703125
2.9366455078125
2.7884033203125
2.7650390624999996
2.5112548828124996
2.4177978515625
2.286474609375
1.98193359375
1.8763916015625
1.8111328125
3.029296875
3.02607421875
3.02607421875
3.027685546875
3.02607421875
3.0301025390625
1.9190917968749999
0.5687988281249999
0.024169921875
0.02900390625
0.023364257812499997
0.023364257812499997
0.020947265625
0.020947265625
0.023364257812499997
0.022558593749999998
0.0201416015625
0.0281982421875
0.022558593749999998
0.023364257812499997
0.019335937499999997
0.0249755859375
0.033032226562499996
0.10151367187499999
0.182080078125
0.2747314453125
0.348046875
0.40605468749999996
2.0906982421875
2.7908203124999997
3.02607421875
3.02607421875
3.0301025390625
3.02607421875
2.921337890625
2.9527587890625
2.8399658203125
2.5958496093749996
2.3920166015624997
2.260693359375
2.1003662109375
2.00771484375
3.0236572265625
3.02607421875
3.02607421875
3.029296875
3.0284912109374997
3.027685546875
1.8554443359375
0.992578125
0.0201416015625
0.0249755859375
0.022558593749999998
0.022558593749999998
0.023364257812499997
0.023364257812499997
0.0249755859375
0.0249755859375
0.023364257812499997
0.019335937499999997
0.0249755859375
0.027392578124999997
0.023364257812499997
0.023364257812499997
0.0249755859375
0.050756835937499994
0.15468749999999998
0.230419921875
0.301318359375
0.38994140624999996
1.920703125
2.9011962890625
3.0325195312499997
3.0204345703124997
3.0236572265625
2.9769287109375
2.7755126953125
2.7916259765625
2.7013916015625
2.3912109375
2.2808349609375
2.1060058593749997
1.9271484374999999
1.6935058593749999
2.2880859375
3.02607421875
3.02607421875
3.02607421875
3.02607421875
3.027685546875
2.8697753906249996
1.52109375
0.022558593749999998
0.024169921875
0.024169921875
0.02900390625
0.023364257812499997
0.0298095703125
0.023364257812499997
0.023364257812499997
0.018530273437499998
0.024169921875
0.0249755859375
0.0249755859375
0.023364257812499997
0.0217529296875
0.024169921875
0.058813476562499994
0.1345458984375
0.214306640625
0.30615234375
0.36899414062499997
1.100537109375
2.8125732421875
3.0268798828124996
3.027685546875
3.0236572265625
3.0107666015624996
3.0301025390625
2.9100585937499996
2.7142822265624997
2.43955078125
2.2953369140624997
1.9996582031249999
1.7692382812499998
1.7579589843749999
1.6491943359374999
3.01962890625
3.0284912109374997
3.0252685546875
3.0268798828124996
3.0301025390625
3.0284912109374997
1.6427490234375
0.410888671875
0.024169921875
0.023364257812499997
0.023364257812499997
0.018530273437499998
0.024169921875
0.024169921875
0.0281982421875
0.017724609375
0.023364257812499997
0.019335937499999997
0.024169921875
0.024169921875
0.022558593749999998
0.024169921875
0.04833984375
0.133740234375
0.2376708984375
0.30051269531249997
0.3681884765625
0.44956054687499997
2.4556640625
3.0083496093749997
3.0268798828124996
3.0244628906249997
3.0220458984375
3.0252685546875
2.96162109375
2.866552734375
2.7787353515624997
2.4774169921875
2.3291748046875
2.164013671875
1.920703125
1.8369140625
3.0252685546875
3.0204345703124997
3.0228515624999996
3.0220458984375
3.02607421875
3.027685546875
1.8361083984375
0.7718261718749999
0.023364257812499997
0.023364257812499997
0.0201416015625
0.023364257812499997
0.020947265625
0.027392578124999997
0.024169921875
0.0217529296875
0.022558593749999998
0.024169921875
0.024169921875
0.0249755859375
0.0217529296875
0.0249755859375
0.024169921875
0.09990234375
0.1732177734375
0.24331054687499998
0.34482421874999997
0.40605468749999996
2.280029296875
3.0236572265625
3.02607421875
3.0268798828124996
3.0301025390625
3.0107666015624996
2.9326171875
2.7424804687499997
2.5740966796875
2.3920166015624997
2.2187988281249997
2.07861328125
1.909423828125
1.7716552734375
3.0325195312499997
3.02607421875
3.029296875
3.02607421875
3.027685546875
3.0268798828124996
2.6530517578125
0.8983154296875
0.022558593749999998
0.02900390625
0.024169921875
0.027392578124999997
0.024169921875
0.0217529296875
0.019335937499999997
0.017724609375
0.023364257812499997
0.023364257812499997
0.0249755859375
0.022558593749999998
0.024169921875
0.0249755859375
0.020947265625
0.08701171875
0.1611328125
0.2553955078125
0.32468261718749997
0.39316406249999997
1.9907958984374998
2.8093505859374996
3.0268798828124996
3.0284912109374997
3.0252685546875
2.9753173828125
2.9865966796874996
2.8770263671875
2.7884033203125
2.502392578125
2.2421630859375
2.0576660156249997
1.9070068359374999
1.8038818359375
3.0236572265625
3.02607421875
3.027685546875
3.0228515624999996
3.02607421875
3.027685546875
2.2776123046875
1.364794921875
0.233642578125
0.019335937499999997
0.024169921875
0.023364257812499997
0.02578125
0.024169921875
0.0201416015625
0.0201416015625
0.02900390625
0.024169921875
0.022558593749999998
0.0249755859375
0.0298095703125
0.024169921875
0.0249755859375
0.064453125
0.1635498046875
0.24331054687499998
0.31259765624999997
0.39719238281249997
1.1319580078125
2.68125
3.0333251953125
3.02607421875
3.0268798828124996
3.0244628906249997
2.972900390625
2.8576904296874996
