3.0244628906249997
3.02607421875
2.9769287109375
2.9205322265625
2.715087890625
2.5845703125
2.4604980468749997
2.34287109375
2.2421630859375
2.099560546875
1.9907958984374998
1.843359375
3.029296875
3.0268798828124996
3.021240234375
3.021240234375
3.027685546875
3.0252685546875
2.6119628906249996
1.6959228515625
0.5937744140625
0.020947265625
0.0169189453125
0.022558593749999998
0.023364257812499997
0.023364257812499997
0.022558593749999998
0.0201416015625
0.022558593749999998
0.0169189453125
0.022558593749999998
0.0201416015625
0.022558593749999998
0.0281982421875
0.059619140625
0.13615722656249998
0.24331054687499998
0.31340332031249996
0.378662109375
0.44230957031249996
2.230078125
2.7142822265624997
3.001904296875
2.979345703125
2.9906249999999996
2.8915283203124997
2.7779296875
2.7980712890625
2.753759765625
2.5628173828125
2.333203125
2.2324951171875
2.099560546875
1.9352050781249999
2.0093261718749997
3.0244628906249997
3.029296875
3.02607421875
3.0301025390625
3.0301025390625
3.0067382812499996
2.0471923828125
1.0006347656249999
0.0217529296875
0.023364257812499997
0.023364257812499997
0.026586914062499998
0.02578125
0.022558593749999998
0.0217529296875
0.022558593749999998
0.027392578124999997
0.022558593749999998
0.023364257812499997
0.0249755859375
0.023364257812499997
0.023364257812499997
0.116015625
0.1973876953125
0.2715087890625
0.36093749999999997
0.42539062499999997
1.9247314453125
2.6353271484375
3.0147949218749996
3.0244628906249997
2.94873046875
2.876220703125
2.7722900390625
2.6594970703125
2.5434814453124996
2.3871826171875
2.3477050781249997
2.2163818359375
2.0415527343749997
1.896533203125
1.714453125
3.0236572265625
3.0252685546875
3.0244628906249997
3.0228515624999996
3.0228515624999996
3.0284912109374997
2.3654296875
1.08603515625
0.2811767578125
0.0249755859375
0.023364257812499997
0.024169921875
0.022558593749999998
0.022558593749999998
0.023364257812499997
0.023364257812499997
0.02578125
0.0201416015625
0.018530273437499998
0.017724609375
0.023364257812499997
0.026586914062499998
0.09748535156249999
0.17885742187499998
0.2779541015625
0.3472412109375
0.4197509765625
1.603271484375
2.5201171875
2.8174072265624996
2.9181152343749996
3.0268798828124996
2.9575927734375
2.88427734375
2.66513671875
2.6377441406249997
2.5587890625
2.2582763671875
2.0552490234375
2.0181884765625
1.869140625
1.658056640625
3.0244628906249997
3.0252685546875
3.02607421875
3.0252685546875
3.0309082031249996
3.02607421875
2.3646240234375
1.5750732421875
0.6735351562499999
0.0217529296875
0.018530273437499998
0.022558593749999998
0.023364257812499997
0.023364257812499997
0.022558593749999998
0.0281982421875
0.022558593749999998
0.0249755859375
0.023364257812499997
0.022558593749999998
0.0217529296875
0.0249755859375
0.0845947265625
0.19094238281249998
0.270703125
0.33515625
0.4245849609375
0.48662109374999996
2.2308837890624997
2.8069335937499997
3.0002929687499997
3.001904296875
2.9849853515625
2.9745117187499996
2.7320068359375
2.7142822265624997
2.6288818359375
2.4121582031249997
2.3614013671875
2.205908203125
2.0004638671875
1.8578613281249998
2.6014892578124997
3.027685546875
3.0236572265625
3.0268798828124996
3.0236572265625
3.0309082031249996
2.698974609375
1.6081054687499998
0.668701171875
0.088623046875
0.0217529296875
0.0217529296875
0.022558593749999998
0.022558593749999998
0.024169921875
0.023364257812499997
0.022558593749999998
0.017724609375
0.0201416015625
0.022558593749999998
0.024169921875
0.0249755859375
0.072509765625
0.1554931640625
0.22880859374999998
0.323876953125
0.39719238281249997
0.45036621093749996
2.309033203125
2.7658447265625
2.9882080078124997
2.99384765625
2.9914306640625
2.8560791015625
2.7465087890624997
2.5998779296874996
2.5579833984375
2.376708984375
2.212353515625
2.083447265625
1.8554443359375
1.7015624999999999
1.9553466796874999
3.0252685546875
3.027685546875
3.021240234375
3.0268798828124996
3.0236572265625
2.9455078125
1.9811279296875
0.8918701171875
0.027392578124999997
0.022558593749999998
0.022558593749999998
0.022558593749999998
0.0217529296875
0.023364257812499997
0.019335937499999997
0.022558593749999998
0.023364257812499997
0.024169921875
0.022558593749999998
0.023364257812499997
0.0281982421875
0.10634765624999999
0.20947265625
0.278759765625
0.348046875
0.41572265625
0.501123046875
1.7716552734375
2.5958496093749996
2.98740234375
3.02607421875
3.0252685546875
3.02607421875
2.98740234375
2.8786376953125
2.7730957031249996
2.60712890625
2.46533203125
2.2856689453125
2.0826416015625
1.9625976562499998
1.8393310546875
3.02607421875
3.02607421875
3.0244628906249997
3.0236572265625
3.0252685546875
3.0252685546875
2.260693359375
1.0401123046875
0.24492187499999998
0.017724609375
0.022558593749999998
0.0217529296875
0.023364257812499997
0.023364257812499997
0.024169921875
0.022558593749999998
0.0201416015625
0.02578125
0.0217529296875
0.017724609375
0.022558593749999998
0.0201416015625
0.09829101562499999
0.1732177734375
0.25217285156249997
0.3440185546875
0.40927734374999997
0.46728515625
2.44921875
2.8302978515625
2.9680664062499997
3.001904296875
3.0244628906249997
2.9922363281249997
2.8915283203124997
2.7489257812499996
2.5660400390625
2.373486328125
2.1785156249999997
2.00771484375
1.8111328125
1.6765869140624998
3.0228515624999996
3.0252685546875
3.029296875
3.027685546875
3.02607421875
3.029296875
2.3138671875
1.4332763671875
0.451171875
0.0249755859375
0.018530273437499998
0.0217529296875
0.02578125
0.0201416015625
0.023364257812499997
0.0217529296875
0.024169921875
0.020947265625
0.023364257812499997
0.024169921875
0.023364257812499997
0.033837890625
0.11762695312499999
0.22075195312499998
0.2940673828125
0.3633544921875
0.427001953125
0.501123046875
2.360595703125
2.9326171875
3.0228515624999996
3.0220458984375
2.94873046875
3.0147949218749996
2.88427734375
2.7416748046875
2.591015625
2.3614013671875
2.2663330078125
2.101171875
1.9674316406249999
1.8425537109374999
2.7787353515624997
3.02607421875
3.02607421875
3.0268798828124996
3.0252685546875
3.02607421875
2.9100585937499996
1.8981445312499998
0.6493652343749999
0.06606445312499999
0.022558593749999998
0.022558593749999998
0.026586914062499998
0.024169921875
0.023364257812499997
0.020947265625
0.022558593749999998
0.0281982421875
0.027392578124999997
0.023364257812499997
0.0281982421875
0.019335937499999997
0.0539794921875
0.133740234375
0.21108398437499998
0.2860107421875
0.38107910156249997
0.44633789062499996
1.75634765625
2.68125
2.9205322265625
2.9640380859374997
2.860107421875
2.784375
2.8166015625
2.7674560546875
2.6860839843749997
2.4903076171875
2.43310546875
2.115673828125
2.054443359375
1.9472900390624999
2.3178955078125
3.02607421875
3.0268798828124996
3.0236572265625
3.0301025390625
3.02607421875
3.02607421875
2.02060546875
0.9385986328125
0.2199462890625
0.027392578124999997
0.022558593749999998
0.019335937499999997
0.027392578124999997
0.020947265625
0.022558593749999998
0.0217529296875
0.017724609375
0.0201416015625
0.020947265625
0.0217529296875
0.024169921875
0.0394775390625
0.11923828125
0.223974609375
0.2956787109375
0.36496582031249997
0.4278076171875
1.538818359375
2.4806396484374997
2.843994140625
2.9342285156249996
2.99384765625
2.9583984374999996
2.8367431640625
2.69736328125
2.6603027343749996
2.5096435546875
2.241357421875
2.1358154296875
2.0278564453125
1.7926025390625
1.513037109375
3.0244628906249997
3.0244628906249997
3.0268798828124996
3.0244628906249997
3.021240234375
3.029296875
2.135009765625
1.3083984375
0.0717041015625
0.022558593749999998
0.024169921875
0.022558593749999998
0.024169921875
0.0281982421875
0.02578125
0.023364257812499997
0.02578125
0.026586914062499998
0.022558593749999998
0.0201416015625
0.027392578124999997
0.08217773437499999
0.19013671875
0.2650634765625
0.32951660156249996
0.4004150390625
0.4874267578125
1.767626953125
2.47822265625
3.0067382812499996
3.0204345703124997
3.0228515624999996
2.8963623046875
2.924560546875
2.8359375
2.7448974609374996
2.5499267578125
2.3783203125
2.2260498046875
2.077001953125
1.915869140625
1.7660156249999999
3.02607421875
3.01962890625
3.0228515624999996
3.0236572265625
3.0244628906249997
3.0268798828124996
2.75537109375
1.4445556640625
0.47453613281249996
0.0217529296875
0.0217529296875
0.0249755859375
0.022558593749999998
0.024169921875
0.023364257812499997
0.0217529296875
0.022558593749999998
0.0201416015625
0.0201416015625
0.023364257812499997
0.018530273437499998
0.02578125
0.095068359375
0.17482910156249998
0.28037109374999997
0.3520751953125
0.4125
0.47453613281249996
2.2421630859375
2.7368408203124996
2.91328125
2.9922363281249997
2.9358398437499997
2.840771484375
2.7287841796874996
2.534619140625
2.4927246093749997
2.312255859375
2.1664306640624997
2.0036865234375
1.920703125
1.7692382812499998
3.029296875
3.02607421875
3.0236572265625
3.0244628906249997
3.029296875
3.0244628906249997
2.5007812499999997
1.8651123046875
0.9257080078125
0.04189453125
0.0281982421875
0.022558593749999998
0.022558593749999998
0.019335937499999997
0.0217529296875
0.0217529296875
0.018530273437499998
0.0249755859375
0.023364257812499997
0.027392578124999997
0.023364257812499997
0.02900390625
0.10554199218749999
0.20947265625
0.2860107421875
0.34965820312499996
0.443115234375
0.5003173828124999
1.7047851562499998
2.5845703125
2.92294921875
3.0107666015624996
2.9495361328125
2.921337890625
2.83271484375
2.737646484375
2.65869140625
2.4113525390625
2.3009765625
2.1632080078125
2.131787109375
1.972265625
1.8054931640624998
3.0309082031249996
3.0236572265625
3.027685546875
3.0252685546875
3.0244628906249997
3.0244628906249997
2.08828125
0.8846191406249999
0.124072265625
0.0281982421875
0.023364257812499997
0.023364257812499997
0.020947265625
0.022558593749999998
0.0217529296875
0.0217529296875
0.017724609375
0.024169921875
0.023364257812499997
0.02578125
0.023364257812499997
0.0765380859375
0.1611328125
0.23283691406249998
0.33273925781249997
0.39638671875
0.45842285156249996
1.7635986328125
2.553955078125
2.91650390625
3.003515625
2.9712890625
2.9753173828125
2.9882080078124997
2.9269775390625
2.785986328125
2.591015625
2.37509765625
2.2792236328124997
1.9916015624999999
1.8989501953124999
1.8095214843749998
3.0252685546875
3.029296875
3.0220458984375
3.0244628906249997
3.0236572265625
3.0236572265625
2.27197265625
1.300341796875
0.488232421875
0.019335937499999997
0.022558593749999998
0.0217529296875
0.018530273437499998
0.0249755859375
0.023364257812499997
0.0281982421875
0.020947265625
0.0201416015625
0.022558593749999998
0.0217529296875
0.027392578124999997
0.023364257812499997
0.062841796875
0.167578125
0.24814453125
0.31743164062499996
0.4036376953125
0.7242919921875
2.276806640625
2.7005859374999996
2.9438964843749997
2.860107421875
2.8206298828125
2.7988769531249997
2.76181640625
2.6611083984375
2.544287109375
2.325146484375
2.19140625
2.0504150390625
1.9142578124999998
1.8119384765625
3.0252685546875
3.0244628906249997
3.0244628906249997
3.0228515624999996
3.029296875
3.0309082031249996
2.384765625
1.7539306640624999
0.56396484375
0.019335937499999997
0.022558593749999998
0.0201416015625
0.022558593749999998
0.020947265625
0.02578125
0.022558593749999998
0.022558593749999998
0.0217529296875
0.023364257812499997
0.0217529296875
0.020947265625
0.023364257812499997
0.1039306640625
0.18369140625
0.2586181640625
0.35288085937499997
0.42539062499999997
0.4809814453125
2.231689453125
2.7626220703124997
2.9906249999999996
3.0228515624999996
3.0252685546875
2.9463134765624996
2.88427734375
2.7626220703124997
2.6917236328125
2.5612060546874997
2.4645263671874997
2.29775390625
2.2107421874999997
2.0520263671875
3.0252685546875
3.02607421875
3.029296875
3.0252685546875
3.0236572265625
3.0309082031249996
2.9898193359375
1.786962890625
0.78955078125
0.1490478515625
0.02578125
0.0249755859375
0.026586914062499998
0.0201416015625
0.022558593749999998
0.023364257812499997
0.023364257812499997
0.024169921875
0.0217529296875
0.024169921875
0.0217529296875
0.027392578124999997
0.0201416015625
0.07734374999999999
0.18288574218749998
0.2505615234375
0.3262939453125
0.40927734374999997
1.8586669921874999
2.5322021484375
2.8383544921875
2.9060302734374996
2.9358398437499997
2.9181152343749996
2.8141845703125
2.7779296875
2.7432861328125
2.4677490234375
2.3557617187499997
2.2341064453125
2.112451171875
1.9432617187499999
1.8417480468749998
3.0252685546875
3.02607421875
3.0301025390625
3.027685546875
3.02607421875
3.021240234375
2.2518310546875
1.2495849609374998
0.285205078125
0.022558593749999998
0.023364257812499997
0.022558593749999998
0.0201416015625
0.022558593749999998
0.0249755859375
0.0217529296875
0.027392578124999997
0.023364257812499997
0.027392578124999997
0.0281982421875
0.0201416015625
0.024169921875
0.0652587890625
0.141796875
0.22316894531249998
0.31340332031249996
0.38510742187499997
0.44553222656249997
2.1938232421875
2.81015625
2.972900390625
2.9060302734374996
2.88427734375
2.8802490234375
2.8367431640625
2.721533203125
2.6200195312499996
2.3726806640625
2.215576171875
2.10439453125
1.98515625
1.88525390625
3.0268798828124996
3.021240234375
3.018017578125
3.027685546875
3.02607421875
3.0284912109374997
2.2856689453125
1.3148437499999999
0.4197509765625
0.0217529296875
0.017724609375
0.022558593749999998
0.023364257812499997
0.023364257812499997
0.022558593749999998
0.0169189453125
0.0217529296875
0.026586914062499998
0.022558593749999998
0.022558593749999998
0.0201416015625
0.0298095703125
0.0604248046875
0.143408203125
0.2425048828125
0.310986328125
0.38671875
0.4278076171875
2.357373046875
2.840771484375
2.9865966796874996
3.0252685546875
2.98095703125
2.9205322265625
2.924560546875
2.7102539062499997
2.615185546875
2.3340087890625
2.225244140625
2.1567626953125
1.95615234375
1.791796875
3.0252685546875
3.02607421875
3.0317138671875
3.021240234375
3.0268798828124996
3.0268798828124996
2.67158203125
1.674169921875
0.671923828125
0.022558593749999998
0.022558593749999998
0.022558593749999998
0.023364257812499997
0.022558593749999998
0.022558593749999998
0.018530273437499998
0.0169189453125
0.0249755859375
0.022558593749999998
0.0249755859375
0.0201416015625
0.023364257812499997
0.0443115234375
0.1571044921875
0.2255859375
0.2989013671875
0.3907470703125
0.45358886718749997
2.096337890625
2.65869140625
3.0244628906249997
3.0244628906249997
3.0252685546875
2.9994873046875
2.8786376953125
2.8456054687499996
2.689306640625
2.537841796875
2.30419921875
2.2147705078124997
2.0044921875
1.8651123046875
1.791796875
3.0268798828124996
3.02607421875
3.0268798828124996
3.0284912109374997
3.0236572265625
2.9704833984374996
2.1704589843749997
0.75732421875
0.14018554687499998
0.022558593749999998
0.019335937499999997
0.0217529296875
0.023364257812499997
0.0217529296875
0.023364257812499997
0.0217529296875
0.023364257812499997
0.020947265625
0.02578125
0.0249755859375
0.0281982421875
0.0298095703125
0.1039306640625
0.18288574218749998
0.281982421875
0.35690917968749997
0.4229736328125
1.61455078125
2.4177978515625
2.737646484375
2.8770263671875
2.8818603515624996
2.76181640625
2.802099609375
2.69736328125
2.6047119140625
2.5555664062499996
2.37509765625
2.18818359375
2.077001953125
1.9867675781249998
1.8506103515624999
3.02607421875
3.0228515624999996
3.0244628906249997
3.027685546875
3.0244628906249997
3.02607421875
2.1624023437499997
1.1609619140625
0.37302246093749997
0.022558593749999998
0.0217529296875
0.023364257812499997
0.026586914062499998
0.023364257812499997
0.0217529296875
0.0201416015625
0.020947265625
0.0201416015625
0.0217529296875
0.023364257812499997
0.024169921875
0.042700195312499994
0.12165527343749999
0.22719726562499998
0.2989013671875
0.36899414062499997
0.4552001953125
1.7096191406249999
2.4129638671875
2.9559814453124997
3.0244628906249997
3.0236572265625
2.9527587890625
2.8810546875
2.8053222656249996
2.73603515625
2.528173828125
2.341259765625
2.1245361328125
1.9553466796874999
1.8038818359375
1.6733642578124999
3.0244628906249997
3.0317138671875
3.02607421875
3.0244628906249997
3.02607421875
3.0268798828124996
2.43955078125
1.64677734375
0.3053466796875
0.023364257812499997
0.023364257812499997
0.0217529296875
0.023364257812499997
0.0281982421875
0.023364257812499997
0.017724609375
0.009667968749999999
0.0249755859375
0.023364257812499997
0.022558593749999998
0.024169921875
0.026586914062499998
0.1232666015625
0.2054443359375
0.2811767578125
0.3714111328125
0.4310302734375
0.49467773437499996
2.3154785156249997
2.7013916015625
2.8456054687499996
2.9253662109375
2.9011962890625
2.8423828125
2.62646484375
2.6458007812499997
2.5958496093749996
2.4766113281249997
2.2260498046875
2.1035888671875
1.8844482421875
1.703173828125
3.0252685546875
3.0220458984375
3.0244628906249997
3.021240234375
3.02607421875
3.02607421875
2.570068359375
1.7329833984374998
0.8443359374999999
0.2054443359375
0.02578125
0.024169921875
0.0217529296875
0.022558593749999998
0.024169921875
0.022558593749999998
0.022558593749999998
0.019335937499999997
0.022558593749999998
0.0249755859375
0.024169921875
0.040283203125
0.12246093749999999
0.20061035156249998
0.30051269531249997
0.3665771484375
0.42941894531249997
0.515625
2.2389404296874997
2.7368408203124996
2.9906249999999996
3.02607421875
3.0244628906249997
2.931005859375
2.80048828125
2.7787353515624997
2.6852783203125
2.4097412109375
2.3098388671875
2.18818359375
2.2002685546875
1.84013671875
1.7821289062499999
3.0284912109374997
3.0309082031249996
3.0236572265625
3.0204345703124997
3.027685546875
3.0301025390625
2.1648193359375
1.0812011718749999
0.1071533203125
0.0217529296875
0.022558593749999998
0.0217529296875
0.0201416015625
0.020947265625
0.0249755859375
0.024169921875
0.0217529296875
0.0217529296875
0.024169921875
0.018530273437499998
0.024169921875
0.033837890625
0.13615722656249998
0.21914062499999998
0.29326171875
0.3826904296875
0.4439208984375
1.7579589843749999
2.6208251953125
2.8512451171874997
2.9817626953125
3.0228515624999996
2.840771484375
2.7867919921874997
2.737646484375
2.618408203125
2.41376953125
2.338037109375
2.173681640625
1.9843505859375
1.8417480468749998
1.674169921875
3.0244628906249997
3.0220458984375
3.0244628906249997
3.0244628906249997
3.0284912109374997
3.02607421875
2.2905029296875
1.190771484375
0.330322265625
0.023364257812499997
0.017724609375
0.023364257812499997
0.023364257812499997
0.0249755859375
0.022558593749999998
0.022558593749999998
0.022558593749999998
0.023364257812499997
0.022558593749999998
0.023364257812499997
0.024169921875
0.0523681640625
0.124072265625
0.2102783203125
0.3069580078125
0.3794677734375
0.4390869140625
1.6693359374999999
2.3638183593749997
2.8673583984374997
3.0083496093749997
3.011572265625
2.908447265625
2.947119140625
2.7505371093749997
2.634521484375
2.55234375
2.3203125
2.147900390625
2.054443359375
1.8715576171875
1.7184814453125
3.0268798828124996
3.0204345703124997
3.021240234375
3.029296875
3.02607421875
3.0252685546875
2.40087890625
1.6435546875
0.44150390624999997
0.022558593749999998
0.0201416015625
0.020947265625
0.0249755859375
0.0281982421875
0.0249755859375
0.023364257812499997
0.0217529296875
0.026586914062499998
0.022558593749999998
0.027392578124999997
0.018530273437499998
0.0298095703125
0.12890625
0.2118896484375
0.28439941406249997
0.35690917968749997
0.436669921875
0.49467773437499996
2.1438720703125
2.721533203125
2.8721923828125
2.8834716796874997
2.8431884765624997
2.8367431640625
2.70703125
2.6603027343749996
2.576513671875
2.4435791015625
2.2647216796875
2.157568359375
1.993212890625
1.9053955078125
2.4629150390625
3.0236572265625
3.027685546875
3.02607421875
3.0284912109374997
3.029296875
2.953564453125
1.6653076171874999
0.6670898437499999
0.040283203125
0.024169921875
0.0169189453125
0.024169921875
0.020947265625
0.024169921875
0.023364257812499997
0.022558593749999998
0.0201416015625
0.022558593749999998
0.023364257812499997
0.027392578124999997
0.02900390625
0.11762695312499999
0.19255371093749998
0.2698974609375
0.3601318359375
0.42619628906249996
0.4833984375
2.1720703125
2.711865234375
2.9712890625
3.0091552734375
2.9712890625
2.9173095703125
2.8560791015625
2.6949462890625
2.69736328125
2.55234375
2.392822265625
2.2953369140624997
2.1599853515625
1.9706542968749998
2.035107421875
3.0236572265625
3.0244628906249997
3.0252685546875
3.02607421875
3.0204345703124997
3.02607421875
2.18818359375
1.103759765625
0.0926513671875
0.023364257812499997
0.023364257812499997
0.022558593749999998
0.0217529296875
0.023364257812499997
0.024169921875
0.026586914062499998
0.022558593749999998
0.024169921875
0.026586914062499998
0.022558593749999998
0.017724609375
0.0201416015625
0.1007080078125
0.17885742187499998
0.2586181640625
0.32468261718749997
0.41411132812499996
1.5839355468749998
2.3372314453125
2.737646484375
2.8979736328124996
2.914892578125
2.8037109375
2.6941406249999997
2.682861328125
2.6562744140624996
2.49755859375
2.3759033203124997
2.215576171875
2.147900390625
1.9787109374999998
1.8111328125
3.0284912109374997
3.02607421875
3.0252685546875
3.0236572265625
3.0244628906249997
3.029296875
2.2550537109374997
1.1722412109375
0.3424072265625
0.0169189453125
0.0281982421875
0.024169921875
0.023364257812499997
0.02900390625
0.023364257812499997
0.023364257812499997
0.026586914062499998
0.019335937499999997
0.023364257812499997
0.023364257812499997
0.0217529296875
0.053173828124999996
0.1329345703125
0.21269531249999998
0.2860107421875
0.3802734375
0.44230957031249996
0.5051513671875
2.4903076171875
2.8319091796875
2.9825683593749996
2.9511474609375
2.8657470703124996
2.8319091796875
2.7392578125
2.608740234375
2.43955078125
2.3235351562499997
2.2115478515625
2.0254394531249997
1.9754882812499999
1.8248291015625
3.0244628906249997
3.0244628906249997
3.0268798828124996
3.02607421875
3.027685546875
3.021240234375
2.1986572265624997
1.587158203125
0.6703125
0.022558593749999998
0.027392578124999997
0.023364257812499997
0.026586914062499998
0.024169921875
0.0217529296875
0.018530273437499998
0.022558593749999998
0.019335937499999997
0.019335937499999997
0.026586914062499998
0.0249755859375
0.033837890625
0.1152099609375
0.21914062499999998
0.285205078125
0.35771484374999996
0.42619628906249996
0.5051513671875
2.2051025390625
2.8190185546874997
2.9970703125
2.9559814453124997
2.8713867187499997
2.8858886718749996
2.7239501953125
2.592626953125
2.616796875
2.4258544921875
2.2751953124999997
2.125341796875
1.8989501953124999
1.8151611328125
2.566845703125
3.0244628906249997
3.02607421875
3.0268798828124996
3.0228515624999996
3.0284912109374997
2.9817626953125
2.028662109375
0.7798828124999999
0.120849609375
0.0217529296875
0.024169921875
0.024169921875
0.018530273437499998
0.019335937499999997
0.0249755859375
0.02900390625
0.023364257812499997
0.023364257812499997
0.023364257812499997
0.0201416015625
0.024169921875
0.0926513671875
0.16838378906249998
0.24895019531249998
0.32145996093749996
0.4036376953125
0.472119140625
1.5275390624999998
2.5338134765625
2.769873046875
2.8536621093749996
2.8423828125
2.8359375
2.72958984375
2.6361328124999996
2.60068359375
2.46533203125
2.2550537109374997
2.1382324218749997
2.0302734375
1.9053955078125
1.799853515625
3.0244628906249997
3.0252685546875
3.0244628906249997
3.0252685546875
3.02607421875
3.0228515624999996
2.038330078125
1.0167480468749999
0.21269531249999998
0.027392578124999997
0.026586914062499998
0.023364257812499997
0.026586914062499998
0.024169921875
0.0249755859375
0.017724609375
0.023364257812499997
0.020947265625
0.02578125
0.023364257812499997
0.0394775390625
0.120849609375
0.1973876953125
0.2715087890625
0.36174316406249996
0.4278076171875
0.49387207031249997
1.8659179687499998
2.67158203125
3.0244628906249997
3.0252685546875
3.029296875
2.931005859375
2.89072265625
2.7263671874999997
2.550732421875
2.40087890625
2.193017578125
2.1277587890625
1.960986328125
1.9223144531249998
1.7281494140625
3.0236572265625
3.0236572265625
3.0252685546875
3.0252685546875
3.0244628906249997
3.027685546875
2.180126953125
1.4397216796874999
0.21108398437499998
0.023364257812499997
0.027392578124999997
0.022558593749999998
0.023364257812499997
0.023364257812499997
0.018530273437499998
0.0249755859375
0.02578125
0.01611328125
0.0249755859375
0.023364257812499997
0.02900390625
0.049951171875
0.15629882812499998
0.23686523437499998
0.307763671875
0.37382812499999996
0.45761718749999997
0.6308349609374999
2.3050048828125
2.8633300781249997
2.9865966796874996
3.0123779296874997
2.95517578125
2.892333984375
2.776318359375
2.689306640625
2.6337158203124997
2.4306884765625
2.4016845703125
2.1382324218749997
2.0012695312499997
1.8981445312499998
3.01962890625
3.021240234375
3.0301025390625
3.0220458984375
3.027685546875
3.0236572265625
2.5354248046874996
1.3752685546874999
0.631640625
0.02578125
0.022558593749999998
0.023364257812499997
0.023364257812499997
0.020947265625
0.0217529296875
0.023364257812499997
0.023364257812499997
0.022558593749999998
0.023364257812499997
0.022558593749999998
0.024169921875
0.020947265625
0.08056640625
0.15629882812499998
0.23686523437499998
0.3311279296875
0.3923583984375
0.46164550781249997
2.2236328125
2.7110595703125
2.91328125
2.9745117187499996
2.88427734375
2.840771484375
2.8157958984375
2.7650390624999996
2.657080078125
2.457275390625
2.2727783203125
2.1245361328125
1.957763671875
1.738623046875
2.8834716796874997
3.0301025390625
3.01962890625
3.0268798828124996
3.0244628906249997
3.02607421875
2.8037109375
1.8973388671875
0.837890625
0.033032226562499996
0.027392578124999997
0.020947265625
0.022558593749999998
0.0217529296875
0.0249755859375
0.020947265625
0.018530273437499998
0.0249755859375
0.0217529296875
0.023364257812499997
0.0281982421875
0.023364257812499997
0.08540039062499999
0.16435546874999998
0.2650634765625
0.33354492187499996
0.40202636718749996
0.48178710937499997
1.9247314453125
2.578125
2.9600097656249997
2.9849853515625
2.9261718749999996
2.9302001953124996
2.86494140625
2.769873046875
2.6603027343749996
2.5531494140624997
2.3315917968749997
2.196240234375
2.1003662109375
1.9835449218749999
1.8369140625
3.0301025390625
3.029296875
3.0252685546875
3.02607421875
3.0301025390625
3.0268798828124996
2.13984375
0.9168457031249999
0.2102783203125
0.022558593749999998
0.023364257812499997
0.023364257812499997
0.022558593749999998
0.022558593749999998
0.022558593749999998
0.0217529296875
0.026586914062499998
0.026586914062499998
0.024169921875
0.023364257812499997
0.023364257812499997
0.0394775390625
0.1200439453125
0.19255371093749998
0.27231445312499997
0.36416015625
0.4229736328125
0.79921875
2.421826171875
2.7787353515624997
2.7980712890625
2.8190185546874997
2.8294921874999996
2.802099609375
2.7521484375
2.6417724609374997
2.54267578125
2.3775146484375
2.13984375
2.0520263671875
1.948095703125
1.815966796875
3.02607421875
3.027685546875
3.0252685546875
3.027685546875
3.0244628906249997
3.02607421875
2.3033935546874997
1.3986328124999998
0.6453369140624999
0.058813476562499994
0.0249755859375
0.022558593749999998
0.02578125
0.023364257812499997
0.0217529296875
0.022558593749999998
0.019335937499999997
0.0217529296875
0.022558593749999998
0.0217529296875
0.019335937499999997
0.0281982421875
0.10634765624999999
0.18852539062499998
0.281982421875
0.35368652343749996
0.420556640625
0.5043457031249999
2.1567626953125
2.7263671874999997
2.9390625
2.92294921875
2.9181152343749996
2.88427734375
2.8359375
2.7183105468749997
2.6401611328124996
2.376708984375
2.241357421875
2.1140624999999997
1.93359375
1.8312744140625
3.0244628906249997
3.02607421875
3.0204345703124997
3.0268798828124996
3.021240234375
3.0220458984375
2.7811523437499996
1.8344970703124999
0.75087890625
0.020947265625
0.0217529296875
0.020947265625
0.022558593749999998
0.024169921875
0.0201416015625
0.019335937499999997
0.027392578124999997
0.023364257812499997
0.024169921875
0.022558593749999998
0.0169189453125
0.0298095703125
0.06606445312499999
0.1740234375
0.25217285156249997
0.32468261718749997
0.41330566406249997
0.475341796875
2.244580078125
2.8657470703124996
3.0236572265625
3.02607421875
3.0147949218749996
2.937451171875
2.82626953125
2.70703125
2.5732910156249997
2.4371337890625
2.2832519531249997
2.0600830078125
1.989990234375
1.8868652343749999
1.740234375
3.029296875
3.027685546875
3.0268798828124996
3.0268798828124996
3.029296875
3.021240234375
1.9271484374999999
0.7927734375
0.1716064453125
0.019335937499999997
0.018530273437499998
0.023364257812499997
0.023364257812499997
0.022558593749999998
0.0217529296875
0.023364257812499997
0.022558593749999998
0.023364257812499997
0.0169189453125
0.018530273437499998
0.018530273437499998
0.0249755859375
0.09748535156249999
0.1796630859375
0.2795654296875
0.3472412109375
0.41572265625
1.6290527343749999
2.47177734375
2.8077392578125
2.9068359375
3.0236572265625
2.8697753906249996
2.8915283203124997
2.776318359375
2.7972656249999996
2.7465087890624997
2.4202148437499997
2.1696533203125
2.0496093749999997
1.9424560546874998
1.76279296875
3.0252685546875
3.0220458984375
3.0228515624999996
3.0268798828124996
3.0252685546875
3.0236572265625
2.193017578125
1.1947998046875
0.362548828125
0.022558593749999998
0.020947265625
0.0249755859375
0.022558593749999998
0.024169921875
0.022558593749999998
0.023364257812499997
0.023364257812499997
0.027392578124999997
0.0201416015625
0.022558593749999998
0.023364257812499997
0.0249755859375
0.0708984375
0.17885742187499998
0.25217285156249997
0.3279052734375
0.4116943359375
0.9635742187499999
2.3372314453125
2.8238525390625
3.0236572265625
3.0244628906249997
2.843994140625
2.848828125
2.727978515625
2.6530517578125
2.4435791015625
2.2365234375
2.0713623046875
1.928759765625
1.8796142578125
1.79501953125
3.0220458984375
3.02607421875
3.01962890625
3.02607421875
3.0268798828124996
3.0268798828124996
2.5249511718749997
1.5968261718749999
0.4165283203125
0.027392578124999997
0.022558593749999998
0.017724609375
0.019335937499999997
0.020947265625
0.022558593749999998
0.022558593749999998
0.022558593749999998
0.0217529296875
0.022558593749999998
0.0281982421875
0.023364257812499997
0.023364257812499997
0.1071533203125
0.18852539062499998
0.26828613281249997
0.3585205078125
0.4245849609375
0.48017578125
2.1003662109375
2.7529541015624996
2.9358398437499997
3.0067382812499996
2.8955566406249997
2.9181152343749996
2.719921875
2.8109619140624997
2.6594970703125
2.431494140625
2.373486328125
2.1140624999999997
1.98515625
1.880419921875
3.0284912109374997
3.029296875
3.0284912109374997
3.02607421875
3.02607421875
3.01962890625
3.0236572265625
1.7555419921875
0.7782714843749999
0.18691406249999998
0.023364257812499997
0.0217529296875
0.023364257812499997
0.019335937499999997
0.020947265625
0.0201416015625
0.0169189453125
0.02578125
0.024169921875
0.0217529296875
0.022558593749999998
0.024169921875
0.0346435546875
0.11359863281249999
0.2215576171875
0.29970703125
0.36093749999999997
0.42861328125
1.7458740234374999
2.57490234375
2.8609130859375
2.9906249999999996
2.8431884765624997
2.8375488281249996
2.843994140625
2.7980712890625
2.68125
2.5724853515625
2.318701171875
2.1342041015624997
2.03671875
1.8925048828125
1.7901855468749999
3.027685546875
3.0268798828124996
3.0284912109374997
3.0301025390625
3.0268798828124996
3.02607421875
2.1309814453125
1.1416259765624999
0.1264892578125
0.023364257812499997
0.026586914062499998
0.02578125
0.023364257812499997
0.022558593749999998
0.022558593749999998
0.024169921875
0.026586914062499998
0.022558593749999998
0.0169189453125
0.024169921875
0.02578125
0.037060546874999996
0.13857421875
0.217529296875
0.2940673828125
0.36174316406249996
0.4471435546875
1.687060546875
2.4451904296875
3.001904296875
3.0252685546875
3.0083496093749997
2.91328125
2.7706787109374997
2.647412109375
2.6296874999999997
2.41376953125
2.2534423828125
2.1148681640625
1.964208984375
1.8683349609375
1.7821289062499999
3.0244628906249997
3.0252685546875
3.02607421875
3.0309082031249996
3.0220458984375
3.0220458984375
2.254248046875
1.15693359375
0.6034423828125
0.015307617187499999
0.023364257812499997
0.017724609375
0.019335937499999997
0.019335937499999997
0.0217529296875
0.018530273437499998
0.024169921875
0.022558593749999998
0.023364257812499997
0.023364257812499997
0.022558593749999998
0.04189453125
0.11923828125
0.1998046875
0.29326171875
0.3673828125
0.43505859375
0.49064941406249996
2.3050048828125
2.7658447265625
2.9173095703125
2.92939453125
2.8496337890624996
2.856884765625
2.6965576171874996
2.6417724609374997
2.6200195312499996
2.318701171875
2.2566650390625
2.176904296875
2.05927734375
1.912646484375
3.0301025390625
3.02607421875
3.02607421875
3.0188232421874996
3.0244628906249997
3.021240234375
2.3936279296875
1.7249267578124998
0.7718261718749999
0.023364257812499997
0.023364257812499997
0.0281982421875
0.027392578124999997
0.023364257812499997
0.019335937499999997
0.023364257812499997
0.017724609375
0.023364257812499997
0.024169921875
0.023364257812499997
0.0217529296875
0.02578125
0.059619140625
0.169189453125
0.24089355468749998
0.310986328125
0.38510742187499997
0.46245117187499996
2.0536376953124997
2.5193115234374996
2.721533203125
2.7932373046874996
2.8037109375
2.76181640625
2.6055175781249997
2.6256591796874997
2.5128662109374997
2.3501220703125
2.2623046875
2.1229248046875
2.0407470703125
1.8538330078124998
2.157568359375
3.0284912109374997
3.0228515624999996
3.0244628906249997
3.0252685546875
3.0244628906249997
2.9608154296875
2.1076171875
0.7718261718749999
0.141796875
0.026586914062499998
0.024169921875
0.0281982421875
0.023364257812499997
0.027392578124999997
0.019335937499999997
0.023364257812499997
0.023364257812499997
0.0217529296875
0.0249755859375
0.0249755859375
0.020947265625
0.0958740234375
0.2038330078125
0.2698974609375
0.34885253906249997
0.43747558593749997
0.48984374999999997
1.6830322265625
2.5974609374999997
3.0228515624999996
2.9898193359375
3.0002929687499997
2.977734375
2.9833740234375
2.8786376953125
2.7489257812499996
2.4451904296875
2.386376953125
2.276806640625
2.1809326171875
2.1068115234375
1.8989501953124999
3.0268798828124996
3.0244628906249997
3.0228515624999996
3.0228515624999996
3.0204345703124997
3.029296875
2.09150390625
0.926513671875
0.149853515625
0.022558593749999998
0.026586914062499998
0.024169921875
0.023364257812499997
0.0217529296875
0.0217529296875
0.0217529296875
0.022558593749999998
0.024169921875
0.024169921875
0.0217529296875
0.019335937499999997
0.024169921875
0.0749267578125
0.15227050781249998
0.2344482421875
0.323876953125
0.39719238281249997
0.45439453124999996
2.3855712890625
2.6748046875
2.7932373046874996
2.850439453125
2.8423828125
2.8899169921874996
2.8093505859374996
2.6627197265625
2.6280761718749996
2.344482421875
2.2083251953125
2.1438720703125
2.0343017578125
1.8095214843749998
3.0236572265625
3.02607421875
3.0228515624999996
3.0220458984375
3.0236572265625
3.02607421875
2.2631103515624997
1.6669189453125
0.6388916015624999
0.02578125
0.02578125
0.024169921875
0.0217529296875
0.026586914062499998
0.027392578124999997
0.0217529296875
0.0217529296875
0.022558593749999998
0.0249755859375
0.0201416015625
0.027392578124999997
0.024169921875
0.057202148437499996
0.13857421875
0.24169921875
0.31259765624999997
0.38510742187499997
0.439892578125
2.2905029296875
2.7183105468749997
2.8713867187499997
3.0220458984375
2.9817626953125
2.995458984375
2.8818603515624996
2.75537109375
2.65546875
2.4685546874999997
2.28486328125
2.147900390625
1.941650390625
1.8256347656249998
2.92294921875
3.0268798828124996
3.01962890625
3.029296875
3.0228515624999996
3.02607421875
2.8778320312499996
1.964208984375
0.928125
0.024169921875
0.023364257812499997
0.024169921875
0.024169921875
0.022558593749999998
0.022558593749999998
0.023364257812499997
0.020947265625
0.0217529296875
0.026586914062499998
0.0217529296875
0.023364257812499997
0.026586914062499998
0.02900390625
0.0990966796875
0.2135009765625
0.2771484375
0.3520751953125
0.41330566406249997
1.8635009765625
2.592626953125
2.94873046875
3.02607421875
3.0252685546875
2.9382568359374996
2.9720947265624997
2.784375
2.7021972656249997
2.47822265625
2.2187988281249997
2.173681640625
2.0214111328124997
1.8908935546874999
1.8087158203125
3.0268798828124996
3.0236572265625
3.027685546875
3.0244628906249997
3.0220458984375
3.02607421875
2.1664306640624997
1.3229003906249999
0.1812744140625
0.0249755859375
0.023364257812499997
0.0201416015625
0.0201416015625
0.018530273437499998
0.022558593749999998
0.0281982421875
0.0201416015625
0.02578125
0.023364257812499997
0.0217529296875
0.0249755859375
0.023364257812499997
0.0314208984375
0.130517578125
0.2135009765625
0.2876220703125
0.35126953125
0.44150390624999997
2.1567626953125
2.463720703125
2.8359375
2.8899169921874996
2.8544677734375
2.8947509765625
2.8391601562499997
2.7730957031249996
2.6530517578125
2.4371337890625
2.281640625
2.2026855468749997
1.899755859375
1.754736328125
3.029296875
3.0244628906249997
3.0397705078125
3.029296875
3.02607421875
3.02607421875
2.257470703125
1.5412353515625
0.35126953125
0.023364257812499997
0.02578125
0.023364257812499997
0.022558593749999998
0.022558593749999998
0.020947265625
0.023364257812499997
0.0217529296875
0.024169921875
0.022558593749999998
0.022558593749999998
0.020947265625
0.024169921875
0.0733154296875
0.18449707031249998
0.2513671875
0.327099609375
0.41813964843749996
0.4793701171875
1.9682373046875
2.59423828125
2.9511474609375
3.027685546875
3.0244628906249997
2.9946533203124996
2.9495361328125
2.9100585937499996
2.818212890625
2.5732910156249997
2.4194091796875
2.2469970703124997
2.00771484375
1.9279541015625
1.7853515624999998
3.0284912109374997
3.0220458984375
3.02607421875
3.0220458984375
3.0252685546875
3.0236572265625
2.0729736328125
0.7774658203125
0.0990966796875
0.024169921875
0.024169921875
0.027392578124999997
0.0217529296875
0.023364257812499997
0.022558593749999998
0.027392578124999997
0.0201416015625
0.027392578124999997
0.02578125
0.022558593749999998
0.027392578124999997
0.023364257812499997
0.0837890625
0.167578125
0.2425048828125
0.33837890625
0.40524902343749997
1.6894775390624999
2.6941406249999997
2.9882080078124997
3.01962890625
2.9745117187499996
2.905224609375
2.808544921875
2.6603027343749996
2.5636230468749996
2.418603515625
2.2566650390625
2.083447265625
2.044775390625
1.9352050781249999
1.7861572265624999
3.029296875
3.0252685546875
3.0228515624999996
3.029296875
3.02607421875
3.0244628906249997
2.115673828125
1.10859375
0.3230712890625
0.017724609375
0.023364257812499997
0.022558593749999998
0.023364257812499997
0.023364257812499997
0.02578125
0.02900390625
0.020947265625
0.017724609375
0.023364257812499997
0.0281982421875
0.0249755859375
0.023364257812499997
0.078955078125
0.15871582031249998
0.2618408203125
0.33193359375
0.3988037109375
0.46083984375
2.30419921875
2.6852783203125
2.931005859375
2.977734375
2.876220703125
2.8915283203124997
2.8012939453124996
2.7094482421875
2.4709716796875
2.40732421875
2.1422607421874997
2.070556640625
1.944873046875
1.7700439453124999
3.0252685546875
3.0317138671875
3.0268798828124996
3.02607421875
3.02607421875
3.02607421875
2.2453857421875
1.4816162109375
0.6002197265625
0.022558593749999998
0.022558593749999998
0.0169189453125
0.023364257812499997
0.0169189453125
0.022558593749999998
0.02578125
0.024169921875
0.022558593749999998
0.0217529296875
0.022558593749999998
0.019335937499999997
0.017724609375
0.08540039062499999
0.16838378906249998
0.26103515625
0.33676757812499997
0.40524902343749997
0.46567382812499997
2.2776123046875
2.818212890625
3.0301025390625
3.02607421875
3.0228515624999996
3.02607421875
3.027685546875
2.85205078125
2.83271484375
2.7062255859374997
2.4274658203125
2.2510253906249997
2.1599853515625
1.9464843749999998
2.34609375
3.0236572265625
3.0268798828124996
3.02607421875
3.0252685546875
3.02607421875
2.9414794921875
1.9537353515625
0.9160400390625
0.0217529296875
0.0169189453125
0.018530273437499998
0.020947265625
0.024169921875
0.023364257812499997
0.02578125
0.0217529296875
0.0249755859375
0.022558593749999998
0.024169921875
0.023364257812499997
0.022558593749999998
0.0201416015625
0.03544921875
0.14018554687499998
0.21672363281249998
0.2908447265625
0.3585205078125
1.6306640625
2.5144775390625
2.9656494140625
2.96162109375
3.0228515624999996
2.9970703125
2.892333984375
2.76181640625
2.6643310546874996
2.63291015625
2.4041015624999997
2.23330078125
2.0979492187499997
1.8892822265625
1.7748779296875
3.0252685546875
3.02607421875
3.0244628906249997
3.0244628906249997
3.0244628906249997
3.0252685546875
2.160791015625
1.3946044921874998
0.30937499999999996
0.023364257812499997
0.023364257812499997
0.0201416015625
0.0201416015625
0.027392578124999997
0.02578125
0.0217529296875
0.024169921875
0.022558593749999998
0.02578125
0.0217529296875
0.024169921875
0.02578125
0.024169921875
0.091845703125
0.19497070312499998
0.2537841796875
0.3424072265625
0.410888671875
2.1503173828124997
2.5587890625
2.7545654296874997
2.7287841796874996
2.737646484375
2.6981689453124997
2.69091796875
2.5902099609375
2.566845703125
2.392822265625
2.3525390625
2.10439453125
2.00771484375
1.8465820312499999
3.02607421875
3.0244628906249997
3.0284912109374997
3.0252685546875
3.0268798828124996
3.0252685546875
2.3742919921875
1.79501953125
0.6163330078125
0.0217529296875
0.027392578124999997
0.022558593749999998
0.020947265625
0.019335937499999997
0.0201416015625
0.019335937499999997
0.018530273437499998
0.023364257812499997
0.0201416015625
0.024169921875
0.024169921875
0.024169921875
0.078955078125
0.1619384765625
0.24089355468749998
0.314208984375
0.40122070312499997
0.4600341796875
2.0214111328124997
2.70703125
3.0244628906249997
3.027685546875
3.021240234375
2.9704833984374996
2.8979736328124996
2.7819580078125
2.715087890625
2.5845703125
2.470166015625
2.3477050781249997
2.230078125
2.128564453125
1.8369140625
3.02607421875
3.027685546875
3.0244628906249997
3.0301025390625
3.0252685546875
3.0236572265625
2.165625
0.8467529296874999
0.0298095703125
0.017724609375
0.020947265625
0.0217529296875
0.023364257812499997
0.0249755859375
0.018530273437499998
0.022558593749999998
0.017724609375
0.023364257812499997
0.020947265625
0.024169921875
0.023364257812499997
0.024169921875
0.0298095703125
0.09748535156249999
0.17885742187499998
0.2747314453125
0.3440185546875
1.6540283203125
2.4258544921875
2.7207275390624996
2.8955566406249997
2.9326171875
2.7916259765625
2.78759765625
2.745703125
2.6804443359374996
2.6530517578125
2.44599609375
2.328369140625
2.1648193359375
2.0262451171875
1.8635009765625
3.0236572265625
3.0301025390625
3.0268798828124996
3.0244628906249997
3.0244628906249997
3.0236572265625
2.3614013671875
1.271337890625
0.4447265625
0.024169921875
0.023364257812499997
0.0169189453125
0.023364257812499997
0.022558593749999998
0.018530273437499998
0.022558593749999998
0.0249755859375
0.022558593749999998
0.024169921875
0.022558593749999998
0.023364257812499997
0.0217529296875
0.024169921875
0.09023437499999999
0.1716064453125
0.2715087890625
0.33354492187499996
0.40927734374999997
2.3259521484375
2.721533203125
2.953564453125
3.0252685546875
2.995458984375
2.9422851562499996
2.7610107421874996
2.7916259765625
2.7094482421875
2.5797363281249996
2.3742919921875
2.2808349609375
2.1342041015624997
1.912646484375
3.0252685546875
3.027685546875
3.029296875
3.0252685546875
3.0204345703124997
3.0252685546875
2.3243408203125
1.7313720703125
0.7025390625
0.024169921875
0.026586914062499998
0.018530273437499998
0.022558593749999998
0.023364257812499997
0.023364257812499997
0.026586914062499998
0.024169921875
0.0217529296875
0.0201416015625
0.0217529296875
0.017724609375
0.024169921875
0.0201416015625
0.0322265625
0.133740234375
0.20866699218749998
0.281982421875
0.34885253906249997
2.0085205078125
2.463720703125
2.731201171875
2.7666503906249997
2.5950439453125
2.6361328124999996
2.6522460937499996
2.6111572265625
2.4403564453124997
2.3879882812499997
2.321923828125
2.21396484375
2.189794921875
2.044775390625
1.9698486328125
3.0268798828124996
3.02607421875
3.0252685546875
3.0268798828124996
3.0268798828124996
3.0268798828124996
2.128564453125
1.0562255859375
0.045117187499999996
0.02578125
0.020947265625
0.017724609375
0.023364257812499997
0.0249755859375
0.022558593749999998
0.023364257812499997
0.022558593749999998
0.02578125
0.024169921875
0.022558593749999998
0.023364257812499997
0.023364257812499997
0.0668701171875
0.1732177734375
0.249755859375
0.3230712890625
0.388330078125
1.619384765625
2.457275390625
2.8399658203125
3.021240234375
2.9447021484375
2.9664550781249996
2.9930419921875
2.8125732421875
2.8037109375
2.7223388671874997
2.4274658203125
2.2856689453125
2.1680419921875
1.8312744140625
1.7829345703125
3.027685546875
3.0252685546875
3.02607421875
3.021240234375
3.0301025390625
3.0268798828124996
2.3912109375
1.506591796875
0.3923583984375
0.023364257812499997
0.022558593749999998
0.02578125
0.022558593749999998
0.02578125
0.027392578124999997
0.023364257812499997
0.0281982421875
0.019335937499999997
0.026586914062499998
0.024169921875
0.0217529296875
0.018530273437499998
0.024169921875
0.0749267578125
0.1506591796875
0.2296142578125
0.3029296875
0.3907470703125
2.1406494140625
2.745703125
3.0252685546875
2.8883056640625
2.9092529296875
2.9334228515625
2.8375488281249996
2.7932373046874996
2.69091796875
2.4830566406249996
2.3549560546875
2.1470947265625
1.9440673828125
1.944873046875
2.977734375
3.0268798828124996
3.0252685546875
3.0164062499999997
3.0228515624999996
3.029296875
2.88427734375
1.8071044921875
0.42216796874999996
0.027392578124999997
0.0217529296875
0.0217529296875
0.022558593749999998
0.020947265625
0.017724609375
0.022558593749999998
0.022558593749999998
0.020947265625
0.0201416015625
0.022558593749999998
0.024169921875
0.023364257812499997
0.019335937499999997
0.0652587890625
0.14501953125
0.223974609375
0.2956787109375
0.3843017578125
1.6975341796874999
2.4822509765625
2.8625244140625
2.9455078125
2.8641357421875
2.7191162109375
2.7690673828124996
2.7094482421875
2.6176025390624997
2.4298828125
2.3396484374999997
2.244580078125
2.0359130859375
1.8046875
1.65966796875
3.0204345703124997
3.02607421875
3.02607421875
3.0244628906249997
3.0244628906249997
3.0268798828124996
2.230078125
1.0675048828125
0.23283691406249998
0.023364257812499997
0.0281982421875
0.022558593749999998
0.024169921875
0.022558593749999998
0.022558593749999998
0.023364257812499997
0.019335937499999997
0.026586914062499998
0.024169921875
0.024169921875
0.0201416015625
0.026586914062499998
0.08701171875
0.165966796875
0.24492187499999998
0.3343505859375
0.40202636718749996
0.6050537109374999
2.27841796875
2.9745117187499996
3.003515625
3.0228515624999996
3.02607421875
3.0252685546875
2.88427734375
2.7585937499999997
2.5636230468749996
2.3291748046875
2.1309814453125
2.04638671875
1.95615234375
1.8151611328125
3.0228515624999996
3.0301025390625
3.0252685546875
3.0236572265625
3.0244628906249997
3.0228515624999996
2.354150390625
1.332568359375
0.507568359375
0.0217529296875
0.017724609375
0.0201416015625
0.0217529296875
0.0201416015625
0.0201416015625
0.023364257812499997
0.022558593749999998
0.0217529296875
0.023364257812499997
0.023364257812499997
0.022558593749999998
0.024169921875
0.0378662109375
0.116015625
0.1941650390625
0.2956787109375
0.36496582031249997
0.43022460937499996
2.2776123046875
2.811767578125
2.900390625
2.99384765625
2.8093505859374996
2.8464111328125
2.8593017578124997
2.7424804687499997
2.6764160156249996
2.5612060546874997
2.32998046875
2.1438720703125
2.0431640625
1.9013671875
3.0236572265625
3.029296875
3.0244628906249997
3.02607421875
3.027685546875
3.0301025390625
2.6860839843749997
1.8046875
0.7339599609374999
0.1232666015625
0.02578125
0.020947265625
0.027392578124999997
0.018530273437499998
0.0281982421875
0.0201416015625
0.0249755859375
0.024169921875
0.023364257812499997
0.023364257812499997
0.022558593749999998
0.0217529296875
0.023364257812499997
0.0604248046875
0.1458251953125
0.24331054687499998
0.31662597656249997
0.3875244140625
2.1696533203125
2.6482177734374996
2.8319091796875
2.9833740234375
2.908447265625
2.8375488281249996
2.8496337890624996
2.73603515625
2.6055175781249997
2.418603515625
2.1140624999999997
2.0214111328124997
1.9682373046875
1.9875732421874999
1.8312744140625
3.0236572265625
3.01962890625
3.0244628906249997
3.0236572265625
3.0252685546875
3.029296875
2.215576171875
1.2785888671874999
0.4793701171875
0.0281982421875
0.022558593749999998
0.024169921875
0.0217529296875
0.020947265625
0.023364257812499997
0.023364257812499997
0.024169921875
0.023364257812499997
0.018530273437499998
0.023364257812499997
0.023364257812499997
0.019335937499999997
0.038671874999999994
0.116015625
0.2255859375
0.29326171875
0.3633544921875
1.090869140625
2.26552734375
2.6321044921874996
2.7900146484375
2.8625244140625
2.779541015625
2.834326171875
2.7287841796874996
2.7094482421875
2.6159912109374996
2.4484130859374997
2.2179931640625
2.1535400390625
1.9940185546875
1.9078125
3.02607421875
3.029296875
3.02607421875
3.0268798828124996
3.0301025390625
3.0252685546875
2.3783203125
1.7289550781249998
0.8129150390625
0.0169189453125
0.02578125
0.017724609375
0.026586914062499998
0.024169921875
0.023364257812499997
0.022558593749999998
0.022558593749999998
0.023364257812499997
0.023364257812499997
0.022558593749999998
0.022558593749999998
0.0249755859375
0.027392578124999997
0.12810058593749998
0.2022216796875
0.2779541015625
0.35126953125
0.43425292968749996
2.2187988281249997
2.7964599609375
3.021240234375
3.021240234375
3.0010986328125
3.0244628906249997
2.7900146484375
2.824658203125
2.711865234375
2.537841796875
2.36865234375
2.11083984375
1.9827392578124998
1.8949218749999999
2.1003662109375
3.0252685546875
3.027685546875
3.027685546875
3.0309082031249996
3.0252685546875
2.9422851562499996
2.0262451171875
0.6791748046874999
0.08137207031249999
0.0201416015625
0.02578125
0.023364257812499997
0.020947265625
0.022558593749999998
0.026586914062499998
0.020947265625
0.0201416015625
0.022558593749999998
0.026586914062499998
0.019335937499999997
0.024169921875
0.023364257812499997
0.0459228515625
0.1248779296875
0.201416015625
0.2779541015625
0.36979980468749996
1.6161621093749998
2.4484130859374997
2.818212890625
2.9189208984375
2.8778320312499996
2.785986328125
2.776318359375
2.6748046875
2.6353271484375
2.34609375
2.2494140625
2.126953125
1.9779052734375
1.8103271484374999
1.8473876953125
3.021240234375
3.0252685546875
3.02607421875
3.0220458984375
3.0236572265625
3.02607421875
2.3082275390625
1.155322265625
0.359326171875
0.024169921875
0.022558593749999998
0.024169921875
0.022558593749999998
0.020947265625
0.022558593749999998
0.020947265625
0.023364257812499997
0.02578125
0.023364257812499997
0.0217529296875
0.023364257812499997
0.0249755859375
0.08137207031249999
0.1635498046875
0.24089355468749998
0.3343505859375
0.40605468749999996
0.459228515625
2.5499267578125
2.8915283203124997
3.027685546875
3.027685546875
3.0244628906249997
3.0252685546875
3.0107666015624996
2.8593017578124997
2.6530517578125
2.44921875
2.2808349609375
2.2590820312499997
2.023828125
1.8417480468749998
3.027685546875
3.0244628906249997
3.0236572265625
3.0228515624999996
3.02607421875
3.0228515624999996
2.273583984375
1.5218994140625
0.6437255859375
0.02578125
0.023364257812499997
0.0217529296875
0.026586914062499998
0.019335937499999997
0.0217529296875
0.019335937499999997
0.02578125
0.018530273437499998
0.022558593749999998
0.0217529296875
0.0249755859375
0.017724609375
0.027392578124999997
0.0523681640625
0.1635498046875
0.2263916015625
0.3117919921875
0.375439453125
2.164013671875
2.6739990234374997
2.8866943359375
2.9036132812499997
2.9237548828124997
2.9994873046875
2.8874999999999997
2.8029052734374997
2.69091796875
2.54267578125
2.260693359375
2.0649169921875
1.9916015624999999
1.880419921875
2.8657470703124996
3.0284912109374997
3.02607421875
3.027685546875
3.02607421875
3.02607421875
2.9559814453124997
2.012548828125
0.9772705078124999
0.072509765625
0.023364257812499997
0.027392578124999997
0.020947265625
0.026586914062499998
0.026586914062499998
0.022558593749999998
0.017724609375
0.017724609375
0.026586914062499998
0.023364257812499997
0.0281982421875
0.024169921875
0.0217529296875
0.0281982421875
0.11843261718749999
0.201416015625
0.278759765625
0.3714111328125
1.574267578125
2.4145751953125
2.7392578125
2.9068359375
2.8899169921874996
2.8593017578124997
2.80048828125
2.7521484375
2.7086425781249996
2.5152832031249996
2.3791259765625
2.2534423828125
2.1382324218749997
2.0302734375
1.88525390625
3.0301025390625
3.0268798828124996
3.0252685546875
3.0228515624999996
3.029296875
3.0268798828124996
2.2429687499999997
1.3220947265624998
0.3117919921875
0.022558593749999998
0.017724609375
0.020947265625
0.023364257812499997
0.023364257812499997
0.022558593749999998
0.024169921875
0.024169921875
0.0249755859375
0.026586914062499998
0.0201416015625
0.017724609375
0.023364257812499997
0.049145507812499996
0.12890625
0.20866699218749998
0.3053466796875
0.3746337890625
0.43747558593749997
2.1793212890625
2.7803466796875
2.8367431640625
2.9068359375
2.8472167968749997
2.8496337890624996
2.7722900390625
2.6876953125
2.6288818359375
2.37509765625
2.338037109375
2.1777099609375
2.0616943359374997
1.8578613281249998
3.0252685546875
3.0228515624999996
3.027685546875
3.02607421875
3.0244628906249997
3.027685546875
2.3356201171874997
1.2721435546875
0.4761474609375
0.019335937499999997
0.020947265625
0.0217529296875
0.0201416015625
0.023364257812499997
0.023364257812499997
0.023364257812499997
0.0217529296875
0.023364257812499997
0.023364257812499997
0.023364257812499997
0.024169921875
0.0201416015625
0.057202148437499996
0.1345458984375
0.24331054687499998
0.31259765624999997
0.3826904296875
0.443115234375
2.36220703125
2.840771484375
3.0236572265625
3.021240234375
2.969677734375
2.8480224609375
2.7392578125
2.60712890625
2.4363281249999997
2.2671386718749997
2.152734375
2.1333984375
1.96904296875
1.8135498046874998
3.0252685546875
3.0220458984375
3.0284912109374997
3.029296875
3.0268798828124996
3.0252685546875
2.937451171875
1.9400390625
0.865283203125
0.0249755859375
0.024169921875
0.0169189453125
0.024169921875
0.02578125
0.019335937499999997
0.0249755859375
0.023364257812499997
0.020947265625
0.027392578124999997
0.023364257812499997
0.024169921875
0.023364257812499997
0.030615234374999998
0.12568359375
0.20625
0.2795654296875
0.3681884765625
0.43505859375
1.8240234375
2.512060546875
2.8399658203125
2.8754150390624997
2.8778320312499996
2.9189208984375
2.872998046875
2.81982421875
2.6804443359374996
2.52978515625
2.4516357421875
2.2913085937499997
2.070556640625
1.9182861328124998
1.82080078125
3.027685546875
3.02607421875
3.02607421875
3.0268798828124996
3.0301025390625
3.029296875
2.26552734375
0.8999267578125
0.24492187499999998
0.019335937499999997
0.019335937499999997
0.012890625
0.0217529296875
0.018530273437499998
0.018530273437499998
0.018530273437499998
0.024169921875
0.024169921875
0.017724609375
0.022558593749999998
0.0217529296875
0.0249755859375
0.08620605468749999
0.16274414062499998
0.2650634765625
0.33757324218749996
0.40122070312499997
1.2737548828124998
2.505615234375
2.7819580078125
2.9156982421874997
2.9994873046875
2.8955566406249997
2.88427734375
2.7730957031249996
2.7183105468749997
2.5160888671875
2.3291748046875
2.2341064453125
2.099560546875
1.9464843749999998
1.7555419921875
3.02607421875
3.0220458984375
3.0244628906249997
3.0268798828124996
3.027685546875
3.0244628906249997
2.1744873046874997
1.27939453125
0.39719238281249997
0.0249755859375
0.019335937499999997
0.023364257812499997
0.0217529296875
0.0217529296875
0.020947265625
0.0281982421875
0.0217529296875
0.0217529296875
0.024169921875
0.02578125
0.022558593749999998
0.0281982421875
0.08056640625
0.18852539062499998
0.262646484375
0.33354492187499996
0.39719238281249997
1.6846435546874998
2.3678466796874997
2.8141845703125
2.908447265625
2.9221435546874996
2.947119140625
2.9237548828124997
2.6232421875
2.6321044921874996
2.5241455078125
2.344482421875
2.2365234375
2.1583740234374997
1.9916015624999999
1.8457763671874998
3.0204345703124997
3.027685546875
3.0252685546875
3.0204345703124997
3.0252685546875
3.029296875
2.489501953125
1.722509765625
0.46728515625
0.022558593749999998
0.019335937499999997
0.023364257812499997
0.027392578124999997
0.023364257812499997
0.023364257812499997
0.019335937499999997
0.022558593749999998
0.018530273437499998
0.023364257812499997
0.023364257812499997
0.026586914062499998
0.022558593749999998
0.0837890625
0.16838378906249998
0.23686523437499998
0.3359619140625
0.40202636718749996
0.4600341796875
2.064111328125
2.8045166015625
3.0244628906249997
3.0268798828124996
2.977734375
2.9519531249999997
2.776318359375
2.7932373046874996
2.6216308593749997
2.4145751953125
2.2913085937499997
2.1068115234375
1.9569580078125
1.8957275390625
3.0244628906249997
3.0244628906249997
3.029296875
3.0244628906249997
3.0252685546875
3.0268798828124996
3.0268798828124996
1.7571533203124998
0.7984130859374999
0.0652587890625
0.022558593749999998
0.022558593749999998
0.0249755859375
0.020947265625
0.027392578124999997
0.0217529296875
0.023364257812499997
0.023364257812499997
0.022558593749999998
0.0217529296875
0.0217529296875
0.024169921875
0.041088867187499996
0.11440429687499999
0.2296142578125
0.29648437499999997
0.3673828125
0.44956054687499997
1.843359375
2.5982666015625
2.905224609375
3.0091552734375
3.0236572265625
2.9640380859374997
2.931005859375
2.7884033203125
2.7191162109375
2.560400390625
2.3436767578124997
2.28486328125
2.0415527343749997
1.8409423828125
1.751513671875
3.0252685546875
3.02607421875
3.0236572265625
3.0188232421874996
3.0228515624999996
3.0236572265625
2.1535400390625
1.1641845703125
0.10957031249999999
0.022558593749999998
0.024169921875
0.023364257812499997
0.020947265625
0.022558593749999998
0.0217529296875
0.023364257812499997
0.022558593749999998
0.020947265625
0.024169921875
0.020947265625
0.020947265625
0.02578125
0.10231933593749999
0.17724609375
0.25458984375
0.348046875
0.41572265625
1.6121337890624998
2.4484130859374997
2.956787109375
3.0252685546875
3.0228515624999996
2.9334228515625
2.8230468749999997
2.6780273437499997
2.6047119140625
2.4685546874999997
2.386376953125
2.2131591796875
1.98193359375
1.8586669921874999
1.7096191406249999
3.0301025390625
3.021240234375
3.0301025390625
3.0220458984375
3.0244628906249997
3.0252685546875
2.2534423828125
1.2536132812499998
0.46164550781249997
0.020947265625
0.024169921875
0.023364257812499997
0.019335937499999997
0.0201416015625
0.018530273437499998
0.020947265625
0.01611328125
0.024169921875
0.022558593749999998
0.023364257812499997
0.023364257812499997
0.027392578124999997
0.0966796875
0.17644042968749998
0.2747314453125
0.34562988281249996
0.4149169921875
0.41411132812499996
2.2276611328125
2.7263671874999997
2.9527587890625
3.0252685546875
2.9583984374999996
2.9737060546875
2.9116699218749997
2.8794433593749997
2.7706787109374997
2.6039062499999996
2.37509765625
2.18173828125
2.0737792968749997
1.8884765625
3.0236572265625
3.027685546875
3.02607421875
3.02607421875
3.0236572265625
3.0244628906249997
2.3138671875
1.6435546875
0.6574218749999999
0.022558593749999998
0.022558593749999998
0.022558593749999998
0.024169921875
0.02578125
0.022558593749999998
0.0201416015625
0.020947265625
0.0249755859375
0.024169921875
0.027392578124999997
0.0201416015625
0.027392578124999997
0.0322265625
0.130517578125
0.2022216796875
0.2827880859375
0.372216796875
0.43828124999999996
2.1591796875
2.6756103515625
2.9438964843749997
2.9205322265625
2.9092529296875
2.889111328125
2.6514404296875
2.7779296875
2.586181640625
2.3267578125
2.2171875
2.0407470703125
1.9384277343749998
1.7418457031249999
1.8256347656249998
3.02607421875
3.0301025390625
3.0244628906249997
3.02607421875
3.0268798828124996
3.005126953125
1.973876953125
0.7291259765625
0.033837890625
0.022558593749999998
0.022558593749999998
0.02578125
0.024169921875
0.023364257812499997
0.0217529296875
0.024169921875
0.026586914062499998
0.0281982421875
0.020947265625
0.022558593749999998
0.027392578124999997
0.06767578125
0.1490478515625
0.23122558593749998
0.32065429687499997
0.388330078125
0.4552001953125
2.12373046875
2.6603027343749996
2.8794433593749997
2.972900390625
2.8778320312499996
2.92294921875
2.848828125
2.6917236328125
2.6039062499999996
2.560400390625
2.3726806640625
2.1809326171875
2.0375244140624997
1.93359375
1.8183837890624999
3.0284912109374997
3.021240234375
3.0228515624999996
3.029296875
3.0244628906249997
3.0252685546875
2.13984375
1.1496826171874999
0.3955810546875
0.024169921875
0.022558593749999998
0.024169921875
0.022558593749999998
0.0249755859375
0.018530273437499998
0.027392578124999997
0.023364257812499997
0.0169189453125
0.023364257812499997
0.023364257812499997
0.024169921875
0.023364257812499997
0.095068359375
0.20463867187499998
0.275537109375
0.34160156249999996
0.4318359375
1.1432373046875
2.37509765625
2.78759765625
3.0228515624999996
3.0268798828124996
2.979345703125
2.98740234375
2.843994140625
2.8609130859375
2.7239501953125
2.578125
2.457275390625
2.2808349609375
2.1704589843749997
2.0197998046875
3.0236572265625
3.0284912109374997
3.0244628906249997
3.0284912109374997
3.0268798828124996
3.027685546875
2.2196044921875
1.5082031249999999
0.37785644531249996
0.022558593749999998
0.018530273437499998
0.024169921875
0.022558593749999998
0.0201416015625
0.02578125
0.023364257812499997
0.024169921875
0.023364257812499997
0.022558593749999998
0.0217529296875
0.023364257812499997
0.022558593749999998
0.022558593749999998
0.09990234375
0.1740234375
0.2747314453125
0.34562988281249996
0.410888671875
2.4145751953125
2.88427734375
2.9745117187499996
3.01318359375
2.9495361328125
2.9422851562499996
2.7352294921875
2.7569824218749996
2.5966552734375
2.4943359375
2.34931640625
2.1503173828124997
2.00771484375
1.9505126953124998
3.027685546875
3.0252685546875
3.0228515624999996
3.0268798828124996
3.02607421875
3.021240234375
2.2921142578125
1.6153564453125
0.630029296875
0.022558593749999998
0.023364257812499997
0.022558593749999998
0.020947265625
0.023364257812499997
0.027392578124999997
0.027392578124999997
0.026586914062499998
0.020947265625
0.02578125
0.0249755859375
0.022558593749999998
0.022558593749999998
0.024169921875
0.061230468749999996
0.1699951171875
0.24089355468749998
0.31662597656249997
0.40524902343749997
1.98837890625
2.51044921875
2.86494140625
2.9608154296875
2.9527587890625
2.8883056640625
2.7287841796874996
2.6965576171874996
2.6530517578125
2.5410644531249997
2.3581787109375
2.1624023437499997
1.899755859375
1.8385253906249999
2.0117431640625
3.0268798828124996
3.0252685546875
3.0301025390625
3.0284912109374997
3.0188232421874996
3.0252685546875
2.0890869140625
0.7476562499999999
0.1458251953125
0.02578125
0.022558593749999998
0.023364257812499997
0.0281982421875
0.022558593749999998
0.018530273437499998
0.0201416015625
0.024169921875
0.022558593749999998
0.0217529296875
0.027392578124999997
0.027392578124999997
0.024169921875
0.09990234375
0.18046874999999998
0.281982421875
0.3544921875
0.4149169921875
1.5533203125
2.6055175781249997
2.91328125
2.9664550781249996
2.9600097656249997
2.9011962890625
2.8713867187499997
2.8794433593749997
2.698974609375
2.6385498046875
2.4355224609375
2.2751953124999997
2.1591796875
1.9070068359374999
1.8957275390625
3.02607421875
3.0284912109374997
3.0252685546875
3.02607421875
3.0244628906249997
3.02607421875
2.1744873046874997
1.1303466796875
0.29245605468749997
0.020947265625
0.0249755859375
0.022558593749999998
0.0217529296875
0.024169921875
0.024169921875
0.023364257812499997
0.022558593749999998
0.022558593749999998
0.020947265625
0.024169921875
0.0298095703125
0.0249755859375
0.061230468749999996
0.1716064453125
0.2505615234375
0.31662597656249997
0.38510742187499997
1.5847412109374999
2.5209228515624997
2.931005859375
3.0309082031249996
3.0139892578125
2.9745117187499996
2.963232421875
2.7755126953125
2.7062255859374997
2.592626953125
2.3275634765624997
2.1140624999999997
2.070556640625
1.9698486328125
1.80791015625
3.0236572265625
3.0236572265625
3.021240234375
3.0268798828124996
3.0236572265625
3.02607421875
2.2590820312499997
1.5879638671874998
0.46567382812499997
0.0217529296875
0.023364257812499997
0.022558593749999998
0.027392578124999997
0.024169921875
0.0217529296875
0.023364257812499997
0.018530273437499998
0.023364257812499997
0.022558593749999998
0.023364257812499997
0.02578125
0.022558593749999998
0.0346435546875
0.111181640625
0.1877197265625
0.2908447265625
0.3585205078125
0.4229736328125
2.125341796875
2.6739990234374997
2.8657470703124996
2.947119140625
2.9761230468749997
2.9978759765625
2.9116699218749997
2.874609375
2.657080078125
2.4838623046875
2.302587890625
2.1261474609374997
2.023828125
1.9223144531249998
3.02607421875
3.0228515624999996
3.0301025390625
3.0228515624999996
3.027685546875
3.0244628906249997
2.8053222656249996
1.6524169921874998
0.8129150390625
0.16677246093749998
0.023364257812499997
0.024169921875
0.02578125
0.022558593749999998
0.019335937499999997
0.023364257812499997
0.024169921875
0.0281982421875
0.022558593749999998
0.022558593749999998
0.027392578124999997
0.023364257812499997
0.023364257812499997
0.09023437499999999
0.1957763671875
0.26748046875
0.3359619140625
0.42136230468749997
2.0455810546874997
2.5257568359375
2.7827636718749997
3.0075439453125
2.9455078125
2.953564453125
2.7892089843749996
2.80048828125
2.715087890625
2.5531494140624997
2.3960449218749997
2.1358154296875
2.08505859375
1.8812255859375
2.1865722656249997
3.0268798828124996
3.0228515624999996
3.0244628906249997
3.02607421875
3.029296875
2.7908203124999997
2.012548828125
1.0046630859374999
0.017724609375
0.023364257812499997
0.023364257812499997
0.023364257812499997
0.0201416015625
0.0217529296875
0.023364257812499997
0.024169921875
0.022558593749999998
0.017724609375
0.022558593749999998
0.022558593749999998
0.022558593749999998
0.0298095703125
0.1071533203125
0.1941650390625
0.269091796875
0.359326171875
0.42216796874999996
1.667724609375
2.72314453125
3.0244628906249997
2.892333984375
2.91650390625
2.8697753906249996
2.86494140625
2.7916259765625
2.5894042968749997
2.42666015625
2.257470703125
2.1076171875
1.9110351562499999
1.7958251953125
1.703173828125
3.0220458984375
3.0309082031249996
3.0236572265625
3.02607421875
3.0268798828124996
3.02607421875
2.141455078125
1.1287353515625
0.4149169921875
0.0217529296875
0.020947265625
0.023364257812499997
0.0249755859375
0.022558593749999998
0.023364257812499997
0.0217529296875
0.026586914062499998
0.022558593749999998
0.020947265625
0.022558593749999998
0.017724609375
0.037060546874999996
0.11923828125
0.19658203124999998
0.291650390625
0.3585205078125
0.427001953125
1.6153564453125
2.4226318359375
2.8447998046875
2.848828125
3.0067382812499996
2.9914306640625
2.9712890625
2.889111328125
2.834326171875
2.727978515625
2.4596923828125
2.2921142578125
2.09150390625
1.9779052734375
1.80791015625
3.0236572265625
3.0252685546875
3.0284912109374997
3.02607421875
3.0236572265625
3.0252685546875
2.3549560546875
1.41796875
0.46728515625
0.022558593749999998
0.024169921875
0.023364257812499997
0.023364257812499997
0.022558593749999998
0.022558593749999998
0.023364257812499997
0.022558593749999998
0.022558593749999998
0.023364257812499997
0.024169921875
0.02900390625
0.024169921875
0.0523681640625
0.16677246093749998
0.233642578125
0.310986328125
0.399609375
0.459228515625
2.27197265625
2.7489257812499996
2.8770263671875
2.9197265624999997
2.8947509765625
2.9036132812499997
2.7126708984374996
2.6764160156249996
2.544287109375
2.3082275390625
2.196240234375
1.9190917968749999
1.8747802734374999
1.748291015625
2.6522460937499996
3.0236572265625
3.0252685546875
3.0228515624999996
3.0268798828124996
3.0188232421874996
2.8625244140625
1.6693359374999999
0.6952880859374999
0.075732421875
0.020947265625
0.023364257812499997
0.024169921875
0.022558593749999998
0.023364257812499997
0.020947265625
0.02578125
0.02578125
0.0217529296875
0.022558593749999998
0.013696289062499999
0.04189453125
0.12246093749999999
0.198193359375
0.29970703125
0.36174316406249996
0.42539062499999997
0.49064941406249996
2.1946289062499997
2.7368408203124996
3.0228515624999996
3.021240234375
3.0172119140625
2.9479248046874997
2.9430908203125
2.8496337890624996
2.7593994140625
2.5249511718749997
2.286474609375
2.118896484375
1.989990234375
1.7990478515625
2.2598876953125
3.0317138671875
3.029296875
3.0268798828124996
3.029296875
3.0268798828124996
2.9906249999999996
2.093115234375
1.071533203125
0.1699951171875
0.023364257812499997
0.0217529296875
0.022558593749999998
0.019335937499999997
0.022558593749999998
0.0249755859375
0.02578125
0.0201416015625
0.023364257812499997
0.022558593749999998
0.019335937499999997
0.023364257812499997
0.0322265625
0.1377685546875
0.21591796875
0.2827880859375
0.35288085937499997
0.4439208984375
1.5831298828125
2.4661376953125
2.843994140625
2.8915283203124997
3.0107666015624996
2.8576904296874996
2.7392578125
2.7585937499999997
2.7013916015625
2.578125
2.321923828125
2.222021484375
1.98515625
1.828857421875
1.6822265625
3.0244628906249997
3.021240234375
3.0268798828124996
3.0244628906249997
3.0244628906249997
3.0228515624999996
2.318701171875
1.1295410156249999
0.3424072265625
0.023364257812499997
0.018530273437499998
0.0217529296875
0.020947265625
0.023364257812499997
0.0217529296875
0.02578125
0.0217529296875
0.024169921875
0.019335937499999997
0.024169921875
0.0217529296875
0.049951171875
0.13212890624999998
0.20705566406249998
0.28439941406249997
0.37302246093749997
0.439892578125
0.565576171875
