3.02607421875
3.021240234375
3.0268798828124996
3.0244628906249997
3.027685546875
3.0236572265625
2.360595703125
1.0352783203125
0.24814453125
0.0201416015625
0.0281982421875
0.022558593749999998
0.026586914062499998
0.022558593749999998
0.024169921875
0.022558593749999998
0.0249755859375
0.0201416015625
0.0169189453125
0.023364257812499997
0.018530273437499998
0.023364257812499997
0.053173828124999996
0.130517578125
0.23283691406249998
0.30856933593749997
0.37705078124999997
1.119873046875
2.4290771484375
2.7819580078125
2.8850830078125
2.8335205078124996
2.824658203125
2.7948486328124997
2.6933349609375
2.6562744140624996
2.6039062499999996
2.402490234375
2.1543457031249997
2.0697509765624997
1.8707519531249999
1.6959228515625
3.02607421875
3.02607421875
3.0309082031249996
3.0236572265625
3.0301025390625
3.0236572265625
2.328369140625
1.3994384765624999
0.5099853515625
0.022558593749999998
0.02578125
0.023364257812499997
0.024169921875
0.0281982421875
0.023364257812499997
0.024169921875
0.0201416015625
0.023364257812499997
0.017724609375
0.0281982421875
0.024169921875
0.0314208984375
0.104736328125
0.217529296875
0.28439941406249997
0.35126953125
0.4189453125
1.6685302734374998
2.4145751953125
2.83271484375
3.0043212890624997
3.018017578125
2.9358398437499997
2.8335205078124996
2.7569824218749996
2.6111572265625
2.53623046875
2.30419921875
2.2494140625
2.0810302734375
1.8892822265625
1.7853515624999998
3.0244628906249997
3.0349365234374996
3.02607421875
3.02607421875
3.0268798828124996
3.027685546875
2.650634765625
1.925537109375
0.5929687499999999
0.0249755859375
0.027392578124999997
0.023364257812499997
0.023364257812499997
0.0169189453125
0.024169921875
0.024169921875
0.0249755859375
0.0281982421875
0.024169921875
0.023364257812499997
0.023364257812499997
0.02578125
0.0990966796875
0.1812744140625
0.25458984375
0.34965820312499996
0.410888671875
0.46970214843749997
2.1309814453125
2.6949462890625
2.8609130859375
2.9100585937499996
2.8472167968749997
2.79404296875
2.792431640625
2.747314453125
2.6538574218749997
2.405712890625
2.2913085937499997
2.125341796875
1.9827392578124998
1.8739746093749998
2.8375488281249996
3.0252685546875
3.02607421875
3.0252685546875
3.027685546875
3.0236572265625
3.0220458984375
1.9924072265625
1.01513671875
0.33354492187499996
0.024169921875
0.022558593749999998
0.024169921875
0.023364257812499997
0.024169921875
0.026586914062499998
0.024169921875
0.022558593749999998
0.026586914062499998
0.019335937499999997
0.022558593749999998
0.023364257812499997
0.0539794921875
0.12810058593749998
0.23686523437499998
0.30937499999999996
0.37785644531249996
0.46083984375
1.6137451171875
2.4806396484374997
2.856884765625
2.9712890625
2.9189208984375
2.8560791015625
2.679638671875
2.5322021484375
2.43955078125
2.334814453125
2.1946289062499997
2.102783203125
1.9835449218749999
1.91748046875
1.8312744140625
3.0236572265625
3.029296875
3.02607421875
3.027685546875
3.021240234375
3.0252685546875
2.2832519531249997
1.3672119140624999
0.3037353515625
0.022558593749999998
0.018530273437499998
0.019335937499999997
0.023364257812499997
0.023364257812499997
0.023364257812499997
0.0217529296875
0.024169921875
0.0249755859375
0.020947265625
0.0217529296875
0.024169921875
0.0837890625
0.1877197265625
0.25458984375
0.3279052734375
0.41813964843749996
0.4809814453125
1.6604736328124998
2.5152832031249996
2.8367431640625
2.9761230468749997
2.953564453125
2.8391601562499997
2.7650390624999996
2.7046142578124996
2.5845703125
2.392822265625
2.2357177734375
2.0625
1.996435546875
1.9271484374999999
1.85302734375
3.0244628906249997
3.02607421875
3.0309082031249996
3.0284912109374997
3.0236572265625
3.0268798828124996
2.205908203125
1.513037109375
0.6550048828124999
0.0797607421875
0.022558593749999998
0.024169921875
0.023364257812499997
0.022558593749999998
0.0249755859375
0.019335937499999997
0.033837890625
0.022558593749999998
0.011279296874999999
0.027392578124999997
0.019335937499999997
0.069287109375
0.153076171875
0.2280029296875
0.32468261718749997
0.38994140624999996
0.45761718749999997
0.5325439453124999
2.1342041015624997
2.6627197265625
2.9116699218749997
2.92294921875
2.8915283203124997
2.9253662109375
2.843994140625
2.7110595703125
2.663525390625
2.4282714843749997
2.318701171875
2.1873779296875
1.9650146484375
1.8506103515624999
3.0236572265625
3.029296875
3.02607421875
3.02607421875
3.0244628906249997
3.027685546875
2.4427734375
1.8739746093749998
0.7541015624999999
0.127294921875
0.024169921875
0.0281982421875
0.023364257812499997
0.022558593749999998
0.022558593749999998
0.027392578124999997
0.023364257812499997
0.0217529296875
0.022558593749999998
0.0217529296875
0.022558593749999998
0.018530273437499998
0.11762695312499999
0.198193359375
0.26828613281249997
0.33837890625
0.42941894531249997
0.48662109374999996
1.714453125
2.6216308593749997
2.8754150390624997
2.9664550781249996
2.9430908203125
2.8045166015625
2.69091796875
2.689306640625
2.6143798828125
2.5152832031249996
2.338037109375
2.2856689453125
2.1938232421875
2.0890869140625
1.9593749999999999
3.0252685546875
3.0244628906249997
3.0220458984375
3.02607421875
3.0244628906249997
3.0252685546875
1.9166748046875
0.9079833984375
0.116015625
0.024169921875
0.023364257812499997
0.023364257812499997
0.017724609375
0.023364257812499997
0.024169921875
0.022558593749999998
0.023364257812499997
0.0217529296875
0.026586914062499998
0.020947265625
0.024169921875
0.064453125
0.1490478515625
0.22236328125
0.3198486328125
0.38913574218749997
0.45036621093749996
1.9360107421875
2.534619140625
2.753759765625
2.8778320312499996
2.7593994140625
2.7328124999999996
2.8029052734374997
2.7013916015625
2.5708740234375
2.4274658203125
2.1760986328125
2.0657226562499997
1.9392333984374999
1.80791015625
1.6975341796874999
3.02607421875
3.0236572265625
3.0244628906249997
3.0252685546875
3.0228515624999996
3.0268798828124996
2.1946289062499997
1.3470703124999999
0.3601318359375
0.023364257812499997
0.022558593749999998
0.0281982421875
0.023364257812499997
0.023364257812499997
0.023364257812499997
0.0201416015625
0.023364257812499997
0.020947265625
0.02578125
0.023364257812499997
0.02578125
0.09023437499999999
0.19899902343749998
0.2779541015625
0.34482421874999997
0.4036376953125
0.49064941406249996
0.5454345703125
2.2856689453125
2.7803466796875
2.8874999999999997
2.9503417968749996
2.8858886718749996
2.9156982421874997
2.876220703125
2.7521484375
2.6780273437499997
2.3936279296875
2.209130859375
2.05927734375
1.9150634765624999
1.78857421875
3.02607421875
3.0244628906249997
3.027685546875
3.027685546875
3.02607421875
3.02607421875
2.30419921875
1.3285400390625
0.5349609375
0.024169921875
0.022558593749999998
0.017724609375
0.023364257812499997
0.022558593749999998
0.023364257812499997
0.022558593749999998
0.0201416015625
0.024169921875
0.023364257812499997
0.024169921875
0.024169921875
0.0668701171875
0.1490478515625
0.2263916015625
0.30051269531249997
0.38994140624999996
0.45439453124999996
0.5115966796875
2.26875
2.83271484375
2.95517578125
2.9302001953124996
2.866552734375
2.8544677734375
2.6860839843749997
2.6449951171875
2.5338134765625
2.5064208984375
2.2349121093749997
2.125341796875
1.96904296875
1.84013671875
3.0268798828124996
3.02607421875
3.029296875
3.0244628906249997
3.0252685546875
3.027685546875
2.578125
1.7821289062499999
0.8096923828125
0.022558593749999998
0.020947265625
0.022558593749999998
0.022558593749999998
0.0217529296875
0.02578125
0.0249755859375
0.022558593749999998
0.024169921875
0.022558593749999998
0.0281982421875
0.0201416015625
0.04833984375
0.1264892578125
0.23686523437499998
0.30454101562499997
0.36979980468749996
0.4390869140625
0.515625
2.1342041015624997
2.6941406249999997
2.931005859375
3.0147949218749996
3.0075439453125
2.94873046875
2.91650390625
2.8375488281249996
2.7747070312499997
2.560400390625
2.34931640625
2.2494140625
2.0616943359374997
1.9295654296875
1.7603759765625
3.0309082031249996
3.027685546875
3.0252685546875
3.0236572265625
3.0244628906249997
3.029296875
2.263916015625
0.9869384765625
0.252978515625
0.0217529296875
0.022558593749999998
0.022558593749999998
0.024169921875
0.018530273437499998
0.0217529296875
0.023364257812499997
0.02578125
0.0249755859375
0.019335937499999997
0.0201416015625
0.02578125
0.03544921875
0.11843261718749999
0.19899902343749998
0.2771484375
0.36496582031249997
0.4326416015625
1.0489746093749999
2.4991699218749996
2.8109619140624997
2.8311035156249997
2.9036132812499997
2.8125732421875
2.8206298828125
2.7344238281249997
2.663525390625
2.6296874999999997
2.4806396484374997
2.2590820312499997
2.152734375
2.0576660156249997
1.9086181640625
3.0244628906249997
3.0236572265625
3.0244628906249997
3.0309082031249996
3.0204345703124997
3.021240234375
2.189794921875
1.222998046875
0.48259277343749996
0.023364257812499997
0.022558593749999998
0.018530273437499998
0.027392578124999997
0.0249755859375
0.023364257812499997
0.0249755859375
0.0217529296875
0.0169189453125
0.018530273437499998
0.0217529296875
0.0281982421875
0.038671874999999994
0.116015625
0.2118896484375
0.2908447265625
0.36174316406249996
0.427001953125
1.6693359374999999
2.392822265625
2.8206298828125
3.0147949218749996
3.0043212890624997
2.9745117187499996
2.940673828125
2.8431884765624997
2.7400634765625
2.6627197265625
2.44599609375
2.2590820312499997
2.14951171875
1.9545410156249998
1.8062988281249999
3.027685546875
3.0268798828124996
3.0244628906249997
3.021240234375
3.0244628906249997
3.0252685546875
2.5241455078125
1.6508056640625
0.4004150390625
0.0201416015625
0.023364257812499997
0.027392578124999997
0.022558593749999998
0.0201416015625
0.0217529296875
0.024169921875
0.0281982421875
0.023364257812499997
0.023364257812499997
0.022558593749999998
0.023364257812499997
0.022558593749999998
0.09023437499999999
0.169189453125
0.24895019531249998
0.3198486328125
0.40927734374999997
0.4680908203125
2.10439453125
2.69091796875
2.882666015625
2.9704833984374996
2.9197265624999997
2.9253662109375
2.7166992187499996
2.79404296875
2.7247558593749996
2.5313964843749996
2.34287109375
2.1470947265625
2.0012695312499997
1.883642578125
3.02607421875
3.0252685546875
3.02607421875
3.027685546875
3.0301025390625
3.0220458984375
2.995458984375
1.6991455078125
0.7565185546875
0.1699951171875
0.022558593749999998
0.0281982421875
0.0217529296875
0.024169921875
0.022558593749999998
0.022558593749999998
0.019335937499999997
0.020947265625
0.0249755859375
0.023364257812499997
0.0217529296875
0.02900390625
0.0539794921875
0.13857421875
0.24733886718749998
0.3150146484375
0.3875244140625
0.4519775390625
1.7700439453124999
2.5354248046874996
2.8109619140624997
2.9438964843749997
2.8947509765625
2.8351318359374997
2.8633300781249997
2.78759765625
2.6949462890625
2.6063232421875
2.333203125
2.23974609375
2.0496093749999997
1.8941162109374998
1.770849609375
3.0252685546875
3.0244628906249997
3.0244628906249997
3.0228515624999996
3.0220458984375
3.0301025390625
2.070556640625
1.15048828125
0.20302734374999998
0.0201416015625
0.0217529296875
0.023364257812499997
0.024169921875
0.023364257812499997
0.0217529296875
0.0217529296875
0.023364257812499997
0.020947265625
0.017724609375
0.022558593749999998
0.0249755859375
0.0604248046875
0.1611328125
0.2376708984375
0.3101806640625
0.40202636718749996
0.4648681640625
1.6733642578124999
2.4403564453124997
2.9422851562499996
2.995458984375
2.9511474609375
2.8359375
2.840771484375
2.719921875
2.6603027343749996
2.4556640625
2.312255859375
2.212353515625
2.0761962890625
1.9545410156249998
1.828857421875
3.02607421875
3.0244628906249997
3.0268798828124996
3.0309082031249996
3.0301025390625
3.0268798828124996
2.2365234375
1.1754638671875
0.40122070312499997
0.018530273437499998
0.024169921875
0.0217529296875
0.023364257812499997
0.02578125
0.02900390625
0.0249755859375
0.02900390625
0.0217529296875
0.022558593749999998
0.022558593749999998
0.023364257812499997
0.04189453125
0.12165527343749999
0.198193359375
0.29970703125
0.372216796875
0.4318359375
0.491455078125
2.312255859375
2.7271728515625
2.9205322265625
2.979345703125
2.9189208984375
2.9277832031249997
2.7730957031249996
2.769873046875
2.6240478515624996
2.5168945312499997
2.2751953124999997
2.1438720703125
2.0173828124999997
1.843359375
3.027685546875
3.027685546875
3.02607421875
3.021240234375
3.027685546875
3.02607421875
2.39443359375
1.7853515624999998
0.91201171875
0.12810058593749998
0.0201416015625
0.022558593749999998
0.0249755859375
0.02578125
0.017724609375
0.022558593749999998
0.018530273437499998
0.024169921875
0.022558593749999998
0.022558593749999998
0.022558593749999998
0.023364257812499997
0.03544921875
0.1393798828125
0.2135009765625
0.29326171875
0.38188476562499996
0.4447265625
1.9956298828124999
2.5837646484374996
2.8480224609375
2.898779296875
2.9100585937499996
2.9720947265624997
2.7706787109374997
2.7932373046874996
2.6868896484375
2.49755859375
2.3549560546875
2.2502197265625
2.1052001953125
2.0173828124999997
2.0979492187499997
3.0236572265625
3.0252685546875
3.029296875
3.0228515624999996
3.0236572265625
2.9922363281249997
2.023828125
0.797607421875
0.0958740234375
0.017724609375
0.026586914062499998
0.026586914062499998
0.022558593749999998
0.022558593749999998
0.024169921875
0.024169921875
0.02578125
0.023364257812499997
0.027392578124999997
0.018530273437499998
0.024169921875
0.0281982421875
0.104736328125
0.1796630859375
0.2827880859375
0.3472412109375
0.4149169921875
2.0552490234375
2.592626953125
2.8673583984374997
2.9583984374999996
2.9447021484375
2.85205078125
2.8286865234375
2.7505371093749997
2.65546875
2.3920166015624997
2.2566650390625
2.1293701171875
2.0012695312499997
1.861083984375
1.7490966796874998
3.0284912109374997
3.027685546875
3.0252685546875
3.0268798828124996
3.029296875
3.0236572265625
2.1809326171875
1.2350830078125
0.48662109374999996
0.022558593749999998
0.023364257812499997
0.020947265625
0.019335937499999997
0.023364257812499997
0.0201416015625
0.023364257812499997
0.023364257812499997
0.022558593749999998
0.023364257812499997
0.024169921875
0.017724609375
0.0249755859375
0.09023437499999999
0.1957763671875
0.2747314453125
0.3424072265625
0.42861328125
1.5033691406249998
2.321923828125
2.7593994140625
2.8431884765624997
2.9745117187499996
2.8834716796874997
2.876220703125
2.8560791015625
2.85849609375
2.7158935546875
2.5644287109375
2.3823486328125
2.16884765625
1.980322265625
1.8554443359375
3.0244628906249997
3.0244628906249997
3.027685546875
3.0252685546875
3.0301025390625
3.027685546875
2.318701171875
1.1786865234375
0.41008300781249996
0.020947265625
0.0249755859375
0.024169921875
0.023364257812499997
0.0281982421875
0.023364257812499997
0.027392578124999997
0.027392578124999997
0.017724609375
0.022558593749999998
0.023364257812499997
0.0217529296875
0.0298095703125
0.072509765625
0.1538818359375
0.22880859374999998
0.3311279296875
0.39396972656249996
0.456005859375
2.31064453125
2.7884033203125
2.92939453125
2.9664550781249996
2.8818603515624996
2.8625244140625
2.7505371093749997
2.6739990234374997
2.560400390625
2.4032958984375
2.1865722656249997
2.1116455078125
2.0012695312499997
1.7829345703125
3.02607421875
3.0284912109374997
3.0244628906249997
3.0268798828124996
3.0301025390625
3.0268798828124996
2.2623046875
1.6701416015625
0.6936767578124999
0.0281982421875
0.023364257812499997
0.023364257812499997
0.018530273437499998
0.02578125
0.0217529296875
0.022558593749999998
0.023364257812499997
0.023364257812499997
0.0201416015625
0.020947265625
0.018530273437499998
0.024169921875
0.0765380859375
0.18288574218749998
0.259423828125
0.3262939453125
0.394775390625
0.47775878906249997
2.1245361328125
2.72314453125
2.9841796874999997
2.9825683593749996
2.9269775390625
2.8230468749999997
2.7263671874999997
2.7263671874999997
2.663525390625
2.447607421875
2.2832519531249997
2.1382324218749997
2.0149658203125
1.91748046875
2.13984375
3.02607421875
3.021240234375
3.0268798828124996
3.0268798828124996
3.01962890625
2.9519531249999997
2.0093261718749997
0.800830078125
0.16435546874999998
0.0249755859375
0.0217529296875
0.026586914062499998
0.0217529296875
0.022558593749999998
0.023364257812499997
0.0217529296875
0.0217529296875
0.02578125
0.023364257812499997
0.024169921875
0.022558593749999998
0.0620361328125
0.14501953125
0.223974609375
0.2908447265625
0.3843017578125
0.44956054687499997
1.5662109375
2.537841796875
2.7867919921874997
2.8536621093749996
2.8850830078125
2.8641357421875
2.7779296875
2.7650390624999996
2.6031005859375
2.4983642578125
2.3340087890625
2.1422607421874997
2.03994140625
1.8908935546874999
1.883642578125
3.0236572265625
3.0244628906249997
3.0236572265625
3.0252685546875
3.0252685546875
3.029296875
2.126953125
1.1150390625
0.3262939453125
0.0249755859375
0.0281982421875
0.023364257812499997
0.0281982421875
0.023364257812499997
0.0249755859375
0.0298095703125
0.0281982421875
0.0169189453125
0.0201416015625
0.027392578124999997
0.024169921875
0.0765380859375
0.1619384765625
0.259423828125
0.33193359375
0.394775390625
0.46245117187499996
1.687060546875
2.3952392578125
2.7932373046874996
2.9261718749999996
2.872998046875
2.8657470703124996
2.81015625
2.753759765625
2.6941406249999997
2.5394531249999996
2.4177978515625
2.28486328125
2.1503173828124997
1.9464843749999998
1.82080078125
3.0252685546875
3.02607421875
3.027685546875
3.0252685546875
3.02607421875
3.0252685546875
2.0898925781249997
1.490478515625
0.39799804687499996
0.024169921875
0.023364257812499997
0.026586914062499998
0.02578125
0.023364257812499997
0.026586914062499998
0.023364257812499997
0.02578125
0.027392578124999997
0.0217529296875
0.0217529296875
0.022558593749999998
0.0378662109375
0.1458251953125
0.22075195312499998
0.2989013671875
0.3843017578125
0.44633789062499996
0.5115966796875
2.173681640625
2.7851806640624996
2.8794433593749997
2.8939453124999996
2.9302001953124996
2.9398681640624997
2.7908203124999997
2.7021972656249997
2.63935546875
2.3759033203124997
2.260693359375
2.0778076171874997
1.9537353515625
1.8111328125
3.0252685546875
3.02607421875
3.0204345703124997
3.0228515624999996
3.0244628906249997
3.0325195312499997
2.6756103515625
1.60166015625
0.710595703125
0.0797607421875
0.0217529296875
0.0169189453125
0.023364257812499997
0.022558593749999998
0.0217529296875
0.022558593749999998
0.022558593749999998
0.019335937499999997
0.023364257812499997
0.023364257812499997
0.0281982421875
0.0249755859375
0.0910400390625
0.169189453125
0.2731201171875
0.3440185546875
0.41330566406249997
0.48984374999999997
2.08505859375
2.7191162109375
2.9422851562499996
3.0244628906249997
2.9543701171874996
2.9302001953124996
2.8544677734375
2.6723876953124996
2.79404296875
2.5152832031249996
2.3138671875
2.1777099609375
2.0745849609375
1.85947265625
2.392822265625
3.021240234375
3.01962890625
3.0301025390625
3.0244628906249997
3.027685546875
2.9285888671875
2.0044921875
1.019970703125
0.130517578125
0.023364257812499997
0.026586914062499998
0.0217529296875
0.020947265625
0.022558593749999998
0.019335937499999997
0.023364257812499997
0.027392578124999997
0.019335937499999997
0.0217529296875
0.0281982421875
0.02578125
0.030615234374999998
0.133740234375
0.21672363281249998
0.28439941406249997
0.3794677734375
0.4406982421875
1.7023681640625
2.72314453125
2.914892578125
2.9197265624999997
2.8681640625
2.7747070312499997
2.7191162109375
2.56845703125
2.40087890625
2.2727783203125
2.1946289062499997
2.028662109375
1.998046875
1.8554443359375
1.7337890624999999
3.0268798828124996
3.0244628906249997
3.0268798828124996
3.0244628906249997
3.0252685546875
3.02607421875
2.0173828124999997
1.094091796875
0.343212890625
0.022558593749999998
0.0217529296875
0.023364257812499997
0.019335937499999997
0.023364257812499997
0.0217529296875
0.023364257812499997
0.019335937499999997
0.024169921875
0.023364257812499997
0.023364257812499997
0.024169921875
0.09023437499999999
0.17241210937499998
0.2441162109375
0.339990234375
0.4036376953125
0.468896484375
1.59521484375
2.466943359375
2.7867919921874997
2.9455078125
2.8560791015625
2.8391601562499997
2.8319091796875
2.72958984375
2.7005859374999996
2.5740966796875
2.392822265625
2.2631103515624997
2.1704589843749997
1.9988525390624998
1.844970703125
3.02607421875
3.0309082031249996
3.0252685546875
3.0204345703124997
3.02607421875
3.0228515624999996
2.309033203125
1.5589599609375
0.5019287109375
0.0201416015625
0.026586914062499998
0.022558593749999998
0.02578125
0.0201416015625
0.022558593749999998
0.0169189453125
0.0217529296875
0.02578125
0.0217529296875
0.0249755859375
0.023364257812499997
0.0201416015625
0.1168212890625
0.1941650390625
0.2698974609375
0.343212890625
0.4278076171875
0.48984374999999997
2.1277587890625
2.6941406249999997
2.8399658203125
2.89716796875
2.8335205078124996
2.860107421875
2.7948486328124997
2.7593994140625
2.6965576171874996
2.454052734375
2.3557617187499997
2.2115478515625
2.0737792968749997
1.8264404296874999
3.027685546875
3.0252685546875
3.027685546875
3.029296875
3.02607421875
3.0236572265625
2.6917236328125
1.5283447265624999
0.60263671875
0.024169921875
0.024169921875
0.024169921875
0.02578125
0.023364257812499997
0.02578125
0.0281982421875
0.022558593749999998
0.023364257812499997
0.02578125
0.024169921875
0.024169921875
0.020947265625
0.0966796875
0.17724609375
0.252978515625
0.34160156249999996
0.40927734374999997
0.475341796875
2.2872802734374997
2.8037109375
2.9414794921875
2.9398681640624997
2.9640380859374997
2.979345703125
2.8423828125
2.7972656249999996
2.5813476562499997
2.421826171875
2.2510253906249997
2.083447265625
1.989990234375
1.8304687499999999
2.513671875
3.02607421875
3.02607421875
3.02607421875
3.02607421875
3.0244628906249997
3.0107666015624996
1.896533203125
0.9466552734375
0.024169921875
0.018530273437499998
0.022558593749999998
0.026586914062499998
0.024169921875
0.0249755859375
0.027392578124999997
0.023364257812499997
0.018530273437499998
0.022558593749999998
0.0217529296875
0.017724609375
0.026586914062499998
0.040283203125
0.15146484375
0.22719726562499998
0.2989013671875
0.3681884765625
0.4552001953125
1.62744140625
2.5209228515624997
2.7851806640624996
2.8754150390624997
2.7988769531249997
2.8633300781249997
2.88427734375
2.811767578125
2.7086425781249996
2.570068359375
2.3372314453125
2.247802734375
2.0955322265625
1.9408447265625
1.7797119140625
3.02607421875
3.0244628906249997
3.0309082031249996
3.0204345703124997
3.0244628906249997
3.0244628906249997
2.2993652343749997
1.0836181640625
0.36899414062499997
0.022558593749999998
0.019335937499999997
0.023364257812499997
0.0217529296875
0.022558593749999998
0.017724609375
0.0217529296875
0.022558593749999998
0.0169189453125
0.023364257812499997
0.017724609375
0.017724609375
0.0362548828125
0.11440429687499999
0.193359375
0.2666748046875
0.3585205078125
0.4229736328125
0.49387207031249997
2.5112548828124996
2.8738037109374996
2.9519531249999997
3.0252685546875
2.9390625
2.9326171875
2.8512451171874997
2.6917236328125
2.5950439453125
2.373486328125
2.254248046875
2.099560546875
1.944873046875
1.7668212890625
3.029296875
3.0252685546875
3.0268798828124996
3.0252685546875
3.0244628906249997
3.02607421875
2.209130859375
1.4590576171874998
0.476953125
0.024169921875
0.0201416015625
0.023364257812499997
0.019335937499999997
0.026586914062499998
0.022558593749999998
0.022558593749999998
0.024169921875
0.022558593749999998
0.0201416015625
0.024169921875
0.020947265625
0.0249755859375
0.07009277343749999
0.1796630859375
0.2537841796875
0.32065429687499997
0.3923583984375
0.47775878906249997
2.2598876953125
2.779541015625
2.9898193359375
2.989013671875
2.9640380859374997
2.8858886718749996
2.7610107421874996
2.5716796874999996
2.43955078125
2.26552734375
2.0971435546875
2.0334960937499997
1.8506103515624999
1.7233154296875
3.0244628906249997
3.0228515624999996
3.0236572265625
3.01962890625
3.0268798828124996
3.0236572265625
2.995458984375
1.864306640625
0.58974609375
0.023364257812499997
0.0169189453125
0.0249755859375
0.024169921875
0.024169921875
0.023364257812499997
0.023364257812499997
0.026586914062499998
0.023364257812499997
0.023364257812499997
0.023364257812499997
0.024169921875
0.023364257812499997
0.10554199218749999
0.18691406249999998
0.2650634765625
0.33354492187499996
0.4229736328125
0.4833984375
1.735400390625
2.7062255859374997
2.8915283203124997
2.9455078125
2.8818603515624996
2.860107421875
2.8037109375
2.7642333984375
2.657080078125
2.4903076171875
2.281640625
2.196240234375
2.0568603515625
1.9505126953124998
3.0204345703124997
3.02607421875
3.02607421875
3.021240234375
3.0252685546875
3.0244628906249997
3.0284912109374997
1.9150634765624999
0.9385986328125
0.28439941406249997
0.020947265625
0.0249755859375
0.023364257812499997
0.024169921875
0.0217529296875
0.0217529296875
0.0217529296875
0.026586914062499998
0.023364257812499997
0.023364257812499997
0.022558593749999998
0.024169921875
0.049145507812499996
0.13212890624999998
0.23525390624999998
0.3053466796875
0.37302246093749997
0.43828124999999996
1.7313720703125
2.55234375
2.8391601562499997
2.88427734375
2.91650390625
2.872998046875
2.7908203124999997
2.705419921875
2.6683593749999996
2.4846679687499997
2.292919921875
2.176904296875
2.070556640625
1.869140625
1.7474853515625
3.0244628906249997
3.027685546875
3.0252685546875
3.0268798828124996
3.0236572265625
3.0252685546875
2.1632080078125
1.345458984375
0.1973876953125
0.02900390625
0.0217529296875
0.022558593749999998
0.026586914062499998
0.023364257812499997
0.027392578124999997
0.0249755859375
0.0217529296875
0.024169921875
0.026586914062499998
0.018530273437499998
0.0201416015625
0.040283203125
0.14501953125
0.2199462890625
0.2989013671875
0.3875244140625
0.456005859375
1.7934082031249998
2.3678466796874997
2.7779296875
2.8754150390624997
2.892333984375
2.8069335937499997
2.7424804687499997
2.689306640625
2.5571777343749997
2.367041015625
2.260693359375
2.1462890624999997
2.031884765625
1.9835449218749999
1.8892822265625
3.0244628906249997
3.0236572265625
3.0284912109374997
3.0220458984375
3.0236572265625
3.0252685546875
2.34287109375
1.4542236328125
0.5663818359375
0.033837890625
0.024169921875
0.020947265625
0.018530273437499998
0.0249755859375
0.019335937499999997
0.022558593749999998
0.02578125
0.0217529296875
0.0249755859375
0.0281982421875
0.0249755859375
0.045117187499999996
0.127294921875
0.2022216796875
0.3037353515625
0.36979980468749996
0.4358642578125
0.5003173828124999
2.255859375
2.7263671874999997
2.9076416015624997
3.003515625
3.0228515624999996
2.8995849609374997
2.8447998046875
2.7328124999999996
2.6659423828124997
2.4854736328125
2.333203125
2.1382324218749997
2.0375244140624997
1.8884765625
3.0228515624999996
3.0252685546875
3.021240234375
3.02607421875
3.0244628906249997
3.0268798828124996
2.410546875
1.7531249999999998
0.7798828124999999
0.024169921875
0.022558593749999998
0.022558593749999998
0.023364257812499997
0.02900390625
0.023364257812499997
0.024169921875
0.0169189453125
0.018530273437499998
0.022558593749999998
0.023364257812499997
0.022558593749999998
0.0249755859375
0.0652587890625
0.1716064453125
0.2457275390625
0.31340332031249996
0.38510742187499997
0.46970214843749997
2.083447265625
2.7021972656249997
3.0228515624999996
3.011572265625
2.892333984375
2.8302978515625
2.7223388671874997
2.666748046875
2.6176025390624997
2.354150390625
2.2324951171875
2.0947265625
1.9247314453125
1.8280517578125
1.7652099609374998
3.0188232421874996
3.027685546875
3.021240234375
3.0268798828124996
3.0236572265625
3.02607421875
2.075390625
0.825
0.11440429687499999
0.022558593749999998
0.0249755859375
0.0298095703125
0.022558593749999998
0.0217529296875
0.022558593749999998
0.0281982421875
0.022558593749999998
0.022558593749999998
0.0201416015625
0.023364257812499997
0.0217529296875
0.07734374999999999
0.1611328125
0.23525390624999998
0.310986328125
0.39316406249999997
0.46245117187499996
1.8167724609375
2.6369384765625
2.8697753906249996
3.003515625
2.9865966796874996
2.9390625
2.88427734375
2.8157958984375
2.6965576171874996
2.592626953125
2.341259765625
2.1358154296875
2.0697509765624997
1.883642578125
1.8248291015625
3.02607421875
3.0252685546875
3.027685546875
3.0252685546875
3.0309082031249996
3.0268798828124996
2.1438720703125
1.18916015625
0.43425292968749996
0.022558593749999998
0.0217529296875
0.023364257812499997
0.017724609375
0.024169921875
0.027392578124999997
0.024169921875
0.027392578124999997
0.023364257812499997
0.0281982421875
0.0298095703125
0.020947265625
0.027392578124999997
0.1039306640625
0.18046874999999998
0.28037109374999997
0.348046875
0.4165283203125
0.49790039062499997
2.2937255859375
2.7489257812499996
2.8939453124999996
2.91328125
2.9205322265625
2.9422851562499996
2.7666503906249997
2.7223388671874997
2.5740966796875
2.3323974609375
2.2099365234375
2.165625
1.9327880859375
1.8264404296874999
3.0244628906249997
3.0244628906249997
3.0244628906249997
3.0236572265625
3.0236572265625
3.0268798828124996
2.231689453125
1.6572509765624999
0.5446289062499999
0.0314208984375
0.023364257812499997
0.026586914062499998
0.022558593749999998
0.023364257812499997
0.022558593749999998
0.023364257812499997
0.0217529296875
0.01611328125
0.020947265625
0.024169921875
0.023364257812499997
0.02900390625
0.1071533203125
0.18449707031249998
0.2553955078125
0.33273925781249997
0.41733398437499997
0.4842041015625
2.2985595703125
2.9326171875
3.0252685546875
3.0309082031249996
2.9898193359375
3.003515625
2.9455078125
2.8238525390625
2.634521484375
2.466943359375
2.3098388671875
2.1148681640625
2.00771484375
1.8796142578125
1.8143554687499999
3.021240234375
3.0220458984375
3.043798828125
3.027685546875
3.02607421875
3.0252685546875
1.7128417968749998
0.6985107421875
0.037060546874999996
0.022558593749999998
0.023364257812499997
0.02578125
0.0217529296875
0.026586914062499998
0.023364257812499997
0.024169921875
0.018530273437499998
0.023364257812499997
0.017724609375
0.0201416015625
0.022558593749999998
0.023364257812499997
0.09426269531249999
0.17080078124999998
0.26828613281249997
0.3391845703125
0.404443359375
1.9779052734375
2.5732910156249997
2.9173095703125
3.021240234375
3.0252685546875
2.8963623046875
2.9906249999999996
2.7191162109375
2.7175048828125
2.6739990234374997
2.341259765625
2.209130859375
2.1382324218749997
1.9529296875
1.7571533203124998
3.01962890625
3.02607421875
3.0252685546875
3.0228515624999996
3.0252685546875
3.0268798828124996
2.1591796875
1.1851318359375
0.1957763671875
0.024169921875
0.024169921875
0.023364257812499997
0.022558593749999998
0.0217529296875
0.02578125
0.022558593749999998
0.0217529296875
0.02900390625
0.022558593749999998
0.019335937499999997
0.023364257812499997
0.0217529296875
0.0749267578125
0.1538818359375
0.233642578125
0.3029296875
0.39396972656249996
0.8531982421875
2.333203125
2.8866943359375
3.0268798828124996
3.005126953125
2.914892578125
2.8399658203125
2.7561767578125
2.7569824218749996
2.5724853515625
2.3912109375
2.1712646484375
1.9843505859375
1.8489990234375
1.71123046875
3.0252685546875
3.0252685546875
3.0244628906249997
3.021240234375
3.0284912109374997
3.02607421875
2.183349609375
1.1947998046875
0.40202636718749996
0.024169921875
0.0169189453125
0.022558593749999998
0.023364257812499997
0.027392578124999997
0.023364257812499997
0.023364257812499997
0.022558593749999998
0.019335937499999997
0.0217529296875
0.022558593749999998
0.027392578124999997
0.0249755859375
0.09345703124999999
0.1740234375
0.2457275390625
0.346435546875
0.40283203125
0.468896484375
2.4202148437499997
2.848828125
2.921337890625
3.01962890625
2.9181152343749996
2.8939453124999996
2.66513671875
2.6014892578124997
2.5483154296875
2.3638183593749997
2.1615966796875
2.02060546875
1.9110351562499999
1.8199951171875
3.0301025390625
3.02607421875
3.0333251953125
3.0268798828124996
3.0268798828124996
3.0268798828124996
2.4911132812499996
1.6508056640625
0.6533935546874999
0.024169921875
0.0217529296875
0.0217529296875
0.022558593749999998
0.018530273437499998
0.0281982421875
0.017724609375
0.024169921875
0.024169921875
0.0201416015625
0.020947265625
0.0217529296875
0.024169921875
0.0765380859375
0.18046874999999998
0.2618408203125
0.330322265625
0.3988037109375
0.48178710937499997
2.1358154296875
2.6619140624999997
2.8899169921874996
2.9358398437499997
2.9181152343749996
2.85849609375
2.68125
2.7827636718749997
2.6707763671875
2.3775146484375
2.2518310546875
2.054443359375
1.8884765625
1.7466796875
1.848193359375
3.0244628906249997
3.02607421875
3.0252685546875
3.02607421875
3.021240234375
3.0083496093749997
2.0955322265625
0.825
0.1780517578125
0.022558593749999998
0.019335937499999997
0.018530273437499998
0.02578125
0.020947265625
0.020947265625
0.023364257812499997
0.024169921875
0.026586914062499998
0.022558593749999998
0.024169921875
0.023364257812499997
0.08701171875
0.1716064453125
0.25458984375
0.3230712890625
0.40524902343749997
0.47050781249999996
1.7370117187499998
2.5789306640625
2.8617187499999996
2.979345703125
2.9922363281249997
2.8995849609374997
2.8633300781249997
2.753759765625
2.6925292968749996
2.5644287109375
2.3630126953125
2.2026855468749997
2.07861328125
1.9343994140624998
1.812744140625
3.0268798828124996
3.0244628906249997
3.0244628906249997
3.0268798828124996
3.0252685546875
3.027685546875
2.0197998046875
1.100537109375
0.3391845703125
0.0281982421875
0.022558593749999998
0.0249755859375
0.023364257812499997
0.024169921875
0.023364257812499997
0.018530273437499998
0.022558593749999998
0.023364257812499997
0.023364257812499997
0.0217529296875
0.019335937499999997
0.0459228515625
0.12810058593749998
0.2054443359375
0.3069580078125
0.37302246093749997
0.43505859375
1.699951171875
2.4927246093749997
2.818212890625
2.9092529296875
2.8947509765625
2.882666015625
2.8673583984374997
2.737646484375
2.6941406249999997
2.5716796874999996
2.4210205078125
2.2349121093749997
2.0939208984374997
1.9698486328125
1.80791015625
3.027685546875
3.0236572265625
3.0268798828124996
3.0268798828124996
3.0252685546875
3.0252685546875
2.1986572265624997
1.51787109375
0.6380859375
0.024169921875
0.022558593749999998
0.023364257812499997
0.023364257812499997
0.023364257812499997
0.019335937499999997
0.022558593749999998
0.0217529296875
0.023364257812499997
0.023364257812499997
0.022558593749999998
0.023364257812499997
0.0281982421875
0.08217773437499999
0.19013671875
0.2666748046875
0.3359619140625
0.42539062499999997
0.4833984375
2.125341796875
2.7344238281249997
2.8850830078125
2.900390625
2.9285888671875
2.8713867187499997
2.6780273437499997
2.615185546875
2.5966552734375
2.473388671875
2.3009765625
2.0391357421875
2.035107421875
1.9666259765624998
2.5434814453124996
3.02607421875
3.0220458984375
3.0252685546875
3.0268798828124996
3.0244628906249997
2.8657470703124996
1.6153564453125
0.7315429687499999
0.059619140625
0.02578125
0.0217529296875
0.026586914062499998
0.027392578124999997
0.0217529296875
0.024169921875
0.027392578124999997
0.023364257812499997
0.027392578124999997
0.023364257812499997
0.026586914062499998
0.0281982421875
0.09829101562499999
0.18369140625
0.25458984375
0.346435546875
0.4165283203125
0.48017578125
2.1632080078125
2.63935546875
2.9189208984375
3.0236572265625
2.995458984375
2.9600097656249997
2.8689697265625
2.7779296875
2.6377441406249997
2.487890625
2.2510253906249997
2.11083984375
1.9215087890625
1.8256347656249998
1.9617919921875
3.02607421875
3.0252685546875
3.0244628906249997
3.02607421875
3.0244628906249997
2.9342285156249996
1.9489013671875
1.0449462890624999
0.3029296875
0.022558593749999998
0.0169189453125
0.020947265625
0.0217529296875
0.024169921875
0.0249755859375
0.023364257812499997
0.023364257812499997
0.0217529296875
0.02900390625
0.027392578124999997
0.02900390625
0.059619140625
0.141796875
0.24169921875
0.32065429687499997
0.3826904296875
0.468896484375
1.635498046875
2.512060546875
2.9422851562499996
3.0043212890624997
3.027685546875
2.9197265624999997
2.9189208984375
2.7263671874999997
2.715087890625
2.5636230468749996
2.44921875
2.3178955078125
2.07216796875
1.8546386718749999
1.699951171875
3.029296875
3.0220458984375
3.0252685546875
3.0204345703124997
3.0309082031249996
3.029296875
2.25263671875
1.1077880859375
0.36174316406249996
0.0217529296875
0.0217529296875
0.024169921875
0.023364257812499997
0.022558593749999998
0.024169921875
0.0201416015625
0.024169921875
0.022558593749999998
0.023364257812499997
0.0217529296875
0.0217529296875
0.024169921875
0.08942871093749999
0.1651611328125
0.2441162109375
0.33837890625
0.40524902343749997
0.46647949218749996
2.26552734375
2.6772216796875
2.8029052734374997
2.8447998046875
2.8302978515625
2.8480224609375
2.8818603515624996
2.8456054687499996
2.7303955078124997
2.4685546874999997
2.24619140625
2.1197021484375
2.0254394531249997
1.764404296875
3.0284912109374997
3.02607421875
3.0284912109374997
3.021240234375
3.0252685546875
3.0244628906249997
2.2260498046875
1.4437499999999999
0.49306640625
0.0281982421875
0.022558593749999998
0.0201416015625
0.023364257812499997
0.023364257812499997
0.017724609375
0.022558593749999998
0.022558593749999998
0.020947265625
0.0169189453125
0.023364257812499997
0.0249755859375
0.02578125
0.09426269531249999
0.2038330078125
0.27634277343749997
0.3472412109375
0.41411132812499996
0.4962890625
2.2421630859375
2.7416748046875
2.9817626953125
3.0228515624999996
2.9390625
2.9140869140624996
2.7320068359375
2.5877929687499996
2.5338134765625
2.2840576171875
2.1205078125
2.002880859375
1.8570556640625
1.7652099609374998
2.5894042968749997
3.02607421875
3.0268798828124996
3.0236572265625
3.0228515624999996
3.0284912109374997
2.8254638671874996
1.8441650390625
0.5478515625
0.02900390625
0.024169921875
0.022558593749999998
0.02578125
0.024169921875
0.023364257812499997
0.026586914062499998
0.019335937499999997
0.023364257812499997
0.018530273437499998
0.018530273437499998
0.020947265625
0.0346435546875
0.143408203125
0.21591796875
0.29326171875
0.3843017578125
0.44633789062499996
0.5067626953125
1.786962890625
2.7408691406249996
2.931005859375
3.0043212890624997
3.0252685546875
3.0010986328125
2.9849853515625
2.8359375
2.6804443359374996
2.3654296875
2.3662353515625
2.23330078125
2.1140624999999997
1.9617919921875
2.2727783203125
3.02607421875
3.0244628906249997
3.0268798828124996
3.0244628906249997
3.0228515624999996
3.0228515624999996
2.09150390625
1.1077880859375
0.378662109375
0.023364257812499997
0.0249755859375
0.024169921875
0.023364257812499997
0.026586914062499998
0.018530273437499998
0.026586914062499998
0.023364257812499997
0.026586914062499998
0.0249755859375
0.023364257812499997
0.0249755859375
0.0249755859375
0.0878173828125
0.1893310546875
0.26022949218749997
0.33193359375
0.4229736328125
1.603271484375
2.392822265625
2.83271484375
2.9519531249999997
2.9720947265624997
2.9712890625
2.91328125
2.8447998046875
2.7046142578124996
2.5885986328125
2.358984375
2.196240234375
2.10439453125
1.9279541015625
1.7539306640624999
3.0244628906249997
3.0220458984375
3.0228515624999996
3.021240234375
3.0244628906249997
3.0244628906249997
2.2598876953125
1.3575439453125
0.259423828125
0.0201416015625
0.02578125
0.024169921875
0.0281982421875
0.0217529296875
0.024169921875
0.023364257812499997
0.0217529296875
0.022558593749999998
0.022558593749999998
0.023364257812499997
0.02578125
0.024169921875
0.09829101562499999
0.17644042968749998
0.2537841796875
0.343212890625
0.41733398437499997
0.475341796875
2.109228515625
2.7489257812499996
2.892333984375
2.89716796875
2.82626953125
2.763427734375
2.6876953125
2.53623046875
2.3662353515625
2.241357421875
2.18173828125
2.0625
2.0149658203125
1.8659179687499998
3.027685546875
3.0268798828124996
3.02607421875
3.0309082031249996
3.0236572265625
3.0236572265625
2.7730957031249996
1.4276367187499999
0.5929687499999999
0.022558593749999998
0.0217529296875
0.027392578124999997
0.0217529296875
0.0201416015625
0.020947265625
0.023364257812499997
0.022558593749999998
0.022558593749999998
0.022558593749999998
0.022558593749999998
0.0249755859375
0.0475341796875
0.1297119140625
0.20302734374999998
0.3053466796875
0.375439453125
0.4318359375
0.5164306640624999
2.19140625
2.689306640625
2.8979736328124996
3.0236572265625
3.01962890625
2.9680664062499997
2.9116699218749997
2.8238525390625
2.6594970703125
2.3887939453125
2.431494140625
2.199462890625
2.0689453125
1.931982421875
3.0244628906249997
3.02607421875
3.02607421875
3.0325195312499997
3.029296875
3.0252685546875
2.6417724609374997
1.9005615234375
0.9144287109375
0.0378662109375
0.02900390625
0.022558593749999998
0.022558593749999998
0.018530273437499998
0.019335937499999997
0.018530273437499998
0.022558593749999998
0.0249755859375
0.022558593749999998
0.022558593749999998
0.022558593749999998
0.018530273437499998
0.0298095703125
0.12890625
0.2102783203125
0.28359375
0.37302246093749997
0.4439208984375
1.58232421875
2.46533203125
2.8311035156249997
2.9100585937499996
2.9092529296875
2.8754150390624997
2.7489257812499996
2.6868896484375
2.6546630859375
2.4846679687499997
2.34287109375
2.2357177734375
2.1358154296875
2.0343017578125
1.928759765625
3.0252685546875
3.0252685546875
3.0204345703124997
3.0268798828124996
3.0252685546875
3.02607421875
2.15595703125
1.0610595703124999
0.3762451171875
0.0217529296875
0.01611328125
0.020947265625
0.0217529296875
0.023364257812499997
0.022558593749999998
0.0217529296875
0.019335937499999997
0.0249755859375
0.023364257812499997
0.018530273437499998
0.022558593749999998
0.024169921875
0.07814941406249999
0.1619384765625
0.259423828125
0.330322265625
0.3988037109375
1.6524169921874998
2.386376953125
2.6997802734375
2.8230468749999997
2.8681640625
2.7465087890624997
2.7005859374999996
2.6224365234375
2.6530517578125
2.5031982421874996
2.2792236328124997
2.2163818359375
2.102783203125
1.972265625
1.7499023437499999
3.0252685546875
3.0268798828124996
3.0252685546875
3.021240234375
3.02607421875
3.02607421875
2.1632080078125
1.4655029296875
0.6090820312499999
0.0249755859375
0.023364257812499997
0.027392578124999997
0.023364257812499997
0.022558593749999998
0.023364257812499997
0.0217529296875
0.022558593749999998
0.0217529296875
0.02578125
0.0217529296875
0.023364257812499997
0.018530273437499998
0.08540039062499999
0.18691406249999998
0.265869140625
0.3343505859375
0.42216796874999996
0.48662109374999996
2.0536376953124997
2.5813476562499997
2.7392578125
2.76181640625
2.7585937499999997
2.8415771484374996
2.8375488281249996
2.7102539062499997
2.6288818359375
2.462109375
2.3501220703125
2.1865722656249997
1.9432617187499999
1.8626953124999999
3.0236572265625
3.0220458984375
3.02607421875
3.0236572265625
3.0244628906249997
3.0236572265625
2.3807373046875
1.8546386718749999
0.708984375
0.18852539062499998
0.023364257812499997
0.0249755859375
0.02578125
0.023364257812499997
0.0217529296875
0.023364257812499997
0.023364257812499997
0.018530273437499998
0.023364257812499997
0.022558593749999998
0.022558593749999998
0.0249755859375
0.104736328125
0.18288574218749998
0.2618408203125
0.3504638671875
0.4125
0.475341796875
1.8844482421875
2.7005859374999996
2.9390625
2.931005859375
2.8512451171874997
2.8544677734375
2.7884033203125
2.7505371093749997
2.6925292968749996
2.5491210937499997
2.344482421875
2.141455078125
1.9762939453125
1.8667236328124999
3.0252685546875
3.0244628906249997
3.0204345703124997
3.0301025390625
3.02607421875
3.029296875
3.0550781249999996
1.8844482421875
0.9676025390624999
0.2634521484375
0.022558593749999998
0.018530273437499998
0.0201416015625
0.023364257812499997
0.0281982421875
0.022558593749999998
0.027392578124999997
0.01611328125
0.022558593749999998
0.022558593749999998
0.0217529296875
0.02900390625
0.04833984375
0.1264892578125
0.23122558593749998
0.3037353515625
0.3673828125
0.4326416015625
1.7893798828124998
2.450830078125
2.75537109375
2.882666015625
2.7988769531249997
2.7585937499999997
2.6723876953124996
2.6296874999999997
2.6111572265625
2.4870849609374996
2.2953369140624997
2.1591796875
2.0004638671875
1.877197265625
1.8111328125
3.0252685546875
3.0268798828124996
3.0244628906249997
3.0252685546875
3.0301025390625
3.0252685546875
2.2494140625
1.3237060546875
0.24169921875
0.0217529296875
0.0201416015625
0.024169921875
0.024169921875
0.0201416015625
0.022558593749999998
0.023364257812499997
0.022558593749999998
0.024169921875
0.0249755859375
0.022558593749999998
0.023364257812499997
0.0539794921875
0.159521484375
0.2376708984375
0.307763671875
0.39799804687499996
0.4640625
0.523681640625
2.1503173828124997
2.721533203125
2.9181152343749996
2.9253662109375
2.8955566406249997
2.889111328125
2.7658447265625
2.6490234375
2.6232421875
2.383154296875
2.2792236328124997
2.1261474609374997
1.915869140625
1.8739746093749998
3.0284912109374997
3.027685546875
3.02607421875
3.0284912109374997
3.0268798828124996
3.02607421875
2.367041015625
1.3873535156249999
0.5204589843749999
0.024169921875
0.019335937499999997
0.0217529296875
0.023364257812499997
0.020947265625
0.0249755859375
0.020947265625
0.017724609375
0.022558593749999998
0.024169921875
0.024169921875
0.022558593749999998
0.030615234374999998
0.1039306640625
0.18288574218749998
0.2876220703125
0.3544921875
0.4197509765625
0.8225830078124999
2.3694580078125
2.7779296875
2.9181152343749996
2.985791015625
2.95517578125
2.9100585937499996
2.72958984375
2.6095458984374997
2.479833984375
2.2276611328125
2.1696533203125
2.0560546875
1.93359375
1.7821289062499999
3.0220458984375
3.0244628906249997
3.0244628906249997
3.02607421875
3.0228515624999996
3.02607421875
2.7513427734375
1.8570556640625
0.813720703125
0.041088867187499996
0.023364257812499997
0.022558593749999998
0.0201416015625
0.026586914062499998
0.020947265625
0.022558593749999998
0.022558593749999998
0.023364257812499997
0.0201416015625
0.023364257812499997
0.02578125
0.0249755859375
0.0966796875
0.201416015625
0.278759765625
0.3440185546875
0.4326416015625
0.4954833984375
2.0713623046875
2.6014892578124997
2.9044189453125
2.9761230468749997
2.96162109375
2.9358398437499997
2.8963623046875
2.8818603515624996
2.7585937499999997
2.5708740234375
2.3807373046875
2.2107421874999997
2.0625
1.9529296875
1.7345947265625
3.0228515624999996
3.021240234375
3.0268798828124996
3.02607421875
3.0268798828124996
3.021240234375
2.12373046875
0.8999267578125
0.2376708984375
0.023364257812499997
0.018530273437499998
0.023364257812499997
0.022558593749999998
0.023364257812499997
0.024169921875
0.018530273437499998
0.024169921875
0.017724609375
0.022558593749999998
0.022558593749999998
0.023364257812499997
0.0322265625
0.10957031249999999
0.191748046875
0.2860107421875
0.3544921875
0.42216796874999996
1.56298828125
2.41376953125
2.715087890625
2.848828125
2.9173095703125
2.8633300781249997
2.8141845703125
2.72314453125
2.68125
2.6047119140625
2.341259765625
2.2179931640625
2.067333984375
1.9706542968749998
1.748291015625
3.02607421875
3.0284912109374997
3.02607421875
3.029296875
3.02607421875
3.02607421875
2.1648193359375
1.213330078125
0.41330566406249997
0.02900390625
0.02900390625
0.022558593749999998
0.017724609375
0.024169921875
0.023364257812499997
0.026586914062499998
0.022558593749999998
0.023364257812499997
0.024169921875
0.022558593749999998
0.024169921875
0.038671874999999994
0.116015625
0.22075195312499998
0.298095703125
0.36496582031249997
0.44794921875
1.67578125
2.3662353515625
2.7964599609375
3.0188232421874996
3.0244628906249997
2.9656494140625
2.8149902343749997
2.70380859375
2.6820556640624997
2.5458984375
2.4234375
2.2760009765625
2.144677734375
1.9408447265625
1.7934082031249998
3.0244628906249997
3.02607421875
3.0284912109374997
3.02607421875
3.0244628906249997
3.027685546875
2.441162109375
1.6395263671875
0.43505859375
0.022558593749999998
0.023364257812499997
0.022558593749999998
0.02578125
0.020947265625
0.0217529296875
0.027392578124999997
0.027392578124999997
0.023364257812499997
0.023364257812499997
0.022558593749999998
0.030615234374999998
0.024169921875
0.0966796875
0.1740234375
0.2505615234375
0.3424072265625
0.41330566406249997
0.468896484375
2.3001708984375
2.7755126953125
2.956787109375
2.9430908203125
2.8552734374999997
2.827880859375
2.705419921875
2.7489257812499996
2.6127685546875
2.4419677734375
2.1648193359375
2.0600830078125
2.070556640625
1.8489990234375
3.0244628906249997
3.0244628906249997
3.0252685546875
3.0188232421874996
3.0252685546875
3.0244628906249997
2.3396484374999997
1.7128417968749998
0.845947265625
0.24089355468749998
0.023364257812499997
0.027392578124999997
0.02578125
0.0217529296875
0.023364257812499997
0.023364257812499997
0.017724609375
0.023364257812499997
0.0249755859375
0.0217529296875
0.022558593749999998
0.023364257812499997
0.0523681640625
0.1353515625
0.23928222656249998
0.3053466796875
0.378662109375
0.4600341796875
1.9013671875
2.5579833984375
2.8818603515624996
3.0043212890624997
2.9769287109375
2.9173095703125
2.75537109375
2.8012939453124996
2.7650390624999996
2.5031982421874996
2.4016845703125
2.2631103515624997
2.199462890625
2.0326904296875
1.9062011718749998
3.02607421875
3.0284912109374997
3.02607421875
3.02607421875
3.0228515624999996
3.0220458984375
2.0745849609375
1.010302734375
0.02578125
0.023364257812499997
0.02578125
0.023364257812499997
0.0217529296875
0.022558593749999998
0.024169921875
0.0201416015625
0.02578125
0.023364257812499997
0.024169921875
0.022558593749999998
0.0217529296875
0.024169921875
0.1039306640625
0.17885742187499998
0.2570068359375
0.3504638671875
0.4189453125
1.7039794921875
2.4854736328125
2.7368408203124996
2.8552734374999997
2.8576904296874996
2.7755126953125
2.6546630859375
2.560400390625
2.4999755859375
2.4234375
2.3138671875
2.2292724609375
2.147900390625
1.9118408203125
1.8183837890624999
3.0228515624999996
3.0236572265625
3.0252685546875
3.0268798828124996
3.0228515624999996
3.0252685546875
2.1035888671875
1.1110107421875
0.2876220703125
0.0217529296875
0.023364257812499997
0.022558593749999998
0.023364257812499997
0.022558593749999998
0.0169189453125
0.018530273437499998
0.022558593749999998
0.027392578124999997
0.023364257812499997
0.0217529296875
0.019335937499999997
0.062841796875
0.14018554687499998
0.2199462890625
0.3182373046875
0.38107910156249997
0.44633789062499996
1.7748779296875
2.5732910156249997
2.9922363281249997
3.02607421875
3.0236572265625
2.9422851562499996
3.0268798828124996
2.8681640625
2.8319091796875
2.7392578125
2.4548583984375
2.29453125
2.2324951171875
2.067333984375
1.8602783203125
3.0236572265625
3.027685546875
3.0252685546875
3.0301025390625
3.0244628906249997
3.0268798828124996
2.325146484375
1.5589599609375
0.3520751953125
0.017724609375
0.0249755859375
0.027392578124999997
0.022558593749999998
0.023364257812499997
0.019335937499999997
0.024169921875
0.0217529296875
0.024169921875
0.023364257812499997
0.022558593749999998
0.024169921875
0.022558593749999998
0.030615234374999998
0.09990234375
0.18288574218749998
0.2578125
0.3544921875
0.4116943359375
2.1889892578125
2.792431640625
2.9382568359374996
3.018017578125
3.0043212890624997
2.9205322265625
2.6756103515625
2.7110595703125
2.6844726562499996
2.5031982421874996
2.3452880859375
2.135009765625
2.0012695312499997
1.877197265625
2.2034912109375
3.02607421875
3.02607421875
3.0244628906249997
3.0252685546875
3.0301025390625
2.8874999999999997
1.6218017578125
0.6292236328124999
0.022558593749999998
0.020947265625
0.0281982421875
0.023364257812499997
0.023364257812499997
0.022558593749999998
0.017724609375
0.023364257812499997
0.020947265625
0.0217529296875
0.0217529296875
0.020947265625
0.0201416015625
0.0281982421875
0.0966796875
0.17724609375
0.2779541015625
0.346435546875
0.4149169921875
2.2582763671875
2.705419921875
2.8899169921874996
2.8641357421875
2.91650390625
2.8641357421875
2.8311035156249997
2.7400634765625
2.4677490234375
2.4081298828124997
2.3235351562499997
2.1583740234374997
2.0391357421875
1.8763916015625
1.8361083984375
3.021240234375
3.02607421875
3.0236572265625
3.0252685546875
3.0301025390625
3.0301025390625
2.0415527343749997
1.045751953125
0.0443115234375
0.023364257812499997
0.0281982421875
0.024169921875
0.022558593749999998
0.018530273437499998
0.019335937499999997
0.015307617187499999
0.017724609375
0.024169921875
0.022558593749999998
0.023364257812499997
0.027392578124999997
0.024169921875
0.127294921875
0.19899902343749998
0.2795654296875
0.3440185546875
0.4318359375
1.6951171875
2.4524414062499997
2.8673583984374997
2.92939453125
2.9688720703125
2.9737060546875
2.92294921875
2.8359375
2.75537109375
2.6014892578124997
2.410546875
2.2357177734375
2.0971435546875
1.9601806640625
1.77568359375
3.0236572265625
3.0244628906249997
3.02607421875
3.0236572265625
3.0244628906249997
3.0204345703124997
2.36220703125
1.239111328125
0.48017578125
0.023364257812499997
0.0217529296875
0.023364257812499997
0.020947265625
0.022558593749999998
0.023364257812499997
0.0217529296875
0.022558593749999998
0.0217529296875
0.0169189453125
0.024169921875
0.018530273437499998
0.023364257812499997
0.059619140625
0.1313232421875
0.20947265625
0.30937499999999996
0.37705078124999997
0.44633789062499996
2.4645263671874997
2.8528564453125
3.02607421875
3.0059326171875
2.947119140625
2.9036132812499997
2.721533203125
2.6603027343749996
2.6039062499999996
2.3356201171874997
2.21396484375
1.9891845703125
1.9021728515624998
1.7877685546875
3.0252685546875
3.02607421875
3.0236572265625
3.02607421875
3.029296875
3.02607421875
2.358984375
1.5492919921875
0.555908203125
0.022558593749999998
0.02578125
0.017724609375
0.018530273437499998
0.024169921875
0.023364257812499997
0.023364257812499997
0.019335937499999997
0.02578125
0.023364257812499997
0.022558593749999998
0.023364257812499997
0.0249755859375
0.058813476562499994
0.1409912109375
0.2441162109375
0.30937499999999996
0.38188476562499996
0.4648681640625
2.2518310546875
2.719921875
3.0236572265625
2.995458984375
2.9092529296875
2.7964599609375
2.6917236328125
2.640966796875
2.5177001953125
2.3960449218749997
2.321923828125
2.1325927734375
2.0117431640625
1.8538330078124998
2.3879882812499997
3.0228515624999996
3.0220458984375
3.0268798828124996
3.02607421875
3.0252685546875
2.972900390625
2.0214111328124997
0.7138183593749999
0.0966796875
0.023364257812499997
0.018530273437499998
0.0281982421875
0.022558593749999998
0.023364257812499997
0.023364257812499997
0.022558593749999998
0.02578125
0.0281982421875
0.02578125
0.027392578124999997
0.0281982421875
0.04189453125
0.1232666015625
0.2038330078125
0.27392578125
0.36416015625
0.4406982421875
1.6306640625
2.6321044921874996
2.8633300781249997
3.0043212890624997
2.9221435546874996
2.889111328125
2.900390625
2.8713867187499997
2.7569824218749996
2.69736328125
2.437939453125
2.230078125
2.0818359374999997
1.9907958984374998
1.9384277343749998
3.0204345703124997
3.0268798828124996
3.0284912109374997
3.0244628906249997
3.021240234375
3.02607421875
1.98193359375
1.0030517578125
0.20866699218749998
0.02578125
0.0281982421875
0.027392578124999997
0.022558593749999998
0.023364257812499997
0.020947265625
0.022558593749999998
0.023364257812499997
0.020947265625
0.019335937499999997
0.023364257812499997
0.023364257812499997
0.024169921875
0.0749267578125
0.15629882812499998
0.26022949218749997
0.3311279296875
0.394775390625
1.6411376953124999
2.4919189453125
2.9036132812499997
3.0083496093749997
2.969677734375
2.8858886718749996
2.9108642578125
2.7263671874999997
2.68125
2.528173828125
2.3533447265625
2.2711669921874997
2.167236328125
2.0044921875
1.8151611328125
3.021240234375
3.021240234375
3.02607421875
3.0244628906249997
3.02607421875
3.02607421875
2.10439453125
1.4091064453125
0.45842285156249996
0.027392578124999997
0.023364257812499997
0.0249755859375
0.020947265625
0.0201416015625
0.023364257812499997
0.022558593749999998
0.023364257812499997
0.023364257812499997
0.023364257812499997
0.027392578124999997
0.018530273437499998
0.024169921875
0.049951171875
0.1538818359375
0.2360595703125
0.31259765624999997
0.39719238281249997
0.452783203125
2.1744873046874997
2.7239501953125
2.8673583984374997
2.892333984375
2.7610107421874996
2.7521484375
2.6917236328125
2.6047119140625
2.466943359375
2.3009765625
2.1946289062499997
2.0729736328125
1.8812255859375
1.7362060546875
3.0228515624999996
3.02607421875
3.0301025390625
3.0252685546875
3.0284912109374997
3.02607421875
2.8206298828125
1.6612792968749999
0.7065673828125
0.130517578125
0.019335937499999997
0.024169921875
0.024169921875
0.023364257812499997
0.023364257812499997
0.024169921875
0.022558593749999998
0.023364257812499997
0.0249755859375
0.0201416015625
0.023364257812499997
0.040283203125
0.11923828125
0.19899902343749998
0.2771484375
0.36577148437499996
0.42861328125
0.4954833984375
2.1333984375
2.7239501953125
2.92939453125
3.02607421875
3.0002929687499997
2.914892578125
2.892333984375
2.7755126953125
2.7086425781249996
2.5031982421874996
2.3436767578124997
2.2026855468749997
2.02705078125
1.93681640625
2.6748046875
3.029296875
3.0268798828124996
3.0228515624999996
3.0301025390625
3.0268798828124996
2.8431884765624997
1.9110351562499999
0.95390625
0.057202148437499996
0.026586914062499998
0.024169921875
0.017724609375
0.0217529296875
0.024169921875
0.027392578124999997
0.024169921875
0.024169921875
0.019335937499999997
0.027392578124999997
0.019335937499999997
0.023364257812499997
0.0515625
0.1538818359375
0.22880859374999998
0.3037353515625
0.37302246093749997
0.456005859375
2.0117431640625
2.6546630859375
3.0236572265625
3.02607421875
3.0284912109374997
2.92939453125
2.86494140625
2.7175048828125
2.5998779296874996
2.4451904296875
2.230078125
2.141455078125
1.9730712890625
1.8151611328125
1.7184814453125
3.02607421875
3.029296875
3.021240234375
3.0252685546875
3.0244628906249997
3.0228515624999996
1.98515625
0.9087890624999999
0.18046874999999998
0.020947265625
0.022558593749999998
0.02578125
0.023364257812499997
0.026586914062499998
0.0249755859375
0.024169921875
0.0249755859375
0.023364257812499997
0.0249755859375
0.024169921875
0.027392578124999997
0.059619140625
0.13857421875
0.21914062499999998
0.29326171875
0.37705078124999997
0.443115234375
0.5099853515625
2.5112548828124996
2.824658203125
2.9302001953124996
2.9583984374999996
2.9390625
2.8818603515624996
2.8286865234375
2.78759765625
2.666748046875
2.4758056640625
2.244580078125
2.0939208984374997
1.9948242187499998
1.9029785156249999
3.0204345703124997
3.0244628906249997
3.021240234375
3.0220458984375
3.0236572265625
3.029296875
2.276806640625
1.4155517578124999
0.652587890625
0.1152099609375
0.02900390625
0.023364257812499997
0.0217529296875
0.0201416015625
0.020947265625
0.024169921875
0.0281982421875
0.0217529296875
0.027392578124999997
0.0201416015625
0.017724609375
0.0281982421875
0.054785156249999994
0.13212890624999998
0.23686523437499998
0.30937499999999996
0.37382812499999996
0.46647949218749996
2.1849609375
2.7303955078124997
2.8883056640625
2.9100585937499996
2.85849609375
2.8641357421875
2.856884765625
2.7223388671874997
2.6490234375
2.4234375
2.3235351562499997
2.1519287109375
2.03671875
1.8868652343749999
3.02607421875
3.0284912109374997
3.0252685546875
3.029296875
3.0244628906249997
3.0284912109374997
2.7803466796875
1.75634765625
0.5438232421875
0.0201416015625
0.0249755859375
0.017724609375
0.022558593749999998
0.022558593749999998
0.022558593749999998
0.020947265625
0.0281982421875
0.027392578124999997
0.020947265625
0.0249755859375
0.023364257812499997
0.02900390625
0.07814941406249999
0.15791015625
0.2344482421875
0.3069580078125
0.3988037109375
0.45761718749999997
1.9231201171874999
2.7166992187499996
2.9366455078125
2.94873046875
2.9390625
2.9543701171874996
2.9221435546874996
2.8552734374999997
2.5974609374999997
2.521728515625
2.3839599609374997
2.2236328125
2.141455078125
1.977099609375
1.8498046874999998
3.02607421875
3.0244628906249997
3.0188232421874996
3.027685546875
3.0309082031249996
3.0252685546875
1.915869140625
1.007080078125
0.2698974609375
0.023364257812499997
0.019335937499999997
0.024169921875
0.022558593749999998
0.024169921875
0.023364257812499997
0.023364257812499997
0.024169921875
0.022558593749999998
0.022558593749999998
0.033032226562499996
0.020947265625
0.0249755859375
0.075732421875
0.15629882812499998
0.25620117187499997
0.322265625
0.39719238281249997
1.5162597656249999
2.3742919921875
2.7078369140625
2.8576904296874996
2.7593994140625
2.7505371093749997
2.7336181640625
2.7030029296875
2.6111572265625
2.473388671875
2.231689453125
2.115673828125
2.0093261718749997
1.8578613281249998
1.7047851562499998
3.02607421875
3.027685546875
3.0236572265625
3.02607421875
3.0236572265625
3.027685546875
2.2365234375
1.3261230468749998
0.31340332031249996
0.0281982421875
0.019335937499999997
0.0201416015625
0.023364257812499997
0.0217529296875
0.020947265625
0.0217529296875
0.022558593749999998
0.019335937499999997
0.022558593749999998
0.018530273437499998
0.022558593749999998
0.064453125
0.17080078124999998
0.2513671875
0.32065429687499997
0.38913574218749997
0.4729248046875
0.5309326171875
2.3235351562499997
2.8472167968749997
3.0002929687499997
3.0228515624999996
2.9624267578124996
2.9060302734374996
2.80048828125
2.7303955078124997
2.62646484375
2.3275634765624997
2.1841552734375
1.9787109374999998
1.896533203125
1.76279296875
3.029296875
3.0204345703124997
3.0244628906249997
3.0228515624999996
3.027685546875
3.02607421875
2.747314453125
1.3954101562499999
0.43425292968749996
0.024169921875
0.026586914062499998
0.023364257812499997
0.019335937499999997
0.022558593749999998
0.023364257812499997
0.023364257812499997
0.019335937499999997
0.023364257812499997
0.024169921875
0.022558593749999998
0.0217529296875
0.06767578125
0.141796875
0.2215576171875
0.291650390625
0.3794677734375
0.45036621093749996
0.5099853515625
2.3783203125
2.8705810546875
3.02607421875
3.0236572265625
3.0083496093749997
2.9382568359374996
2.7722900390625
2.705419921875
2.647412109375
2.4041015624999997
2.2260498046875
2.1221191406249997
1.9053955078125
1.7072021484375
3.0252685546875
3.0236572265625
3.0317138671875
3.0228515624999996
3.02607421875
3.0244628906249997
2.6675537109375
1.848193359375
0.8040527343749999
0.018530273437499998
0.023364257812499997
0.026586914062499998
0.022558593749999998
0.024169921875
0.020947265625
0.017724609375
0.020947265625
0.020947265625
0.023364257812499997
0.0217529296875
0.018530273437499998
0.027392578124999997
0.07734374999999999
0.1796630859375
0.2570068359375
0.32871093749999997
0.39719238281249997
0.48259277343749996
1.5879638671874998
2.4604980468749997
2.874609375
2.9608154296875
2.9664550781249996
2.9414794921875
2.9116699218749997
2.8464111328125
2.760205078125
2.5869873046875
2.45888671875
2.29453125
2.0947265625
1.977099609375
1.7748779296875
3.0204345703124997
3.027685546875
3.027685546875
3.02607421875
3.0252685546875
3.0220458984375
2.25263671875
0.9579345703125
0.2457275390625
0.023364257812499997
0.027392578124999997
0.0249755859375
0.023364257812499997
0.022558593749999998
0.024169921875
0.020947265625
0.02578125
0.022558593749999998
0.023364257812499997
0.022558593749999998
0.020947265625
0.0346435546875
0.11440429687499999
0.191748046875
0.26828613281249997
0.36093749999999997
0.42619628906249996
1.2882568359375
2.5692626953124997
2.9447021484375
3.0252685546875
3.0284912109374997
2.905224609375
2.8689697265625
2.7046142578124996
2.6143798828125
2.418603515625
2.30419921875
2.2051025390625
2.0488037109375
1.993212890625
1.7893798828124998
3.0244628906249997
3.0244628906249997
3.02607421875
3.0204345703124997
3.02607421875
3.0244628906249997
2.1696533203125
1.284228515625
0.4326416015625
0.026586914062499998
0.022558593749999998
0.022558593749999998
0.0249755859375
0.024169921875
0.0217529296875
0.023364257812499997
0.023364257812499997
0.0217529296875
0.0217529296875
0.019335937499999997
0.020947265625
0.027392578124999997
0.09426269531249999
0.201416015625
0.281982421875
0.34885253906249997
0.410888671875
1.6363037109374998
2.33642578125
2.7134765625
2.91328125
2.8963623046875
2.8496337890624996
2.7739013671875
2.70380859375
2.6280761718749996
2.52978515625
2.31708984375
2.165625
2.0616943359374997
1.90458984375
1.738623046875
3.02607421875
3.0244628906249997
3.02607421875
3.0236572265625
3.027685546875
3.0252685546875
2.36865234375
1.8046875
0.6211669921874999
0.057202148437499996
0.027392578124999997
0.023364257812499997
0.027392578124999997
0.023364257812499997
0.023364257812499997
0.019335937499999997
0.02578125
0.022558593749999998
0.023364257812499997
0.027392578124999997
0.02578125
0.0064453125
0.1200439453125
0.19497070312499998
0.27231445312499997
0.346435546875
0.43022460937499996
0.49306640625
1.7499023437499999
2.6232421875
2.744091796875
2.8319091796875
2.8190185546874997
2.8037109375
2.7529541015624996
2.6925292968749996
2.618408203125
2.399267578125
2.34609375
2.2405517578125
2.1084228515625
1.9916015624999999
3.0268798828124996
3.0228515624999996
3.0301025390625
3.0252685546875
3.02607421875
3.0244628906249997
3.0252685546875
1.7909912109375
0.855615234375
0.2102783203125
0.023364257812499997
0.023364257812499997
0.022558593749999998
0.019335937499999997
0.020947265625
0.027392578124999997
0.019335937499999997
0.024169921875
0.019335937499999997
0.0217529296875
0.02578125
0.0322265625
0.10957031249999999
0.18691406249999998
0.2892333984375
0.35690917968749997
0.42539062499999997
0.48581542968749997
1.8240234375
2.599072265625
2.8552734374999997
2.9745117187499996
2.924560546875
2.8302978515625
2.7328124999999996
2.6441894531249996
2.5652343749999997
2.3662353515625
2.1849609375
2.054443359375
1.9795166015624999
1.8739746093749998
1.7531249999999998
3.0268798828124996
3.0317138671875
3.0268798828124996
3.0236572265625
3.0244628906249997
3.0204345703124997
2.1052001953125
1.1496826171874999
0.214306640625
0.023364257812499997
0.020947265625
0.022558593749999998
0.026586914062499998
0.0249755859375
0.0201416015625
0.018530273437499998
0.023364257812499997
0.020947265625
0.018530273437499998
0.023364257812499997
0.030615234374999998
0.10151367187499999
0.20705566406249998
0.2811767578125
0.3520751953125
0.41733398437499997
0.5019287109375
1.6475830078125
2.41376953125
2.843994140625
2.9318115234374997
2.9608154296875
2.82626953125
2.7867919921874997
2.70703125
2.6876953125
2.6192138671875
2.3952392578125
2.2840576171875
2.0423583984375
1.8989501953124999
1.7877685546875
3.0228515624999996
3.0244628906249997
3.02607421875
3.0252685546875
3.029296875
3.02607421875
2.309033203125
1.380908203125
0.5792724609375
0.022558593749999998
0.018530273437499998
0.024169921875
0.0249755859375
0.023364257812499997
0.024169921875
0.0217529296875
0.022558593749999998
0.018530273437499998
0.024169921875
0.022558593749999998
0.0314208984375
0.0652587890625
0.1506591796875
0.2215576171875
0.2989013671875
0.38591308593749996
0.45036621093749996
0.5051513671875
2.1938232421875
2.6764160156249996
2.88427734375
2.9640380859374997
2.9092529296875
2.8850830078125
2.7062255859374997
2.6723876953124996
2.6441894531249996
2.53623046875
2.2921142578125
2.1543457031249997
1.9956298828124999
1.815966796875
3.02607421875
3.029296875
3.0301025390625
3.0236572265625
3.0252685546875
3.02607421875
2.392822265625
1.7200927734375
0.7218749999999999
0.020947265625
0.023364257812499997
0.023364257812499997
0.022558593749999998
0.0169189453125
0.02900390625
0.0217529296875
0.024169921875
0.022558593749999998
0.0217529296875
0.023364257812499997
0.02900390625
0.033837890625
0.1119873046875
0.2199462890625
0.2908447265625
0.3601318359375
0.42539062499999997
0.49951171875
2.1438720703125
2.7368408203124996
2.9712890625
2.9761230468749997
2.8713867187499997
2.7908203124999997
2.7005859374999996
2.6836669921875
2.5547607421875
2.3420654296875
2.1889892578125
2.118896484375
1.9907958984374998
1.6951171875
1.662890625
3.0301025390625
3.0220458984375
3.02607421875
3.0284912109374997
3.029296875
3.029296875
2.1333984375
0.8314453125
0.10957031249999999
0.019335937499999997
0.023364257812499997
0.02578125
0.0249755859375
0.0249755859375
0.022558593749999998
0.022558593749999998
0.02578125
0.0217529296875
0.027392578124999997
0.0249755859375
0.0249755859375
0.11762695312499999
0.198193359375
0.2731201171875
0.36577148437499996
0.43022460937499996
0.4890380859375
1.7152587890625
2.6240478515624996
2.8423828125
2.9261718749999996
2.9189208984375
2.8552734374999997
2.8399658203125
2.7747070312499997
2.6997802734375
2.5595947265624996
2.3783203125
2.157568359375
2.0165771484375
1.931982421875
1.74345703125
3.0309082031249996
3.0244628906249997
3.0236572265625
3.0252685546875
3.02607421875
3.027685546875
2.152734375
1.1319580078125
0.3552978515625
0.022558593749999998
0.0217529296875
0.026586914062499998
0.024169921875
0.020947265625
0.023364257812499997
0.024169921875
0.024169921875
0.0249755859375
0.023364257812499997
0.022558593749999998
0.0298095703125
0.075732421875
0.1554931640625
0.259423828125
0.323876953125
0.39799804687499996
0.4600341796875
1.1400146484375
2.3904052734375
2.8294921874999996
2.9688720703125
2.9994873046875
2.9108642578125
2.848828125
2.7722900390625
2.69091796875
2.616796875
2.34287109375
2.2107421874999997
2.067333984375
1.9102294921874998
1.7853515624999998
3.02607421875
3.0284912109374997
3.0268798828124996
3.0252685546875
3.0236572265625
3.0228515624999996
2.18173828125
1.6427490234375
0.3923583984375
0.020947265625
0.024169921875
0.024169921875
0.0217529296875
0.027392578124999997
0.022558593749999998
0.023364257812499997
0.023364257812499997
0.0169189453125
0.027392578124999997
0.019335937499999997
0.024169921875
0.046728515624999994
0.1506591796875
0.23122558593749998
0.2989013671875
0.36979980468749996
0.45761718749999997
0.510791015625
2.1777099609375
2.834326171875
2.953564453125
3.0220458984375
2.9302001953124996
2.9108642578125
2.6562744140624996
2.650634765625
2.5072265624999996
2.3662353515625
2.2308837890624997
2.0471923828125
1.9666259765624998
1.8788085937499999
3.0244628906249997
