2.244580078125
2.1438720703125
1.9867675781249998
2.018994140625
1.8707519531249999
3.01962890625
3.0284912109374997
3.01962890625
3.0236572265625
3.0236572265625
3.0244628906249997
2.3662353515625
1.384130859375
0.48178710937499997
0.0201416015625
0.0249755859375
0.0217529296875
0.017724609375
0.024169921875
0.0217529296875
0.022558593749999998
0.024169921875
0.022558593749999998
0.0217529296875
0.019335937499999997
0.02578125
0.0684814453125
0.146630859375
0.22880859374999998
0.322265625
0.391552734375
0.456005859375
0.5470458984375
2.334814453125
2.6901123046874997
2.882666015625
2.8609130859375
2.8045166015625
2.8399658203125
2.6933349609375
2.6441894531249996
2.5322021484375
2.2921142578125
2.189794921875
2.0947265625
2.0310791015625
1.9231201171874999
3.0220458984375
3.02607421875
3.0220458984375
3.029296875
3.0268798828124996
3.01962890625
2.4363281249999997
1.7974365234374998
0.9418212890625
0.1458251953125
0.023364257812499997
0.023364257812499997
0.0201416015625
0.0217529296875
0.024169921875
0.0201416015625
0.024169921875
0.023364257812499997
0.020947265625
0.022558593749999998
0.02900390625
0.0314208984375
0.10634765624999999
0.214306640625
0.285205078125
0.35771484374999996
0.4447265625
0.5035400390625
2.118896484375
2.4274658203125
2.808544921875
2.89072265625
2.8721923828125
2.8939453124999996
2.7787353515624997
2.6820556640624997
2.5338134765625
2.4097412109375
2.2872802734374997
2.1333984375
2.0004638671875
1.9013671875
1.85302734375
3.0228515624999996
3.0220458984375
3.0268798828124996
3.0268798828124996
3.029296875
2.9664550781249996
2.2187988281249997
0.881396484375
0.19255371093749998
0.022558593749999998
0.026586914062499998
0.0217529296875
0.019335937499999997
0.022558593749999998
0.0217529296875
0.022558593749999998
0.020947265625
0.0249755859375
0.018530273437499998
0.024169921875
0.02900390625
0.1313232421875
0.20625
0.2811767578125
0.37382812499999996
0.44230957031249996
0.502734375
2.023828125
2.5869873046875
2.8238525390625
2.89716796875
2.7980712890625
2.72314453125
2.69091796875
2.5813476562499997
2.5612060546874997
2.3887939453125
2.1704589843749997
2.112451171875
1.9698486328125
1.8506103515624999
1.6951171875
3.02607421875
3.0244628906249997
3.0252685546875
3.0244628906249997
3.02607421875
3.0236572265625
2.209130859375
1.3382080078124998
0.5647705078124999
0.023364257812499997
0.024169921875
0.023364257812499997
0.0249755859375
0.023364257812499997
0.022558593749999998
0.023364257812499997
0.02900390625
0.0217529296875
0.020947265625
0.023364257812499997
0.0580078125
0.14018554687499998
0.22316894531249998
0.32065429687499997
0.3826904296875
0.44794921875
0.533349609375
1.448583984375
2.292919921875
2.6490234375
2.8544677734375
2.8721923828125
2.8093505859374996
2.7892089843749996
2.7166992187499996
2.7078369140625
2.6014892578124997
2.4145751953125
2.2832519531249997
2.0939208984374997
2.018994140625
1.828857421875
3.0220458984375
3.0244628906249997
3.02607421875
3.02607421875
3.0236572265625
3.0252685546875
2.46533203125
1.4791992187499998
0.646142578125
0.15227050781249998
0.02900390625
0.024169921875
0.022558593749999998
0.023364257812499997
0.020947265625
0.017724609375
0.0217529296875
0.02900390625
0.020947265625
0.023364257812499997
0.0201416015625
0.1087646484375
0.19013671875
0.2618408203125
0.33515625
0.42619628906249996
0.4874267578125
0.5422119140625
2.209130859375
2.6780273437499997
2.889111328125
2.9302001953124996
2.8528564453125
2.8931396484375
2.689306640625
2.698974609375
2.657080078125
2.592626953125
2.4194091796875
2.286474609375
2.0898925781249997
1.9134521484375
3.0284912109374997
3.027685546875
3.0252685546875
3.01962890625
3.0268798828124996
3.02607421875
2.4749999999999996
1.8361083984375
0.961962890625
0.1232666015625
0.024169921875
0.023364257812499997
0.022558593749999998
0.018530273437499998
0.0217529296875
0.024169921875
0.023364257812499997
0.0217529296875
0.022558593749999998
0.023364257812499997
0.0217529296875
0.03544921875
0.10554199218749999
0.20947265625
0.2892333984375
0.356103515625
0.4189453125
0.50595703125
2.0391357421875
2.578125
2.8383544921875
2.931005859375
2.8536621093749996
2.8770263671875
2.779541015625
2.682861328125
2.6401611328124996
2.44599609375
2.2888916015625
2.230078125
2.0633056640625
2.0101318359375
1.91748046875
3.0284912109374997
3.0268798828124996
3.0228515624999996
3.0284912109374997
3.0284912109374997
3.0236572265625
2.2212158203125
0.9901611328125
0.31743164062499996
0.0249755859375
0.024169921875
0.023364257812499997
0.019335937499999997
0.023364257812499997
0.022558593749999998
0.022558593749999998
0.0217529296875
0.0217529296875
0.018530273437499998
0.027392578124999997
0.023364257812499997
0.0829833984375
0.165966796875
0.2384765625
0.3359619140625
0.40122070312499997
0.4648681640625
1.4356933593749999
2.358984375
2.6063232421875
2.7013916015625
2.7908203124999997
2.7424804687499997
2.7465087890624997
2.70380859375
2.6578857421874997
2.550732421875
2.3356201171874997
2.1785156249999997
2.0439697265625
1.9271484374999999
1.7265380859375
3.021240234375
3.0252685546875
3.0244628906249997
3.0236572265625
3.029296875
3.02607421875
2.2566650390625
1.276171875
0.539794921875
0.0249755859375
0.0249755859375
0.022558593749999998
0.0169189453125
0.022558593749999998
0.018530273437499998
0.0169189453125
0.0201416015625
0.0217529296875
0.022558593749999998
0.0249755859375
0.0459228515625
0.12246093749999999
0.20302734374999998
0.30856933593749997
0.37785644531249996
0.43828124999999996
0.5212646484375
1.7072021484375
2.3920166015624997
2.7465087890624997
2.92294921875
2.9205322265625
2.8778320312499996
2.876220703125
2.7884033203125
2.6997802734375
2.6127685546875
2.3960449218749997
2.230078125
2.1293701171875
1.9585693359374998
1.867529296875
3.021240234375
3.0244628906249997
3.0236572265625
3.02607421875
3.02607421875
3.0268798828124996
2.3549560546875
1.683837890625
0.5526855468749999
0.058813476562499994
0.023364257812499997
0.023364257812499997
0.0217529296875
0.022558593749999998
0.022558593749999998
0.027392578124999997
0.023364257812499997
0.0169189453125
0.0249755859375
0.023364257812499997
0.024169921875
0.058813476562499994
0.1699951171875
0.24169921875
0.31904296875
0.4068603515625
0.46567382812499997
0.5220703125
2.1567626953125
2.5322021484375
2.7247558593749996
2.7642333984375
2.7013916015625
2.771484375
2.6401611328124996
2.6498291015624997
2.5354248046874996
2.3074218749999997
2.135009765625
2.1261474609374997
1.996435546875
1.8884765625
3.0252685546875
3.0317138671875
3.0236572265625
3.02607421875
3.029296875
3.0268798828124996
2.537841796875
1.91748046875
1.003857421875
0.43828124999999996
0.018530273437499998
0.0249755859375
0.020947265625
0.022558593749999998
0.023364257812499997
0.0217529296875
0.022558593749999998
0.02578125
0.019335937499999997
0.022558593749999998
0.027392578124999997
0.0749267578125
0.1554931640625
0.2344482421875
0.32951660156249996
0.39396972656249996
0.46083984375
0.539794921875
1.65
2.4766113281249997
2.7392578125
2.9092529296875
2.824658203125
2.8077392578125
2.8391601562499997
2.771484375
2.7062255859374997
2.5080322265625
2.341259765625
2.2308837890624997
2.0625
1.9078125
1.7571533203124998
3.0228515624999996
3.0301025390625
3.02607421875
3.0284912109374997
3.0244628906249997
3.0236572265625
2.1777099609375
0.9450439453124999
0.3053466796875
0.023364257812499997
0.022558593749999998
0.02578125
0.023364257812499997
0.0217529296875
0.026586914062499998
0.0217529296875
0.018530273437499998
0.023364257812499997
0.026586914062499998
0.02578125
0.0475341796875
0.15146484375
0.23525390624999998
0.3021240234375
0.37382812499999996
0.46083984375
0.515625
1.6886718749999998
2.5555664062499996
2.8391601562499997
2.9108642578125
2.9140869140624996
2.8786376953125
2.840771484375
2.6844726562499996
2.576513671875
2.466943359375
2.3452880859375
2.2292724609375
2.1205078125
2.0294677734374997
1.883642578125
3.027685546875
3.02607421875
3.02607421875
3.0244628906249997
3.029296875
3.021240234375
2.15595703125
1.4655029296875
0.6332519531249999
0.022558593749999998
0.020947265625
0.027392578124999997
0.018530273437499998
0.022558593749999998
0.018530273437499998
0.022558593749999998
0.023364257812499997
0.023364257812499997
0.0281982421875
0.020947265625
0.024169921875
0.08056640625
0.15629882812499998
0.26103515625
0.32871093749999997
0.39316406249999997
0.46245117187499996
1.6072998046875
2.225244140625
2.6055175781249997
2.784375
2.8012939453124996
2.72958984375
2.747314453125
2.682861328125
2.6780273437499997
2.5724853515625
2.4427734375
2.23974609375
2.0898925781249997
1.9593749999999999
1.869140625
3.02607421875
3.0236572265625
3.0252685546875
3.0252685546875
3.02607421875
3.0309082031249996
2.3879882812499997
1.8546386718749999
0.7863281249999999
0.25217285156249997
0.024169921875
0.023364257812499997
0.019335937499999997
0.026586914062499998
0.022558593749999998
0.023364257812499997
0.023364257812499997
0.022558593749999998
0.022558593749999998
0.023364257812499997
0.02900390625
0.0475341796875
0.15468749999999998
0.230419921875
0.30454101562499997
0.36899414062499997
0.4568115234375
0.5196533203125
1.75634765625
2.5732910156249997
2.7175048828125
2.898779296875
2.9011962890625
2.905224609375
2.7368408203124996
2.7158935546875
2.6498291015624997
2.505615234375
2.247802734375
2.1624023437499997
2.0326904296875
1.893310546875
3.0236572265625
3.0252685546875
3.029296875
3.027685546875
3.0252685546875
3.02607421875
2.963232421875
1.8046875
0.7935791015625
0.19255371093749998
0.022558593749999998
0.0217529296875
0.027392578124999997
0.019335937499999997
0.02578125
0.022558593749999998
0.024169921875
0.017724609375
0.018530273437499998
0.024169921875
0.0281982421875
0.061230468749999996
0.146630859375
0.22075195312499998
0.3182373046875
0.388330078125
0.44633789062499996
0.5132080078125
1.9924072265625
2.4967529296874997
2.70380859375
2.7755126953125
2.824658203125
2.7336181640625
2.6538574218749997
2.5434814453124996
2.5088378906249997
2.34931640625
2.212353515625
2.1438720703125
2.0407470703125
1.883642578125
1.7716552734375
3.02607421875
3.0268798828124996
3.0204345703124997
3.0252685546875
3.0268798828124996
3.027685546875
2.176904296875
1.3108154296874999
0.40202636718749996
0.0249755859375
0.022558593749999998
0.0249755859375
0.022558593749999998
0.020947265625
0.0249755859375
0.024169921875
0.022558593749999998
0.019335937499999997
0.023364257812499997
0.022558593749999998
0.06606445312499999
0.14824218749999998
0.249755859375
0.32145996093749996
0.38913574218749997
0.472119140625
0.5285156249999999
1.6209960937499999
2.26552734375
2.7392578125
2.8270751953124997
2.8496337890624996
2.81015625
2.7980712890625
2.753759765625
2.7166992187499996
2.6240478515624996
2.43310546875
2.2389404296874997
2.0488037109375
1.90458984375
1.8393310546875
3.0284912109374997
3.0252685546875
3.0244628906249997
3.029296875
3.027685546875
3.0228515624999996
2.3033935546874997
1.38896484375
0.613916015625
0.111181640625
0.023364257812499997
0.02578125
0.023364257812499997
0.023364257812499997
0.0217529296875
0.024169921875
0.022558593749999998
0.027392578124999997
0.022558593749999998
0.0201416015625
0.03544921875
0.11359863281249999
0.19497070312499998
0.269091796875
0.36093749999999997
0.42136230468749997
0.4922607421875
0.5647705078124999
2.075390625
2.5080322265625
2.6941406249999997
2.78759765625
2.7046142578124996
2.763427734375
2.7747070312499997
2.705419921875
2.6143798828125
2.4041015624999997
2.2856689453125
2.2026855468749997
2.1519287109375
1.993212890625
3.027685546875
3.0252685546875
3.0244628906249997
3.0228515624999996
3.0252685546875
3.0325195312499997
2.4049072265625
1.8441650390625
0.90234375
0.14501953125
0.019335937499999997
0.02578125
0.022558593749999998
0.022558593749999998
0.023364257812499997
0.022558593749999998
0.019335937499999997
0.023364257812499997
0.026586914062499998
0.022558593749999998
0.023364257812499997
0.0765380859375
0.1651611328125
0.26425781249999997
0.339990234375
0.399609375
0.488232421875
0.5438232421875
2.0625
2.6965576171874996
2.7811523437499996
2.8399658203125
2.7803466796875
2.7964599609375
2.6594970703125
2.6917236328125
2.5740966796875
2.4194091796875
2.321923828125
2.1648193359375
2.002880859375
1.8739746093749998
1.88525390625
3.027685546875
3.0252685546875
3.02607421875
3.0244628906249997
3.0252685546875
3.0067382812499996
1.9013671875
0.903955078125
0.2570068359375
0.026586914062499998
0.018530273437499998
0.027392578124999997
0.022558593749999998
0.0201416015625
0.022558593749999998
0.0217529296875
0.022558593749999998
0.020947265625
0.024169921875
0.0201416015625
0.07734374999999999
0.159521484375
0.2344482421875
0.249755859375
0.39799804687499996
0.4568115234375
0.5164306640624999
1.85947265625
2.39765625
2.6997802734375
2.85205078125
2.848828125
2.8061279296875
2.811767578125
2.7183105468749997
2.7223388671874997
2.5716796874999996
2.3638183593749997
2.2671386718749997
2.1035888671875
1.8538330078124998
1.7821289062499999
3.0268798828124996
3.027685546875
3.0220458984375
3.0268798828124996
3.0228515624999996
3.02607421875
2.3154785156249997
1.361572265625
0.41572265625
0.027392578124999997
0.022558593749999998
0.0217529296875
0.02578125
0.019335937499999997
0.023364257812499997
0.0201416015625
0.023364257812499997
0.019335937499999997
0.023364257812499997
0.023364257812499997
0.033032226562499996
0.1087646484375
0.21914062499999998
0.28842773437499997
0.3585205078125
0.4278076171875
0.5035400390625
1.6564453124999998
2.2751953124999997
2.6449951171875
2.727978515625
2.7747070312499997
2.7287841796874996
2.70703125
2.5894042968749997
2.591015625
2.52978515625
2.3807373046875
2.1825439453124997
2.0890869140625
1.96904296875
1.9263427734374998
3.0268798828124996
3.02607421875
3.0236572265625
3.027685546875
3.0236572265625
3.02607421875
2.2349121093749997
1.2528076171875
0.4680908203125
0.024169921875
0.027392578124999997
0.023364257812499997
0.026586914062499998
0.0169189453125
0.022558593749999998
0.02578125
0.02578125
0.02578125
0.023364257812499997
0.026586914062499998
0.04189453125
0.1474365234375
0.23283691406249998
0.3029296875
0.36979980468749996
0.4519775390625
0.517236328125
0.572021484375
2.2913085937499997
2.7263671874999997
2.9076416015624997
2.8302978515625
2.7948486328124997
2.7980712890625
2.6675537109375
2.6361328124999996
2.4258544921875
2.3178955078125
2.215576171875
2.0826416015625
1.9762939453125
1.8183837890624999
3.0268798828124996
3.0147949218749996
3.0244628906249997
3.0204345703124997
3.02607421875
3.0252685546875
2.4298828125
1.8062988281249999
0.878173828125
0.09023437499999999
0.020947265625
0.022558593749999998
0.022558593749999998
0.023364257812499997
0.023364257812499997
0.023364257812499997
0.024169921875
0.022558593749999998
0.018530273437499998
0.022558593749999998
0.03544921875
0.107958984375
0.191748046875
0.2940673828125
0.36174316406249996
0.42941894531249997
0.4874267578125
0.5647705078124999
1.893310546875
2.4242431640624997
2.7529541015624996
2.8294921874999996
2.8375488281249996
2.792431640625
2.70380859375
2.6820556640624997
2.650634765625
2.5193115234374996
2.4548583984375
2.3323974609375
2.222021484375
2.0431640625
2.093115234375
3.02607421875
3.0220458984375
3.02607421875
3.027685546875
3.027685546875
3.0188232421874996
2.151123046875
0.8596435546875
0.246533203125
0.023364257812499997
0.0281982421875
0.020947265625
0.023364257812499997
0.023364257812499997
0.022558593749999998
0.022558593749999998
0.017724609375
0.0249755859375
0.027392578124999997
0.02900390625
0.04833984375
0.1635498046875
0.23203125
0.3053466796875
0.37785644531249996
0.46245117187499996
0.526904296875
1.59521484375
2.3783203125
2.6490234375
2.7626220703124997
2.824658203125
2.7134765625
2.6981689453124997
2.6256591796874997
2.602294921875
2.4661376953125
2.286474609375
2.1245361328125
2.015771484375
1.9392333984374999
1.8304687499999999
3.0244628906249997
3.029296875
3.0244628906249997
3.0268798828124996
3.0228515624999996
3.0333251953125
2.1470947265625
1.3212890625
0.526904296875
0.0322265625
0.02578125
0.020947265625
0.02578125
0.02900390625
0.022558593749999998
0.024169921875
0.027392578124999997
0.020947265625
0.020947265625
0.024169921875
0.08056640625
0.15871582031249998
0.23525390624999998
0.3359619140625
0.4004150390625
0.4648681640625
0.5244873046874999
1.7080078125
2.2453857421875
2.6691650390625
2.8778320312499996
2.872998046875
2.8617187499999996
2.8141845703125
2.70703125
2.6780273437499997
2.5571777343749997
2.328369140625
2.15595703125
2.0826416015625
1.920703125
1.7732666015624998
3.02607421875
3.0228515624999996
3.02607421875
3.0236572265625
3.0244628906249997
3.0252685546875
2.2993652343749997
1.738623046875
0.5929687499999999
0.0910400390625
0.0217529296875
0.024169921875
0.018530273437499998
0.024169921875
0.022558593749999998
0.027392578124999997
0.017724609375
0.024169921875
0.023364257812499997
0.026586914062499998
0.03544921875
0.1087646484375
0.21269531249999998
0.2900390625
0.35288085937499997
0.44633789062499996
0.5099853515625
0.5583251953125
1.8385253906249999
2.4911132812499996
2.6603027343749996
2.7392578125
2.6756103515625
2.7521484375
2.5845703125
2.689306640625
2.5934326171874997
2.4709716796875
2.3783203125
2.212353515625
2.038330078125
1.883642578125
3.02607421875
3.029296875
3.0252685546875
3.02607421875
3.02607421875
3.0244628906249997
2.860107421875
1.748291015625
0.8338623046875
0.2215576171875
0.02578125
0.0201416015625
0.022558593749999998
0.0217529296875
0.022558593749999998
0.023364257812499997
0.024169921875
0.020947265625
0.0072509765625
0.042700195312499994
0.0555908203125
0.13857421875
0.21591796875
0.291650390625
0.3802734375
0.44633789062499996
0.507568359375
0.581689453125
2.0197998046875
2.5724853515625
2.7972656249999996
2.8705810546875
2.8367431640625
2.8174072265624996
2.6981689453124997
2.6764160156249996
2.6296874999999997
2.41376953125
2.3920166015624997
2.29453125
2.1583740234374997
1.9166748046875
2.0012695312499997
3.029296875
3.0244628906249997
3.0220458984375
3.0252685546875
3.0236572265625
3.0059326171875
2.0496093749999997
1.1400146484375
0.2876220703125
0.0201416015625
0.022558593749999998
0.0217529296875
0.0217529296875
0.026586914062499998
0.024169921875
0.019335937499999997
0.023364257812499997
0.0217529296875
0.0249755859375
0.0249755859375
0.06606445312499999
0.14501953125
0.24814453125
0.31662597656249997
0.38994140624999996
0.47050781249999996
0.53173828125
1.5791015625
2.38154296875
2.6361328124999996
2.7110595703125
2.760205078125
2.7448974609374996
2.7666503906249997
2.640966796875
2.6296874999999997
2.5724853515625
2.4121582031249997
2.2099365234375
2.1309814453125
2.00771484375
1.8312744140625
3.0236572265625
3.0284912109374997
3.02607421875
3.0228515624999996
3.02607421875
3.0284912109374997
2.2026855468749997
1.3390136718749999
0.639697265625
0.17644042968749998
0.024169921875
0.026586914062499998
0.02578125
0.018530273437499998
0.022558593749999998
0.0217529296875
0.022558593749999998
0.023364257812499997
0.024169921875
0.026586914062499998
0.0539794921875
0.1329345703125
0.21591796875
0.285205078125
0.378662109375
0.44633789062499996
0.5043457031249999
0.6735351562499999
2.060888671875
2.4121582031249997
2.6482177734374996
2.7610107421874996
2.7610107421874996
2.771484375
2.63935546875
2.70703125
2.5676513671874996
2.3968505859375
2.3130615234375
2.1180908203124997
1.9545410156249998
1.844970703125
3.029296875
3.0244628906249997
3.0244628906249997
3.0252685546875
3.0244628906249997
3.0301025390625
2.228466796875
1.6411376953124999
0.5607421874999999
0.0443115234375
0.023364257812499997
0.0217529296875
0.022558593749999998
0.018530273437499998
0.0217529296875
0.018530273437499998
0.0249755859375
0.018530273437499998
0.017724609375
0.019335937499999997
0.069287109375
0.1554931640625
0.26022949218749997
0.3311279296875
0.39638671875
0.4632568359375
0.543017578125
0.5921630859375
2.0173828124999997
2.5716796874999996
2.7408691406249996
2.8069335937499997
2.7408691406249996
2.7747070312499997
2.5998779296874996
2.6039062499999996
2.47177734375
2.3501220703125
2.23330078125
1.9948242187499998
1.9037841796875
1.82724609375
3.0236572265625
3.021240234375
3.0244628906249997
3.0236572265625
3.0252685546875
3.0204345703124997
2.9277832031249997
1.7096191406249999
0.7903564453124999
0.20705566406249998
0.024169921875
0.018530273437499998
0.024169921875
0.017724609375
0.018530273437499998
0.0217529296875
0.0201416015625
0.0298095703125
0.027392578124999997
0.024169921875
0.0717041015625
0.1812744140625
0.2505615234375
0.327099609375
0.391552734375
0.476953125
0.54140625
0.59619140625
1.9843505859375
2.47822265625
2.7529541015624996
2.848828125
2.8109619140624997
2.818212890625
2.7545654296874997
2.7102539062499997
2.6981689453124997
2.5732910156249997
2.3678466796874997
2.1728759765625
2.023828125
1.909423828125
2.1382324218749997
3.0252685546875
3.027685546875
3.029296875
3.021240234375
3.0244628906249997
2.9946533203124996
2.135009765625
1.24716796875
0.2876220703125
0.02578125
0.0217529296875
0.022558593749999998
0.022558593749999998
0.023364257812499997
0.019335937499999997
0.023364257812499997
0.024169921875
0.020947265625
0.0281982421875
0.024169921875
0.09990234375
0.17724609375
0.275537109375
0.348046875
0.4189453125
0.47856445312499996
0.5502685546875
1.658056640625
2.26552734375
2.689306640625
2.7086425781249996
2.744091796875
2.73603515625
2.6885009765624996
2.570068359375
2.5225341796875
2.3468994140625
2.2107421874999997
2.09150390625
1.92392578125
1.8240234375
1.7313720703125
3.018017578125
3.0244628906249997
3.02607421875
3.0228515624999996
3.0317138671875
3.0220458984375
2.27841796875
1.2624755859374999
0.5204589843749999
0.019335937499999997
0.0217529296875
0.022558593749999998
0.019335937499999997
0.0249755859375
0.0249755859375
0.0217529296875
0.017724609375
0.019335937499999997
0.022558593749999998
0.0555908203125
0.1409912109375
0.2376708984375
0.3101806640625
0.38188476562499996
0.443115234375
0.52529296875
0.5808837890624999
0.6324462890625
2.418603515625
2.827880859375
3.0244628906249997
3.021240234375
2.977734375
2.956787109375
2.892333984375
2.6578857421874997
2.5563720703125
2.43955078125
2.2623046875
2.1374267578125
2.0036865234375
1.861083984375
3.0252685546875
3.0244628906249997
3.0236572265625
3.0268798828124996
3.02607421875
3.0301025390625
2.3235351562499997
1.6975341796874999
0.7138183593749999
0.038671874999999994
0.022558593749999998
0.0217529296875
0.022558593749999998
0.017724609375
0.02578125
0.023364257812499997
0.022558593749999998
0.0281982421875
0.0217529296875
0.024169921875
0.024169921875
0.08620605468749999
0.167578125
0.26748046875
0.3440185546875
0.410888671875
0.472119140625
0.549462890625
2.0093261718749997
2.4516357421875
2.7062255859374997
2.7416748046875
2.70703125
2.6981689453124997
2.6119628906249996
2.5974609374999997
2.4919189453125
2.26875
2.2534423828125
2.0471923828125
1.9247314453125
1.8304687499999999
2.5249511718749997
3.0252685546875
3.02607421875
3.0252685546875
3.0268798828124996
3.0228515624999996
2.9060302734374996
2.1221191406249997
0.8386962890624999
0.2513671875
0.023364257812499997
0.026586914062499998
0.022558593749999998
0.026586914062499998
0.018530273437499998
0.023364257812499997
0.0281982421875
0.0281982421875
0.022558593749999998
0.0249755859375
0.0459228515625
0.12810058593749998
0.23203125
0.307763671875
0.3746337890625
0.45842285156249996
0.5196533203125
0.5744384765625
1.6371093749999999
2.47822265625
2.7102539062499997
2.8915283203124997
2.9302001953124996
2.8713867187499997
2.7892089843749996
2.7416748046875
2.6361328124999996
2.470166015625
2.3807373046875
2.3307861328125
2.2067138671874997
2.0633056640625
2.04638671875
3.02607421875
3.0268798828124996
3.02607421875
3.02607421875
3.0268798828124996
3.0099609375
2.1068115234375
1.2052734375
0.46083984375
0.020947265625
0.0217529296875
0.022558593749999998
0.022558593749999998
0.0217529296875
0.022558593749999998
0.024169921875
0.024169921875
0.023364257812499997
0.027392578124999997
0.022558593749999998
0.054785156249999994
0.1353515625
0.21269531249999998
0.3117919921875
0.38510742187499997
0.439892578125
0.5043457031249999
1.641943359375
2.3718749999999997
2.7666503906249997
2.9036132812499997
2.8037109375
2.737646484375
2.7328124999999996
2.6603027343749996
2.6039062499999996
2.3662353515625
2.2373291015625
2.1422607421874997
2.0665283203125
1.9231201171874999
1.7942138671874999
3.0204345703124997
3.0252685546875
3.0244628906249997
3.0220458984375
3.0228515624999996
3.0220458984375
2.302587890625
1.6443603515624998
0.5631591796875
0.0217529296875
0.022558593749999998
0.019335937499999997
0.022558593749999998
0.027392578124999997
0.022558593749999998
0.026586914062499998
0.026586914062499998
0.023364257812499997
0.023364257812499997
0.024169921875
0.0298095703125
0.1071533203125
0.2135009765625
0.28681640625
0.35690917968749997
0.44230957031249996
0.49951171875
0.5526855468749999
2.02060546875
2.5555664062499996
2.6369384765625
2.6764160156249996
2.73603515625
2.70380859375
2.6578857421874997
2.591015625
2.431494140625
2.2365234375
2.1293701171875
1.98515625
1.8957275390625
1.8465820312499999
3.0268798828124996
3.027685546875
3.0244628906249997
3.0301025390625
3.02607421875
3.021240234375
2.4339111328125
1.7531249999999998
0.8854248046875
0.269091796875
0.0169189453125
0.0217529296875
0.02578125
0.019335937499999997
0.022558593749999998
0.0217529296875
0.02578125
0.023364257812499997
0.020947265625
0.024169921875
0.0845947265625
0.1611328125
0.24169921875
0.31340332031249996
0.40524902343749997
0.4632568359375
0.523681640625
0.6018310546875
2.1954345703125
2.68125
2.8770263671875
2.914892578125
2.8955566406249997
2.8029052734374997
2.6764160156249996
2.6546630859375
2.5797363281249996
2.357373046875
2.2566650390625
2.1454833984375
1.993212890625
1.835302734375
2.3581787109375
3.0204345703124997
3.0268798828124996
3.0244628906249997
3.0268798828124996
3.0325195312499997
2.8625244140625
2.0278564453125
1.0812011718749999
0.091845703125
0.023364257812499997
0.0169189453125
0.024169921875
0.027392578124999997
0.027392578124999997
0.023364257812499997
0.024169921875
0.022558593749999998
0.020947265625
0.0217529296875
0.027392578124999997
0.103125
0.20625
0.2779541015625
0.356103515625
0.42539062499999997
0.49951171875
0.559130859375
1.7104248046875
2.4999755859375
2.7247558593749996
2.8214355468749996
2.81982421875
2.72314453125
2.763427734375
2.6917236328125
2.65546875
2.487890625
2.3783203125
2.165625
2.07861328125
2.0036865234375
1.880419921875
3.0204345703124997
3.0204345703124997
3.027685546875
3.0244628906249997
3.0244628906249997
3.0268798828124996
2.1342041015624997
1.100537109375
0.3182373046875
0.023364257812499997
0.019335937499999997
0.024169921875
0.020947265625
0.027392578124999997
0.022558593749999998
0.0217529296875
0.022558593749999998
0.0217529296875
0.0249755859375
0.024169921875
0.072509765625
0.149853515625
0.23203125
0.3037353515625
0.3907470703125
0.4568115234375
0.5124023437499999
1.5355957031249998
2.2695556640625
2.566845703125
2.784375
2.8810546875
2.8431884765624997
2.7996826171875
2.6949462890625
2.6143798828125
2.5450927734374997
2.3066162109375
2.2026855468749997
2.02705078125
1.877197265625
1.7184814453125
3.0244628906249997
3.0244628906249997
3.0244628906249997
3.02607421875
3.0268798828124996
3.0268798828124996
2.3581787109375
1.6250244140624999
0.60263671875
0.07734374999999999
0.020947265625
0.026586914062499998
0.022558593749999998
0.022558593749999998
0.018530273437499998
0.022558593749999998
0.026586914062499998
0.022558593749999998
0.023364257812499997
0.023364257812499997
0.0604248046875
0.1426025390625
0.24895019531249998
0.31743164062499996
0.388330078125
0.44956054687499997
0.5341552734375
0.5865234375
2.07216796875
2.6143798828125
2.7972656249999996
2.7892089843749996
2.8037109375
2.8174072265624996
2.7448974609374996
2.673193359375
2.4927246093749997
2.3050048828125
2.2429687499999997
2.031884765625
1.8618896484374998
1.7313720703125
3.0284912109374997
3.0228515624999996
3.0252685546875
3.01962890625
3.0244628906249997
3.0252685546875
2.95517578125
1.7523193359375
0.8725341796874999
0.278759765625
0.023364257812499997
0.026586914062499998
0.022558593749999998
0.02578125
0.018530273437499998
0.022558593749999998
0.024169921875
0.0281982421875
0.023364257812499997
0.022558593749999998
0.0394775390625
0.1458251953125
0.2280029296875
0.2989013671875
0.38591308593749996
0.4568115234375
0.5132080078125
0.5687988281249999
2.0488037109375
2.5789306640625
2.745703125
2.8447998046875
2.8480224609375
2.9801513671874997
2.695751953125
2.72958984375
2.6417724609374997
2.4443847656249997
2.3227294921875
2.16884765625
2.0181884765625
1.8006591796875
2.36220703125
3.0228515624999996
3.0284912109374997
3.0252685546875
3.0252685546875
3.0252685546875
2.931005859375
2.077001953125
1.1819091796874999
0.35368652343749996
0.018530273437499998
0.022558593749999998
0.022558593749999998
0.019335937499999997
0.0249755859375
0.0217529296875
0.0249755859375
0.022558593749999998
0.0281982421875
0.0217529296875
0.022558593749999998
0.0708984375
0.15227050781249998
0.25458984375
0.327099609375
0.39316406249999997
0.47856445312499996
0.53818359375
1.5645996093749999
2.2582763671875
2.6490234375
2.827880859375
2.89072265625
2.769873046875
2.7569824218749996
2.7134765625
2.5692626953124997
2.4903076171875
2.28486328125
2.20751953125
2.086669921875
1.972265625
1.8626953124999999
3.0252685546875
3.0244628906249997
3.02607421875
3.0228515624999996
3.0204345703124997
3.0268798828124996
2.2324951171875
1.16337890625
0.48581542968749997
0.042700195312499994
0.017724609375
0.023364257812499997
0.0201416015625
0.0217529296875
0.022558593749999998
0.0249755859375
0.024169921875
0.022558593749999998
0.022558593749999998
0.023364257812499997
0.0878173828125
0.1732177734375
0.24814453125
0.32065429687499997
0.40605468749999996
0.472119140625
0.533349609375
1.590380859375
2.3468994140625
2.6079345703124996
2.7569824218749996
2.8351318359374997
2.8077392578125
2.7666503906249997
2.5885986328125
2.5789306640625
2.4339111328125
2.29775390625
2.1825439453124997
2.051220703125
1.9400390625
1.767626953125
3.0252685546875
3.02607421875
3.0204345703124997
3.0228515624999996
3.0139892578125
3.02607421875
2.2147705078124997
1.611328125
0.6662841796875
0.0217529296875
0.02578125
0.018530273437499998
0.022558593749999998
0.026586914062499998
0.0217529296875
0.027392578124999997
0.024169921875
0.024169921875
0.023364257812499997
0.023364257812499997
0.08056640625
0.15629882812499998
0.2360595703125
0.33676757812499997
0.4004150390625
0.46567382812499997
0.54140625
0.5994140625
2.093115234375
2.6039062499999996
2.7730957031249996
2.9116699218749997
2.9269775390625
2.81015625
2.8794433593749997
2.8037109375
2.7328124999999996
2.4709716796875
2.3203125
2.1583740234374997
2.0004638671875
1.9343994140624998
3.0164062499999997
3.0236572265625
3.0252685546875
3.0252685546875
3.0244628906249997
3.0228515624999996
2.6498291015624997
1.7096191406249999
0.8749511718749999
0.24895019531249998
0.024169921875
0.024169921875
0.022558593749999998
0.026586914062499998
0.018530273437499998
0.017724609375
0.023364257812499997
0.0201416015625
0.020947265625
0.023364257812499997
0.017724609375
0.0604248046875
0.141796875
0.2215576171875
0.294873046875
0.3843017578125
0.4487548828125
0.507568359375
1.8409423828125
2.3887939453125
2.6441894531249996
2.7658447265625
2.7730957031249996
2.7730957031249996
2.6723876953124996
2.582958984375
2.5458984375
2.4226318359375
2.29775390625
2.1946289062499997
2.0439697265625
1.9134521484375
2.3396484374999997
3.0244628906249997
3.0236572265625
3.0220458984375
3.0309082031249996
3.01962890625
2.8302978515625
2.0334960937499997
1.09248046875
0.359326171875
0.023364257812499997
0.026586914062499998
0.027392578124999997
0.019335937499999997
0.023364257812499997
0.0201416015625
0.0169189453125
0.0217529296875
0.0217529296875
0.023364257812499997
0.0281982421875
0.10231933593749999
0.1812744140625
0.2586181640625
0.3544921875
0.4165283203125
0.48259277343749996
0.55751953125
1.69833984375
2.384765625
2.7255615234375
2.7851806640624996
2.8061279296875
2.7577880859375
2.6820556640624997
2.642578125
2.6433837890625
2.410546875
2.2832519531249997
2.2212158203125
2.0818359374999997
1.9835449218749999
1.8304687499999999
3.0252685546875
3.0268798828124996
3.02607421875
3.0268798828124996
3.0244628906249997
3.0252685546875
2.1849609375
1.2423339843749999
0.476953125
0.017724609375
0.0217529296875
0.0249755859375
0.0201416015625
0.027392578124999997
0.023364257812499997
0.022558593749999998
0.02578125
0.018530273437499998
0.0201416015625
0.024169921875
0.045117187499999996
0.15146484375
0.23283691406249998
0.3037353515625
0.37382812499999996
0.45842285156249996
0.5148193359375
0.5744384765625
2.1785156249999997
2.560400390625
2.7336181640625
2.7561767578125
2.7328124999999996
2.779541015625
2.8270751953124997
2.6103515625
2.528173828125
2.3009765625
2.1615966796875
2.131787109375
2.0737792968749997
1.9005615234375
3.0252685546875
3.0252685546875
3.0236572265625
3.02607421875
3.0236572265625
3.0244628906249997
2.34931640625
1.65
0.8145263671874999
0.2255859375
0.0201416015625
0.018530273437499998
0.0217529296875
0.0249755859375
0.0201416015625
0.022558593749999998
0.024169921875
0.023364257812499997
0.018530273437499998
0.0217529296875
0.049951171875
0.1353515625
0.217529296875
0.281982421875
0.37705078124999997
0.44230957031249996
0.5067626953125
0.5760498046875
2.0810302734375
2.5789306640625
2.808544921875
2.8810546875
2.8480224609375
2.8456054687499996
2.7674560546875
2.67158203125
2.6111572265625
2.3904052734375
2.281640625
2.2349121093749997
2.0230224609375
1.8385253906249999
2.8415771484374996
3.0236572265625
3.0252685546875
3.02607421875
3.0244628906249997
3.0268798828124996
2.9060302734374996
2.0729736328125
0.8258056640625
0.30454101562499997
0.024169921875
0.023364257812499997
0.0217529296875
0.022558593749999998
0.023364257812499997
0.0217529296875
0.024169921875
0.0217529296875
0.023364257812499997
0.024169921875
0.0249755859375
0.0636474609375
0.16677246093749998
0.246533203125
0.3150146484375
0.3843017578125
0.47050781249999996
0.5260986328125
1.6330810546874999
2.5241455078125
2.6594970703125
2.7779296875
2.745703125
2.7175048828125
2.6965576171874996
2.6691650390625
2.5612060546874997
2.3775146484375
2.3009765625
2.1390380859375
1.989990234375
1.8441650390625
1.7233154296875
3.0252685546875
3.0236572265625
3.02607421875
3.0236572265625
3.02607421875
3.01962890625
2.1865722656249997
1.2423339843749999
0.49790039062499997
0.07814941406249999
0.023364257812499997
0.0217529296875
0.02578125
0.022558593749999998
0.022558593749999998
0.0072509765625
0.018530273437499998
0.02900390625
0.022558593749999998
0.024169921875
0.07734374999999999
0.15629882812499998
0.23525390624999998
0.30615234375
0.40283203125
0.46164550781249997
0.5228759765625
1.611328125
2.3033935546874997
2.68125
2.8222412109375
2.860107421875
2.8077392578125
2.8359375
2.72958984375
2.75537109375
2.6852783203125
2.47177734375
2.302587890625
2.15595703125
1.9472900390624999
1.767626953125
3.029296875
3.0228515624999996
3.0244628906249997
3.0244628906249997
3.029296875
3.0236572265625
2.3001708984375
1.5396240234374998
0.7001220703125
0.022558593749999998
0.022558593749999998
0.024169921875
0.0249755859375
0.024169921875
0.023364257812499997
0.020947265625
0.023364257812499997
0.017724609375
0.022558593749999998
0.02578125
0.0249755859375
0.09829101562499999
0.17644042968749998
0.27634277343749997
0.34562988281249996
0.410888671875
0.4954833984375
0.5518798828125
2.0657226562499997
2.6337158203124997
2.8697753906249996
2.8713867187499997
2.9173095703125
2.9277832031249997
2.8617187499999996
2.7094482421875
2.5644287109375
2.4403564453124997
2.26875
2.08505859375
1.9698486328125
1.8014648437499998
3.0252685546875
3.029296875
3.027685546875
3.027685546875
3.0252685546875
3.0244628906249997
2.784375
1.5847412109374999
0.6630615234374999
0.1232666015625
0.023364257812499997
0.018530273437499998
0.023364257812499997
0.020947265625
0.02578125
0.020947265625
0.019335937499999997
0.0201416015625
0.024169921875
0.026586914062499998
0.023364257812499997
0.0829833984375
0.16274414062499998
0.23686523437499998
0.3117919921875
0.40283203125
0.46728515625
0.526904296875
2.0052978515624997
2.553955078125
2.771484375
2.8061279296875
2.7706787109374997
2.7730957031249996
2.7674560546875
2.69091796875
2.5934326171874997
2.4774169921875
2.384765625
2.2236328125
2.152734375
2.0093261718749997
3.02607421875
3.02607421875
3.0309082031249996
3.0301025390625
3.0252685546875
3.0244628906249997
2.8480224609375
2.05927734375
1.139208984375
0.32871093749999997
0.022558593749999998
0.022558593749999998
0.022558593749999998
0.022558593749999998
0.023364257812499997
0.018530273437499998
0.0217529296875
0.022558593749999998
0.022558593749999998
0.022558593749999998
0.023364257812499997
0.027392578124999997
0.09829101562499999
0.20947265625
0.278759765625
0.348046875
0.41572265625
0.5003173828124999
1.554931640625
2.205908203125
2.550732421875
2.6659423828124997
2.6876953125
2.769873046875
2.7368408203124996
2.7013916015625
2.6683593749999996
2.425048828125
2.3477050781249997
2.230078125
2.11083984375
1.96904296875
1.9190917968749999
3.0236572265625
3.021240234375
3.029296875
3.0204345703124997
3.0301025390625
3.0244628906249997
2.312255859375
1.1456542968749999
0.5067626953125
0.023364257812499997
0.0217529296875
0.017724609375
0.023364257812499997
0.022558593749999998
0.023364257812499997
0.022558593749999998
0.022558593749999998
0.022558593749999998
0.0249755859375
0.033837890625
0.0346435546875
0.141796875
0.2255859375
0.294873046875
0.3681884765625
0.4487548828125
0.5115966796875
1.1061767578125
2.4081298828124997
2.6683593749999996
2.7690673828124996
2.7650390624999996
2.8149902343749997
2.7779296875
2.689306640625
2.560400390625
2.39765625
2.26552734375
2.144677734375
2.031884765625
1.9013671875
1.722509765625
3.0204345703124997
3.0268798828124996
3.0268798828124996
3.0268798828124996
3.0204345703124997
3.0268798828124996
2.2429687499999997
1.5235107421874998
0.5792724609375
0.026586914062499998
0.02900390625
0.023364257812499997
0.022558593749999998
0.020947265625
0.023364257812499997
0.027392578124999997
0.022558593749999998
0.0201416015625
0.023364257812499997
0.024169921875
0.07412109374999999
0.153076171875
0.23525390624999998
0.32871093749999997
0.3988037109375
0.45761718749999997
0.5164306640624999
0.59619140625
2.0423583984375
2.5330078124999997
2.792431640625
2.8633300781249997
2.81015625
2.8037109375
2.7779296875
2.6562744140624996
2.5595947265624996
2.3952392578125
2.2760009765625
2.176904296875
1.9843505859375
1.7990478515625
3.027685546875
3.027685546875
3.029296875
3.027685546875
3.02607421875
3.0244628906249997
2.5458984375
1.9464843749999998
0.813720703125
0.185302734375
0.024169921875
0.0217529296875
0.0217529296875
0.023364257812499997
0.022558593749999998
0.023364257812499997
0.024169921875
0.022558593749999998
0.017724609375
0.019335937499999997
0.02900390625
0.1039306640625
0.207861328125
0.285205078125
0.35690917968749997
0.4189453125
0.5019287109375
0.559130859375
1.5992431640625
2.4967529296874997
2.6748046875
2.7263671874999997
2.673193359375
2.6014892578124997
2.5869873046875
2.4870849609374996
2.4121582031249997
2.2179931640625
2.0979492187499997
1.9150634765624999
1.87236328125
1.7200927734375
2.8254638671874996
3.0244628906249997
3.0252685546875
3.0228515624999996
3.0301025390625
3.0268798828124996
3.0268798828124996
2.0600830078125
1.061865234375
0.388330078125
0.058813476562499994
0.022558593749999998
0.0217529296875
0.026586914062499998
0.0249755859375
0.024169921875
0.022558593749999998
0.0201416015625
0.0169189453125
0.0201416015625
0.0878173828125
0.1973876953125
0.2698974609375
0.3440185546875
0.407666015625
0.491455078125
0.5526855468749999
0.6034423828125
1.8626953124999999
2.5475097656249996
2.8391601562499997
2.9326171875
2.8673583984374997
2.8810546875
2.8794433593749997
2.848828125
2.7166992187499996
2.512060546875
2.31708984375
2.2324951171875
2.13984375
2.0197998046875
1.8884765625
3.027685546875
3.0204345703124997
3.02607421875
3.027685546875
3.0244628906249997
3.02607421875
2.141455078125
1.4058837890625
0.3520751953125
0.022558593749999998
0.022558593749999998
0.022558593749999998
0.026586914062499998
0.022558593749999998
0.023364257812499997
0.022558593749999998
0.022558593749999998
0.022558593749999998
0.022558593749999998
0.0217529296875
0.04833984375
0.127294921875
0.2360595703125
0.307763671875
0.37382812499999996
0.44150390624999997
0.5204589843749999
0.5736328125
2.012548828125
2.502392578125
2.663525390625
2.7803466796875
2.744091796875
2.7585937499999997
2.6780273437499997
2.6611083984375
2.52978515625
2.3517333984374997
2.231689453125
2.096337890625
1.9867675781249998
1.87236328125
3.02607421875
3.0244628906249997
3.0252685546875
3.0252685546875
3.0268798828124996
3.02607421875
2.4161865234374997
1.6250244140624999
0.6751464843749999
0.107958984375
0.017724609375
0.024169921875
0.022558593749999998
0.022558593749999998
0.020947265625
0.0217529296875
0.026586914062499998
0.024169921875
0.027392578124999997
0.022558593749999998
0.049145507812499996
0.15871582031249998
0.24089355468749998
0.30937499999999996
0.38188476562499996
0.46647949218749996
0.5293212890625
0.5824951171875
2.1116455078125
2.502392578125
2.747314453125
2.85849609375
2.8874999999999997
2.8528564453125
2.776318359375
2.7126708984374996
2.647412109375
2.466943359375
2.2365234375
2.1148681640625
2.02060546875
1.9198974609375
3.0268798828124996
3.0252685546875
3.0228515624999996
3.02607421875
3.029296875
3.0252685546875
2.6844726562499996
1.9247314453125
1.019970703125
0.34079589843749997
0.017724609375
0.023364257812499997
0.022558593749999998
0.02578125
0.022558593749999998
0.026586914062499998
0.022558593749999998
0.0201416015625
0.022558593749999998
0.023364257812499997
0.022558593749999998
0.0910400390625
0.165966796875
0.240087890625
0.33676757812499997
0.4068603515625
0.46970214843749997
0.5470458984375
1.8989501953124999
2.3597900390624997
2.7158935546875
2.7932373046874996
2.9116699218749997
2.763427734375
2.7521484375
2.689306640625
2.56201171875
2.4355224609375
2.3050048828125
2.241357421875
2.0036865234375
1.9223144531249998
1.7877685546875
3.0244628906249997
3.0252685546875
3.034130859375
3.0244628906249997
3.029296875
3.0252685546875
2.296142578125
1.13115234375
0.404443359375
0.023364257812499997
0.023364257812499997
0.024169921875
0.02578125
0.0249755859375
0.026586914062499998
0.0281982421875
0.022558593749999998
0.020947265625
0.0249755859375
0.02900390625
0.045117187499999996
0.14824218749999998
0.23283691406249998
0.30937499999999996
0.37060546875
0.46164550781249997
0.517236328125
0.8403076171874999
2.3340087890625
2.6619140624999997
2.81015625
2.776318359375
2.6925292968749996
2.6772216796875
2.60712890625
2.5845703125
2.495947265625
2.3372314453125
2.1906005859374997
2.0923095703125
2.02705078125
1.8828369140624999
3.0244628906249997
3.029296875
3.02607421875
3.0204345703124997
3.0228515624999996
3.0268798828124996
2.383154296875
1.533984375
0.8266113281249999
0.26103515625
0.020947265625
0.019335937499999997
0.02578125
0.018530273437499998
0.022558593749999998
0.019335937499999997
0.0201416015625
0.0249755859375
0.022558593749999998
0.017724609375
0.041088867187499996
0.11923828125
0.201416015625
0.27231445312499997
0.362548828125
0.436669921875
0.49387207031249997
0.5760498046875
2.13984375
2.56845703125
2.7344238281249997
2.7972656249999996
2.7505371093749997
2.7352294921875
2.6611083984375
2.618408203125
2.5692626953124997
2.4258544921875
2.321923828125
2.1841552734375
2.022216796875
1.9013671875
3.0252685546875
3.02607421875
3.0204345703124997
3.0252685546875
3.029296875
3.0268798828124996
2.7368408203124996
1.9746826171874998
0.736376953125
0.1780517578125
0.017724609375
0.0217529296875
0.023364257812499997
0.0217529296875
0.0249755859375
0.022558593749999998
0.023364257812499997
0.020947265625
0.023364257812499997
0.019335937499999997
0.026586914062499998
0.0717041015625
0.182080078125
0.2570068359375
0.32951660156249996
0.39316406249999997
0.48017578125
0.5389892578125
2.04638671875
2.6192138671875
2.8037109375
2.8496337890624996
2.737646484375
2.7610107421874996
2.7086425781249996
2.6820556640624997
2.5813476562499997
2.4709716796875
2.354150390625
2.204296875
2.0455810546874997
1.972265625
1.909423828125
3.0236572265625
3.0268798828124996
3.0244628906249997
3.0252685546875
3.029296875
3.029296875
2.0431640625
1.0892578124999999
0.48581542968749997
0.069287109375
0.022558593749999998
0.024169921875
0.0217529296875
0.027392578124999997
0.022558593749999998
0.023364257812499997
0.0249755859375
0.0217529296875
0.0201416015625
0.0201416015625
0.02578125
0.095068359375
0.17241210937499998
0.2537841796875
0.3472412109375
0.4125
0.47050781249999996
1.5186767578125
2.241357421875
2.5555664062499996
2.7416748046875
2.7320068359375
2.69736328125
2.705419921875
2.6490234375
2.65546875
2.5716796874999996
2.26875
2.212353515625
2.0818359374999997
1.9569580078125
1.8546386718749999
3.0236572265625
3.0228515624999996
3.0268798828124996
3.029296875
3.029296875
3.0268798828124996
2.2921142578125
1.40185546875
0.47453613281249996
0.018530273437499998
0.0201416015625
0.024169921875
0.017724609375
0.023364257812499997
0.018530273437499998
0.026586914062499998
0.0217529296875
0.023364257812499997
0.0217529296875
0.024169921875
0.040283203125
0.11923828125
0.2215576171875
0.30051269531249997
0.3681884765625
0.43828124999999996
0.510791015625
1.506591796875
2.2018798828125
2.647412109375
2.8149902343749997
2.8077392578125
2.747314453125
2.73603515625
2.618408203125
2.5072265624999996
2.3203125
2.2453857421875
2.1664306640624997
2.02060546875
1.8900878906249998
1.815966796875
3.0228515624999996
3.0244628906249997
3.0252685546875
3.0284912109374997
3.0244628906249997
3.02607421875
2.6530517578125
1.46953125
0.6574218749999999
0.12810058593749998
0.023364257812499997
0.0217529296875
0.020947265625
0.023364257812499997
0.0201416015625
0.0217529296875
0.0201416015625
0.020947265625
0.022558593749999998
0.023364257812499997
0.0620361328125
0.16435546874999998
0.24733886718749998
0.3198486328125
0.407666015625
0.4729248046875
0.530126953125
0.5865234375
2.16884765625
2.5249511718749997
2.6868896484375
2.8206298828125
2.82626953125
2.92294921875
2.785986328125
2.6490234375
2.56201171875
2.4081298828124997
2.2349121093749997
2.1100341796874997
2.00771484375
1.9037841796875
3.0268798828124996
3.0236572265625
3.02607421875
3.027685546875
3.0244628906249997
3.0244628906249997
2.4846679687499997
1.8506103515624999
1.02158203125
0.31259765624999997
0.0217529296875
0.0249755859375
0.023364257812499997
0.024169921875
0.023364257812499997
0.02578125
0.023364257812499997
0.023364257812499997
0.023364257812499997
0.023364257812499997
0.0217529296875
0.0717041015625
0.15468749999999998
0.2537841796875
0.3279052734375
0.3923583984375
0.48178710937499997
0.5357666015625
1.6129394531249999
2.3340087890625
2.6377441406249997
2.7166992187499996
2.7827636718749997
2.818212890625
2.8286865234375
2.7030029296875
2.586181640625
2.3904052734375
2.276806640625
2.15595703125
2.00771484375
1.9142578124999998
1.8062988281249999
3.0204345703124997
3.0244628906249997
3.0236572265625
3.027685546875
3.0204345703124997
3.02607421875
2.2743896484375
1.0658935546875
0.43747558593749997
0.027392578124999997
0.0201416015625
0.022558593749999998
0.0217529296875
0.022558593749999998
0.023364257812499997
0.024169921875
0.023364257812499997
0.023364257812499997
0.023364257812499997
0.02578125
0.0837890625
0.16677246093749998
0.24089355468749998
0.3150146484375
0.4036376953125
0.47050781249999996
0.5244873046874999
2.0745849609375
2.4548583984375
2.7046142578124996
2.8254638671874996
2.8157958984375
2.784375
2.7827636718749997
2.6304931640625
2.5338134765625
2.39765625
2.2502197265625
2.205908203125
2.006103515625
1.920703125
1.7861572265624999
3.02607421875
3.0252685546875
3.0284912109374997
3.0220458984375
3.027685546875
3.0244628906249997
2.286474609375
1.41796875
0.5873291015625
0.023364257812499997
0.0249755859375
0.0217529296875
0.023364257812499997
0.027392578124999997
0.022558593749999998
0.022558593749999998
0.018530273437499998
0.022558593749999998
0.023364257812499997
0.023364257812499997
0.049145507812499996
0.130517578125
0.2102783203125
0.307763671875
0.37785644531249996
0.439892578125
0.523681640625
1.0481689453125
2.102783203125
2.6433837890625
2.7569824218749996
2.7908203124999997
2.7416748046875
2.78759765625
2.7755126953125
2.6885009765624996
2.6369384765625
2.4822509765625
2.3098388671875
2.157568359375
2.0326904296875
1.9110351562499999
3.029296875
3.0228515624999996
3.0204345703124997
3.0220458984375
3.027685546875
3.0236572265625
2.3710693359375
1.5347900390625
0.6646728515625
0.127294921875
0.020947265625
0.019335937499999997
0.022558593749999998
0.0217529296875
0.018530273437499998
0.0217529296875
0.027392578124999997
0.023364257812499997
0.023364257812499997
0.02578125
0.020947265625
0.1087646484375
0.185302734375
0.26022949218749997
0.31904296875
0.42216796874999996
0.48581542968749997
0.539794921875
2.0012695312499997
2.4097412109375
2.5845703125
2.8375488281249996
2.7851806640624996
2.7642333984375
2.582958984375
2.537841796875
2.5322021484375
2.3791259765625
2.1849609375
2.0761962890625
2.0560546875
1.9110351562499999
3.0268798828124996
3.0309082031249996
3.0268798828124996
3.0244628906249997
3.02607421875
3.0284912109374997
2.7021972656249997
1.9472900390624999
1.007080078125
0.2183349609375
0.0217529296875
0.0201416015625
0.022558593749999998
0.02578125
0.019335937499999997
0.027392578124999997
0.019335937499999997
0.022558593749999998
0.0249755859375
0.020947265625
0.043505859375
0.12165527343749999
0.20463867187499998
0.298095703125
0.372216796875
0.43344726562499997
0.49064941406249996
0.57041015625
1.9634033203124999
2.4298828125
2.784375
2.7867919921874997
2.808544921875
2.7005859374999996
2.6707763671875
2.6353271484375
2.5571777343749997
2.3638183593749997
2.1906005859374997
2.15595703125
1.9956298828124999
1.9746826171874998
1.864306640625
3.0244628906249997
3.02607421875
3.0252685546875
3.0284912109374997
3.0244628906249997
3.0268798828124996
2.209130859375
1.0119140625
0.41411132812499996
0.020947265625
0.0249755859375
0.027392578124999997
0.023364257812499997
0.022558593749999998
0.022558593749999998
0.022558593749999998
0.027392578124999997
0.018530273437499998
0.022558593749999998
0.018530273437499998
0.0845947265625
0.19255371093749998
0.269091796875
0.3359619140625
0.427001953125
0.48984374999999997
0.546240234375
1.0248046874999999
2.33642578125
2.5974609374999997
2.747314453125
2.8206298828125
2.811767578125
2.76181640625
2.7247558593749996
2.6852783203125
2.5894042968749997
2.4161865234374997
2.22041015625
2.0689453125
1.9658203125
1.8038818359375
3.0268798828124996
3.0244628906249997
3.0244628906249997
3.0236572265625
3.02607421875
3.0244628906249997
2.3130615234375
1.3929931640625
0.613916015625
0.024169921875
0.022558593749999998
0.0249755859375
0.0201416015625
0.018530273437499998
0.017724609375
0.022558593749999998
0.022558593749999998
0.027392578124999997
0.022558593749999998
0.0281982421875
0.0837890625
0.1651611328125
0.24331054687499998
0.34562988281249996
0.4084716796875
0.4680908203125
0.5486572265624999
0.6010253906249999
2.0310791015625
2.4983642578125
2.7569824218749996
2.7787353515624997
2.7972656249999996
2.8093505859374996
2.6288818359375
2.5950439453125
2.5225341796875
2.431494140625
2.3356201171874997
2.209130859375
2.0923095703125
1.9472900390624999
3.027685546875
3.0252685546875
3.0268798828124996
3.0228515624999996
3.0252685546875
3.0252685546875
2.53623046875
1.8570556640625
0.6485595703125
0.23283691406249998
0.022558593749999998
0.026586914062499998
0.022558593749999998
0.017724609375
0.0249755859375
0.023364257812499997
0.024169921875
0.023364257812499997
0.024169921875
0.0249755859375
0.037060546874999996
0.1168212890625
0.2215576171875
0.2956787109375
0.3665771484375
0.45036621093749996
0.5132080078125
0.5679931640625
2.1406494140625
2.6876953125
2.721533203125
2.8480224609375
2.8415771484374996
2.905224609375
2.6820556640624997
2.6788330078125
2.5644287109375
2.4032958984375
2.23330078125
2.15595703125
2.0391357421875
2.015771484375
3.0244628906249997
3.0301025390625
3.0236572265625
3.0325195312499997
3.0317138671875
3.0244628906249997
2.6385498046875
1.9166748046875
0.9974121093749999
0.3665771484375
0.02578125
0.022558593749999998
0.018530273437499998
0.017724609375
0.024169921875
0.0249755859375
0.020947265625
0.020947265625
0.02578125
0.022558593749999998
0.024169921875
0.062841796875
0.14421386718749998
0.223974609375
0.3182373046875
0.38591308593749996
0.45036621093749996
0.5357666015625
1.542041015625
2.2566650390625
2.5877929687499996
2.6691650390625
2.7166992187499996
2.760205078125
2.69091796875
2.6337158203124997
2.5950439453125
2.415380859375
2.2888916015625
2.1358154296875
1.9867675781249998
1.8860595703124998
1.7934082031249998
3.0268798828124996
3.0252685546875
3.0252685546875
3.02607421875
3.0236572265625
3.0284912109374997
2.2002685546875
1.1142333984375
0.52529296875
0.0459228515625
0.02578125
0.0201416015625
0.023364257812499997
0.023364257812499997
0.024169921875
0.019335937499999997
0.022558593749999998
0.0201416015625
0.022558593749999998
0.02578125
0.0990966796875
0.2038330078125
0.2795654296875
0.35126953125
0.4149169921875
0.4970947265625
0.5567138671874999
1.5645996093749999
2.3638183593749997
2.608740234375
2.763427734375
2.8834716796874997
2.745703125
2.7569824218749996
2.608740234375
2.52978515625
2.36865234375
2.302587890625
2.19140625
2.0697509765624997
1.9972412109375
1.8095214843749998
3.029296875
3.02607421875
3.0252685546875
3.0268798828124996
3.0236572265625
3.0284912109374997
2.1954345703125
1.4469726562499998
0.646142578125
0.191748046875
0.019335937499999997
0.0217529296875
0.017724609375
0.020947265625
0.0217529296875
0.0249755859375
0.024169921875
0.0217529296875
0.023364257812499997
0.026586914062499998
0.10554199218749999
0.182080078125
0.2650634765625
0.33515625
0.42216796874999996
0.4833984375
0.5422119140625
1.4920898437499999
2.212353515625
2.6192138671875
2.81015625
2.79404296875
2.8029052734374997
2.7497314453125
2.6031005859375
2.6200195312499996
2.5571777343749997
2.3227294921875
2.2357177734375
2.128564453125
1.973876953125
1.8908935546874999
3.02607421875
3.02607421875
3.027685546875
3.0236572265625
3.02607421875
3.0236572265625
2.4725830078124997
1.851416015625
0.791162109375
0.23686523437499998
0.023364257812499997
0.023364257812499997
0.022558593749999998
0.022558593749999998
0.0217529296875
0.022558593749999998
0.0217529296875
0.0217529296875
0.024169921875
0.017724609375
0.0555908203125
0.1329345703125
0.2376708984375
0.31259765624999997
0.38349609375
0.44230957031249996
0.526904296875
0.5760498046875
1.780517578125
2.5305908203125
2.7352294921875
2.8270751953124997
2.8141845703125
2.818212890625
2.7352294921875
2.7175048828125
2.631298828125
2.4854736328125
2.321923828125
2.1277587890625
2.0093261718749997
1.920703125
3.02607421875
3.0284912109374997
3.0268798828124996
3.027685546875
3.0244628906249997
3.0252685546875
3.0244628906249997
1.993212890625
1.106982421875
0.5220703125
0.022558593749999998
0.019335937499999997
0.020947265625
0.022558593749999998
0.0281982421875
0.0217529296875
0.022558593749999998
0.020947265625
0.018530273437499998
0.0249755859375
0.024169921875
0.095068359375
0.18046874999999998
0.246533203125
0.3440185546875
0.41572265625
0.475341796875
0.5309326171875
1.8377197265624998
2.3549560546875
2.582958984375
2.6739990234374997
2.719921875
2.6756103515625
2.6490234375
2.5797363281249996
2.5845703125
2.4290771484375
2.1954345703125
2.09150390625
1.9867675781249998
1.832080078125
1.740234375
3.0204345703124997
3.0244628906249997
3.0301025390625
3.0244628906249997
3.0236572265625
3.02607421875
2.16884765625
1.4010498046875
0.47050781249999996
0.07814941406249999
0.0217529296875
0.017724609375
0.0249755859375
0.018530273437499998
0.022558593749999998
0.023364257812499997
0.022558593749999998
0.0249755859375
0.0217529296875
0.040283203125
0.11762695312499999
0.198193359375
0.29970703125
0.36979980468749996
0.4310302734375
0.5180419921875
0.5728271484374999
1.5686279296874999
2.20107421875
2.6514404296875
2.811767578125
2.8319091796875
2.7690673828124996
2.8037109375
2.6441894531249996
2.6611083984375
2.6111572265625
2.4532470703125
2.2792236328124997
2.11728515625
1.9674316406249999
1.8812255859375
3.029296875
3.0252685546875
3.02607421875
3.0284912109374997
3.0244628906249997
3.0252685546875
2.3195068359374997
1.3768798828125
0.6630615234374999
0.1329345703125
0.023364257812499997
0.02578125
0.0217529296875
0.0217529296875
0.023364257812499997
0.024169921875
0.022558593749999998
0.027392578124999997
0.022558593749999998
0.023364257812499997
0.04833984375
0.15871582031249998
0.2376708984375
0.307763671875
0.39719238281249997
0.46164550781249997
0.5212646484375
0.575244140625
1.9835449218749999
2.462109375
2.6530517578125
2.7303955078124997
2.640966796875
2.6498291015624997
2.6095458984374997
2.5313964843749996
2.4806396484374997
2.2913085937499997
2.1849609375
2.11728515625
1.9996582031249999
1.8103271484374999
3.0309082031249996
3.0252685546875
3.02607421875
3.0244628906249997
3.0301025390625
3.0236572265625
2.4210205078125
1.812744140625
0.9216796875
0.21591796875
0.024169921875
0.023364257812499997
0.024169921875
0.0217529296875
0.022558593749999998
0.023364257812499997
0.0217529296875
0.0249755859375
0.024169921875
0.0378662109375
0.11762695312499999
0.19899902343749998
0.27634277343749997
0.36899414062499997
0.42861328125
0.49870605468749996
0.5776611328125
0.62841796875
2.04638671875
2.5313964843749996
2.7287841796874996
2.6933349609375
2.8294921874999996
2.86494140625
2.5885986328125
2.5845703125
2.4113525390625
2.22041015625
2.109228515625
1.9859619140625
1.864306640625
1.7909912109375
1.7611816406249998
3.02607421875
3.0252685546875
3.0268798828124996
3.0228515624999996
3.0268798828124996
3.0236572265625
2.0665283203125
1.00546875
0.4068603515625
0.0249755859375
0.020947265625
0.023364257812499997
0.022558593749999998
0.0249755859375
0.026586914062499998
0.023364257812499997
0.023364257812499997
0.023364257812499997
0.02900390625
0.111181640625
0.19094238281249998
0.29245605468749997
0.362548828125
0.43022460937499996
0.510791015625
0.56396484375
0.6171386718749999
1.76279296875
2.338037109375
2.5491210937499997
2.727978515625
2.7062255859374997
2.721533203125
2.7650390624999996
2.68125
2.6538574218749997
2.5265625
2.370263671875
2.1422607421874997
1.9875732421874999
1.8578613281249998
1.748291015625
3.0244628906249997
3.0236572265625
3.0236572265625
3.0252685546875
3.02607421875
3.0252685546875
2.333203125
1.474365234375
0.726708984375
0.08540039062499999
0.0281982421875
0.019335937499999997
0.0217529296875
0.023364257812499997
0.0249755859375
0.023364257812499997
0.022558593749999998
0.023364257812499997
0.023364257812499997
0.078955078125
0.1571044921875
0.23525390624999998
0.3117919921875
0.399609375
0.46728515625
0.52529296875
0.5953857421875
1.010302734375
2.1809326171875
2.55234375
2.744091796875
2.7585937499999997
2.7046142578124996
2.6723876953124996
2.62646484375
2.578125
2.5048095703124997
2.3243408203125
2.1841552734375
2.0326904296875
1.8659179687499998
1.8232177734375
3.021240234375
3.0244628906249997
3.0244628906249997
3.0252685546875
3.0268798828124996
3.0301025390625
2.3267578125
1.796630859375
0.7162353515625
0.246533203125
0.020947265625
0.026586914062499998
0.022558593749999998
0.024169921875
0.026586914062499998
0.024169921875
0.023364257812499997
0.022558593749999998
0.0281982421875
0.042700195312499994
0.12246093749999999
0.20463867187499998
0.29648437499999997
0.37382812499999996
0.44150390624999997
0.5244873046874999
0.5744384765625
0.6268066406249999
2.1624023437499997
2.560400390625
2.6876953125
2.6885009765624996
2.70380859375
2.6417724609374997
2.512060546875
2.4532470703125
2.40087890625
2.2349121093749997
2.1068115234375
2.0117431640625
1.9376220703125
1.8280517578125
3.0252685546875
3.0236572265625
3.0284912109374997
3.0244628906249997
3.0252685546875
3.021240234375
2.4903076171875
1.8103271484374999
0.8838134765625
0.1297119140625
0.0217529296875
0.0201416015625
0.020947265625
0.024169921875
0.027392578124999997
0.0249755859375
0.022558593749999998
0.023364257812499997
0.02900390625
0.053173828124999996
0.1635498046875
0.2425048828125
0.31259765624999997
0.38107910156249997
0.47050781249999996
0.52529296875
0.5857177734375
0.6501708984375
1.928759765625
2.3912109375
2.6965576171874996
2.73603515625
2.73603515625
2.8037109375
2.6860839843749997
2.6578857421874997
2.5587890625
2.3799316406249997
2.231689453125
2.0955322265625
1.9529296875
1.848193359375
1.93359375
3.0268798828124996
3.0244628906249997
3.029296875
3.0252685546875
3.0252685546875
3.0099609375
2.2421630859375
1.0836181640625
0.4229736328125
0.0217529296875
0.019335937499999997
0.02578125
0.023364257812499997
0.022558593749999998
0.0169189453125
0.024169921875
0.0217529296875
0.0217529296875
0.0217529296875
0.10151367187499999
0.18449707031249998
0.28681640625
0.3520751953125
0.4229736328125
0.42539062499999997
0.55751953125
0.61552734375
1.6886718749999998
2.418603515625
2.70380859375
2.7916259765625
2.79404296875
2.7328124999999996
2.7142822265624997
2.631298828125
2.550732421875
2.4685546874999997
2.3912109375
2.199462890625
2.0689453125
1.9988525390624998
1.7845458984375
3.021240234375
3.021240234375
3.0220458984375
3.021240234375
3.0236572265625
3.027685546875
2.144677734375
1.3019531249999998
0.5679931640625
0.018530273437499998
0.024169921875
0.0217529296875
0.0281982421875
0.022558593749999998
0.024169921875
0.023364257812499997
0.023364257812499997
0.023364257812499997
0.023364257812499997
0.037060546874999996
0.1490478515625
0.23203125
0.30856933593749997
0.3988037109375
0.4568115234375
0.5204589843749999
0.5808837890624999
1.6129394531249999
2.2993652343749997
2.6498291015624997
2.7771240234374996
2.779541015625
2.73603515625
2.65546875
2.5225341796875
2.4766113281249997
2.318701171875
2.131787109375
2.0576660156249997
1.960986328125
1.7861572265624999
1.699951171875
3.0244628906249997
3.0268798828124996
3.0252685546875
3.0228515624999996
3.0252685546875
3.02607421875
2.4177978515625
1.7942138671874999
0.7218749999999999
0.064453125
0.0249755859375
0.017724609375
0.023364257812499997
0.023364257812499997
0.022558593749999998
0.020947265625
0.017724609375
0.020947265625
0.024169921875
0.0604248046875
0.143408203125
0.22478027343749998
0.3230712890625
0.38591308593749996
0.4552001953125
0.5309326171875
0.591357421875
0.6453369140624999
1.9489013671875
2.4935302734375
2.698974609375
2.8190185546874997
2.784375
2.8174072265624996
2.7481201171875
2.6594970703125
2.63291015625
2.4451904296875
2.312255859375
2.060888671875
1.9714599609374999
1.848193359375
3.0228515624999996
3.02607421875
3.0268798828124996
3.021240234375
3.0252685546875
3.0244628906249997
2.7722900390625
1.7611816406249998
0.9031494140624999
0.3198486328125
0.024169921875
0.020947265625
0.020947265625
0.022558593749999998
0.023364257812499997
0.023364257812499997
0.0169189453125
0.022558593749999998
0.0249755859375
0.022558593749999998
0.10554199218749999
0.191748046875
0.26748046875
0.339990234375
0.42941894531249997
0.4962890625
0.5454345703125
0.61552734375
1.9182861328124998
2.3485107421875
2.52978515625
2.5797363281249996
2.5265625
2.5547607421875
2.36865234375
2.402490234375
2.325146484375
2.196240234375
2.1140624999999997
2.0254394531249997
1.964208984375
1.8731689453125
1.893310546875
3.0228515624999996
3.02607421875
3.0268798828124996
3.0252685546875
3.0228515624999996
3.0083496093749997
2.189794921875
1.3825195312499998
0.47856445312499996
0.0636474609375
0.0169189453125
0.0217529296875
0.0217529296875
0.01611328125
0.024169921875
0.023364257812499997
0.0217529296875
0.02900390625
0.08540039062499999
0.1699951171875
0.24895019531249998
0.32065429687499997
0.4125
0.47373046874999997
0.5325439453124999
0.605859375
0.66064453125
1.6403320312499998
2.49755859375
2.642578125
2.7730957031249996
2.7666503906249997
2.747314453125
2.705419921875
2.647412109375
2.62646484375
2.4532470703125
2.3678466796874997
2.16884765625
2.0810302734375
1.9940185546875
1.8224121093749999
3.029296875
3.02607421875
3.021240234375
3.02607421875
3.02607421875
3.0301025390625
2.1680419921875
1.2374999999999998
0.5309326171875
0.0281982421875
0.0249755859375
0.0201416015625
0.0217529296875
0.0201416015625
0.023364257812499997
0.024169921875
0.024169921875
0.023364257812499997
0.024169921875
0.07009277343749999
0.182080078125
0.2618408203125
0.33193359375
0.41008300781249996
0.48178710937499997
0.5341552734375
0.5969970703124999
1.0739501953125
2.167236328125
2.5144775390625
2.727978515625
2.7585937499999997
2.72314453125
2.6868896484375
2.5338134765625
2.51044921875
2.4290771484375
2.2872802734374997
2.147900390625
2.0173828124999997
1.844970703125
1.6935058593749999
3.029296875
3.0236572265625
3.02607421875
3.0252685546875
3.029296875
3.027685546875
2.333203125
1.72412109375
0.68642578125
0.1699951171875
0.022558593749999998
0.023364257812499997
0.0201416015625
0.023364257812499997
0.023364257812499997
0.0249755859375
0.022558593749999998
0.0249755859375
0.024169921875
0.0966796875
0.18288574218749998
0.262646484375
0.348046875
0.41813964843749996
0.48662109374999996
0.543017578125
0.607470703125
0.6654785156249999
2.08505859375
2.5740966796875
2.6659423828124997
2.7497314453125
2.7005859374999996
2.7126708984374996
2.6997802734375
2.5587890625
2.4403564453124997
2.3050048828125
2.21396484375
1.989990234375
1.7700439453124999
1.7426513671875
3.0252685546875
3.0244628906249997
3.0252685546875
3.0244628906249997
3.02607421875
3.0236572265625
3.021240234375
1.799853515625
0.889453125
0.30615234375
0.024169921875
0.0217529296875
0.022558593749999998
0.0201416015625
0.022558593749999998
0.0249755859375
0.023364257812499997
0.022558593749999998
0.018530273437499998
0.07814941406249999
0.16032714843749998
0.2618408203125
0.33837890625
0.40524902343749997
0.48178710937499997
0.543017578125
0.60263671875
0.6493652343749999
1.9521240234375
2.44599609375
2.6377441406249997
2.753759765625
2.69736328125
2.6699707031249997
2.5168945312499997
2.5088378906249997
2.4298828125
2.36220703125
2.280029296875
2.165625
2.1052001953125
1.9424560546874998
1.993212890625
3.02607421875
3.0236572265625
3.02607421875
3.0252685546875
3.0244628906249997
3.0147949218749996
2.2695556640625
1.239111328125
0.37302246093749997
0.020947265625
0.023364257812499997
0.017724609375
0.022558593749999998
0.018530273437499998
0.0249755859375
0.020947265625
0.0217529296875
0.0217529296875
0.053173828124999996
0.12890625
0.20625
0.2876220703125
0.37302246093749997
0.44150390624999997
0.5051513671875
0.58330078125
0.6276123046875
1.5412353515625
2.1632080078125
2.49755859375
2.550732421875
2.5644287109375
2.6014892578124997
2.642578125
2.6143798828125
2.5338134765625
2.4749999999999996
2.389599609375
2.2913085937499997
2.1277587890625
2.0173828124999997
1.8747802734374999
3.02607421875
3.0268798828124996
3.0252685546875
3.0252685546875
3.021240234375
3.0236572265625
2.2171875
1.2640869140625
0.5526855468749999
0.0966796875
0.018530273437499998
0.0217529296875
0.023364257812499997
0.022558593749999998
0.0201416015625
0.018530273437499998
0.024169921875
0.026586914062499998
0.0322265625
0.111181640625
0.214306640625
0.291650390625
0.3585205078125
0.42619628906249996
0.510791015625
0.5679931640625
0.6187499999999999
1.7748779296875
2.276806640625
2.570068359375
2.7078369140625
2.7505371093749997
2.7368408203124996
2.67158203125
2.53623046875
2.44599609375
2.2518310546875
2.263916015625
2.1358154296875
2.00771484375
1.85947265625
1.7692382812499998
3.0268798828124996
3.0252685546875
3.0204345703124997
3.027685546875
3.0204345703124997
3.0252685546875
2.4016845703125
1.754736328125
0.816943359375
0.1474365234375
0.0217529296875
0.026586914062499998
0.022558593749999998
0.022558593749999998
0.023364257812499997
0.023364257812499997
0.023364257812499997
0.022558593749999998
0.0249755859375
0.11440429687499999
0.19899902343749998
0.2747314453125
0.36899414062499997
0.42941894531249997
0.4970947265625
0.5551025390625
0.6195556640625
0.6743408203125
1.9875732421874999
2.5563720703125
2.66513671875
2.731201171875
2.7352294921875
2.65869140625
2.647412109375
2.624853515625
2.55234375
2.4113525390625
2.180126953125
2.0246337890625
1.8739746093749998
1.7313720703125
2.3307861328125
3.0284912109374997
3.0204345703124997
3.0244628906249997
3.027685546875
3.0228515624999996
2.9318115234374997
1.7853515624999998
0.958740234375
0.372216796875
0.02578125
0.023364257812499997
0.024169921875
0.0169189453125
0.0217529296875
0.027392578124999997
0.020947265625
0.023364257812499997
0.023364257812499997
0.07734374999999999
0.159521484375
0.2698974609375
0.3343505859375
0.40202636718749996
0.4713134765625
0.5446289062499999
0.6018310546875
0.6509765624999999
1.85625
2.41376953125
2.50400390625
2.6756103515625
2.6603027343749996
2.6377441406249997
2.5974609374999997
2.5499267578125
2.4169921875
2.3501220703125
