2.2179931640625
2.2590820312499997
2.2324951171875
2.16884765625
2.2518310546875
2.196240234375
2.08505859375
1.9754882812499999
1.812744140625
1.7668212890625
1.6282470703124998
1.5895751953125
1.4848388671875
3.02607421875
3.02607421875
3.0228515624999996
3.0228515624999996
3.0244628906249997
3.02607421875
2.602294921875
1.5807128906249999
0.9611572265624999
0.491455078125
0.027392578124999997
0.023364257812499997
0.022558593749999998
0.027392578124999997
0.10231933593749999
0.185302734375
0.2698974609375
0.36093749999999997
0.42941894531249997
0.49790039062499997
0.5808837890624999
0.631640625
0.684814453125
0.7275146484374999
0.7968017578125
0.8354736328125
0.878173828125
1.6298583984375
2.1213134765625
2.341259765625
2.3533447265625
2.3791259765625
2.296142578125
2.3074218749999997
2.2421630859375
2.144677734375
2.0085205078125
1.8635009765625
1.8054931640624998
1.6266357421875
1.533984375
1.4888671875
3.0268798828124996
3.0244628906249997
3.0244628906249997
3.0268798828124996
3.0268798828124996
3.0244628906249997
2.5813476562499997
1.8506103515624999
1.1754638671875
0.4833984375
0.1538818359375
0.0201416015625
0.022558593749999998
0.0217529296875
0.0717041015625
0.16274414062499998
0.2650634765625
0.33757324218749996
0.41008300781249996
0.5019287109375
0.5526855468749999
0.6147216796875
0.68642578125
0.733154296875
0.781494140625
0.8209716796875
0.881396484375
0.91845703125
1.93359375
2.3259521484375
2.425048828125
2.3420654296875
2.3420654296875
2.321923828125
2.309033203125
2.23330078125
2.152734375
2.0093261718749997
1.9013671875
1.8111328125
1.7072021484375
1.5476806640624998
2.840771484375
3.0244628906249997
3.0244628906249997
3.0252685546875
3.027685546875
3.0204345703124997
2.624853515625
1.8304687499999999
1.164990234375
0.6413085937499999
0.1957763671875
0.02578125
0.0298095703125
0.023364257812499997
0.0580078125
0.1409912109375
0.2215576171875
0.32145996093749996
0.39316406249999997
0.4568115234375
0.515625
0.597802734375
0.6533935546874999
0.7025390625
0.765380859375
0.8121093749999999
0.8483642578124999
0.894287109375
1.8788085937499999
2.1938232421875
2.318701171875
2.338037109375
2.31064453125
2.26875
2.2453857421875
2.1624023437499997
2.1084228515625
1.9456787109375
1.77568359375
1.719287109375
1.593603515625
1.4888671875
2.6788330078125
3.01962890625
3.0309082031249996
3.029296875
3.02607421875
3.021240234375
2.5845703125
2.1213134765625
1.4066894531249998
0.710595703125
0.259423828125
0.022558593749999998
0.0217529296875
0.024169921875
0.0652587890625
0.1458251953125
0.259423828125
0.327099609375
0.4004150390625
0.4890380859375
0.5454345703125
0.6066650390625
0.6598388671875
0.726708984375
0.7677978515624999
0.813720703125
0.87333984375
0.910400390625
1.5557373046874998
2.0415527343749997
2.1938232421875
2.2147705078124997
2.2276611328125
2.2131591796875
2.1567626953125
2.11083984375
2.0898925781249997
2.0214111328124997
1.9150634765624999
1.91748046875
1.796630859375
1.7152587890625
1.6371093749999999
3.029296875
3.02607421875
3.0204345703124997
3.0236572265625
3.0252685546875
3.027685546875
2.479833984375
1.5017578125
0.9160400390625
0.49387207031249997
0.022558593749999998
0.022558593749999998
0.023364257812499997
0.049145507812499996
0.14018554687499998
0.2183349609375
0.29326171875
0.391552734375
0.45439453124999996
0.5220703125
0.5969970703124999
0.6493652343749999
0.704150390625
0.7484619140625
0.8096923828125
0.849169921875
0.8902587890625
1.609716796875
2.0874755859375
2.27841796875
2.4177978515625
2.2792236328124997
2.1221191406249997
2.144677734375
2.08505859375
2.0568603515625
1.9190917968749999
1.7748779296875
1.699951171875
1.6282470703124998
1.5396240234374998
1.5001464843749999
3.02607421875
3.0268798828124996
3.0284912109374997
3.0252685546875
3.021240234375
3.0284912109374997
2.3855712890625
1.6693359374999999
0.7218749999999999
0.2956787109375
0.022558593749999998
0.023364257812499997
0.033032226562499996
0.11279296875
0.1941650390625
0.29970703125
0.36979980468749996
0.44150390624999997
0.51884765625
0.5808837890624999
0.6372802734374999
0.69609375
0.7549072265625
0.7984130859374999
0.8419189453125
0.8958984375
0.9313476562499999
1.6395263671875
2.018994140625
2.29775390625
2.3799316406249997
2.333203125
2.2550537109374997
2.1922119140625
2.1624023437499997
2.1873779296875
2.1543457031249997
2.03671875
1.93359375
1.80791015625
1.735400390625
1.611328125
3.0244628906249997
3.02607421875
3.0284912109374997
3.021240234375
3.027685546875
3.0252685546875
2.54267578125
1.7208984374999998
1.0723388671875
0.533349609375
0.023364257812499997
0.0201416015625
0.0217529296875
0.0314208984375
0.11440429687499999
0.19497070312499998
0.2731201171875
0.37060546875
0.439892578125
0.49951171875
0.58330078125
0.636474609375
0.69609375
0.7395996093749999
0.8032470703125
0.8346679687499999
0.8830078124999999
0.929736328125
1.883642578125
2.183349609375
2.2760009765625
2.296142578125
2.1615966796875
2.2373291015625
2.1543457031249997
2.1116455078125
2.0552490234375
1.8344970703124999
1.7772949218749998
1.7072021484375
1.6653076171874999
1.5847412109374999
2.995458984375
3.0228515624999996
3.0244628906249997
3.0268798828124996
3.02607421875
3.02607421875
2.50400390625
1.9891845703125
1.100537109375
0.5671875
0.169189453125
0.024169921875
0.02578125
0.0298095703125
0.11923828125
0.2296142578125
0.30051269531249997
0.37785644531249996
0.4640625
0.5260986328125
0.5841064453125
0.6380859375
0.708984375
0.7629638671875
0.8016357421875
0.8564208984374999
0.9015380859375
0.9353759765624999
1.8336914062499998
2.1519287109375
2.2099365234375
2.22041015625
2.22041015625
2.23330078125
2.1406494140625
2.14951171875
2.060888671875
2.083447265625
1.9472900390624999
1.82080078125
1.7249267578124998
1.6250244140624999
2.8818603515624996
3.027685546875
3.029296875
3.02607421875
3.0228515624999996
3.029296875
3.0228515624999996
2.0979492187499997
1.3075927734375
0.6896484374999999
0.17724609375
0.018530273437499998
0.0201416015625
0.026586914062499998
0.1071533203125
0.1861083984375
0.26425781249999997
0.359326171875
0.42861328125
0.4954833984375
0.572021484375
0.6292236328124999
0.6815917968749999
0.734765625
0.7903564453124999
0.8386962890624999
0.8789794921874999
0.9257080078125
1.851416015625
2.14306640625
2.3235351562499997
2.3404541015625
2.29775390625
2.2711669921874997
2.1076171875
2.18818359375
2.1406494140625
2.03671875
1.8820312499999998
1.8071044921875
1.6967285156249998
1.5791015625
1.751513671875
3.02607421875
3.027685546875
3.027685546875
3.0252685546875
3.0317138671875
3.021240234375
2.367041015625
1.303564453125
0.8161376953124999
0.33273925781249997
0.027392578124999997
0.026586914062499998
0.019335937499999997
0.0459228515625
0.159521484375
0.2376708984375
0.3150146484375
0.3843017578125
0.4761474609375
0.539794921875
0.58974609375
0.662255859375
0.717041015625
0.7645751953125
0.8209716796875
0.865283203125
0.90234375
1.43408203125
2.0471923828125
2.2373291015625
2.34931640625
2.305810546875
2.27841796875
2.2590820312499997
2.2840576171875
2.19140625
2.1003662109375
1.9674316406249999
1.893310546875
1.7845458984375
1.674169921875
1.60166015625
3.0252685546875
3.0220458984375
3.0228515624999996
3.0244628906249997
3.02607421875
3.0284912109374997
2.37509765625
1.5944091796875
0.9224853515625
0.31904296875
0.023364257812499997
0.026586914062499998
0.0298095703125
0.0459228515625
0.127294921875
0.20625
0.3150146484375
0.3794677734375
0.45036621093749996
0.533349609375
0.5929687499999999
0.64453125
0.6977050781249999
0.7581298828124999
0.807275390625
0.8443359374999999
0.8950927734374999
1.651611328125
2.05283203125
2.225244140625
2.40732421875
2.3195068359374997
2.3203125
2.3162841796875
2.1825439453124997
2.0625
1.9384277343749998
1.8578613281249998
1.7499023437499999
1.751513671875
1.6177734375
1.4993408203124998
3.0252685546875
3.0228515624999996
3.02607421875
3.0228515624999996
3.02607421875
3.0252685546875
2.489501953125
1.9674316406249999
0.978076171875
0.452783203125
0.11279296875
0.02900390625
0.023364257812499997
0.033032226562499996
0.11037597656249999
0.22478027343749998
0.298095703125
0.36899414062499997
0.4600341796875
0.5244873046874999
0.581689453125
0.65419921875
0.7049560546875
0.7557128906249999
0.800830078125
0.855615234375
0.8958984375
0.9305419921875
1.9360107421875
2.2051025390625
2.29453125
2.3154785156249997
2.2913085937499997
2.31064453125
2.20751953125
2.1583740234374997
2.1519287109375
2.05927734375
1.9456787109375
1.7958251953125
1.7233154296875
1.6878662109375
3.0284912109374997
3.02607421875
3.02607421875
3.0188232421874996
3.0301025390625
3.0220458984375
2.5386474609375
1.8763916015625
1.1674072265625
0.6114990234375
0.03544921875
0.0217529296875
0.022558593749999998
0.019335937499999997
0.08620605468749999
0.17482910156249998
0.2537841796875
0.34965820312499996
0.4229736328125
0.48259277343749996
0.5671875
0.6260009765625
0.6735351562499999
0.7404052734375
0.7903564453124999
0.8362792968749999
0.8709228515624999
0.91845703125
1.9569580078125
2.2131591796875
2.399267578125
2.3887939453125
2.36220703125
2.360595703125
2.3710693359375
2.189794921875
2.21396484375
2.0665283203125
1.9311767578124999
1.799853515625
1.7152587890625
1.6242187499999998
2.705419921875
3.0284912109374997
3.0284912109374997
3.0244628906249997
3.029296875
3.02607421875
2.9076416015624997
2.1978515625
1.1400146484375
0.5905517578125
0.2255859375
0.019335937499999997
0.023364257812499997
0.018530273437499998
0.0298095703125
0.1353515625
0.2183349609375
0.2940673828125
0.36577148437499996
0.45761718749999997
0.51884765625
0.5776611328125
0.6509765624999999
0.700927734375
0.7484619140625
0.8161376953124999
0.8499755859375
0.8910644531249999
1.7845458984375
2.1535400390625
2.222021484375
2.3146728515625
2.2751953124999997
2.2679443359375
2.151123046875
2.1068115234375
2.125341796875
1.980322265625
1.9053955078125
1.7813232421874998
1.7394287109375
1.622607421875
2.4999755859375
3.021240234375
3.02607421875
3.0252685546875
3.027685546875
3.0301025390625
3.003515625
2.2453857421875
1.38896484375
0.7371826171875
0.17482910156249998
0.022558593749999998
0.022558593749999998
0.022558593749999998
0.064453125
0.15227050781249998
0.22880859374999998
0.3311279296875
0.3955810546875
0.4632568359375
0.5470458984375
0.6050537109374999
0.6638671875
0.7073730468749999
0.7734375
0.8177490234375
0.8572265625
0.9087890624999999
1.5984375
1.9408447265625
2.18818359375
2.305810546875
2.3098388671875
2.228466796875
2.2341064453125
2.2002685546875
2.1760986328125
2.0689453125
1.9102294921874998
1.8264404296874999
1.687060546875
1.587158203125
1.5766845703124999
3.02607421875
3.0268798828124996
3.027685546875
3.0252685546875
3.0236572265625
3.021240234375
2.4677490234375
1.699951171875
0.897509765625
0.3802734375
0.023364257812499997
0.0201416015625
0.018530273437499998
0.0523681640625
0.13615722656249998
0.2505615234375
0.322265625
0.391552734375
0.4761474609375
0.5406005859374999
0.594580078125
0.668701171875
0.7234863281249999
0.768603515625
0.81533203125
0.8668945312499999
0.9087890624999999
0.9410156249999999
1.989990234375
2.165625
2.1970458984375
2.2187988281249997
2.144677734375
2.16884765625
2.160791015625
2.0898925781249997
1.9537353515625
1.9424560546874998
1.8369140625
1.7208984374999998
1.6645019531249998
1.60166015625
3.0284912109374997
3.0228515624999996
3.0252685546875
3.021240234375
3.0244628906249997
3.0301025390625
2.3783203125
1.6717529296875
0.9772705078124999
0.5422119140625
0.023364257812499997
0.024169921875
0.024169921875
0.103125
0.1893310546875
0.26425781249999997
0.3673828125
0.427001953125
0.4962890625
0.5583251953125
0.6348632812499999
0.688037109375
0.733154296875
0.7959960937499999
0.8419189453125
0.8789794921874999
0.9152343749999999
1.0239990234375
1.9537353515625
2.2598876953125
2.383154296875
2.318701171875
2.2510253906249997
2.2582763671875
2.189794921875
2.1632080078125
2.15595703125
1.9166748046875
1.799853515625
1.719287109375
1.5782958984375
1.5106201171875
2.80048828125
3.0244628906249997
3.02607421875
3.0244628906249997
3.0268798828124996
3.0244628906249997
2.550732421875
2.0689453125
1.12470703125
0.6268066406249999
0.2280029296875
0.0217529296875
0.019335937499999997
0.042700195312499994
0.1264892578125
0.2376708984375
0.3101806640625
0.3794677734375
0.4519775390625
0.5349609375
0.591357421875
0.646142578125
0.7138183593749999
0.7613525390625
0.8064697265624999
0.862060546875
0.8999267578125
0.9329589843749999
1.6024658203125
2.1068115234375
2.2365234375
2.27841796875
2.27841796875
2.2341064453125
2.1213134765625
2.0761962890625
2.0560546875
1.9295654296875
1.893310546875
1.738623046875
1.6564453124999998
1.625830078125
2.98740234375
3.0252685546875
3.029296875
3.027685546875
3.02607421875
3.0236572265625
3.01962890625
2.080224609375
1.332568359375
0.77666015625
0.2513671875
0.022558593749999998
0.02578125
0.0459228515625
0.13212890624999998
0.214306640625
0.28359375
0.3875244140625
0.45439453124999996
0.514013671875
0.5937744140625
0.64775390625
0.704150390625
0.7557128906249999
0.8080810546874999
0.8483642578124999
0.8854248046875
0.9345703125
1.8111328125
2.07861328125
2.3227294921875
2.341259765625
2.3074218749999997
2.3017822265625
2.230078125
2.2147705078124997
2.2429687499999997
2.0890869140625
1.9134521484375
1.7901855468749999
1.6346923828125
1.6234130859375
1.5887695312499999
3.0309082031249996
3.02607421875
3.02607421875
3.0228515624999996
3.0268798828124996
2.979345703125
2.2937255859375
1.3075927734375
0.7500732421874999
0.2956787109375
0.0217529296875
0.023364257812499997
0.024169921875
0.059619140625
0.16838378906249998
0.2537841796875
0.32951660156249996
0.3988037109375
0.48662109374999996
0.5454345703125
0.6050537109374999
0.6759521484375
0.7283203125
0.7734375
0.833056640625
0.8709228515624999
0.9095947265625
1.7047851562499998
2.118896484375
2.2083251953125
2.2792236328124997
2.2292724609375
2.2107421874999997
2.199462890625
2.1543457031249997
2.08505859375
2.0262451171875
1.9392333984374999
1.767626953125
1.6564453124999998
1.6129394531249999
1.4397216796874999
3.02607421875
3.0309082031249996
3.027685546875
3.0317138671875
3.0268798828124996
3.0228515624999996
2.3565673828125
1.538818359375
0.9208740234374999
0.34160156249999996
0.02578125
0.020947265625
0.022558593749999998
0.11279296875
0.20302734374999998
0.26828613281249997
0.36899414062499997
0.43344726562499997
0.4970947265625
0.575244140625
0.6348632812499999
0.68642578125
0.7404052734375
0.7984130859374999
0.8370849609375
0.8805908203124999
0.9321533203125
1.4630859374999998
1.8699462890624998
2.07216796875
2.238134765625
2.0665283203125
2.0471923828125
2.0254394531249997
1.993212890625
1.977099609375
1.783740234375
1.7555419921875
1.8014648437499998
1.8908935546874999
1.843359375
1.786962890625
3.0301025390625
3.029296875
3.0244628906249997
3.0252685546875
3.02607421875
3.02607421875
2.521728515625
1.7442626953125
0.984521484375
0.41008300781249996
0.0249755859375
0.024169921875
0.0249755859375
0.08942871093749999
0.19658203124999998
0.278759765625
0.34965820312499996
0.42216796874999996
0.5083740234374999
0.5647705078124999
0.6243896484375
0.6968994140625
0.7412109375
0.7879394531249999
0.8483642578124999
0.8854248046875
0.9192626953124999
0.9563232421875
2.0101318359375
2.1744873046874997
2.2147705078124997
2.1221191406249997
2.08828125
2.0552490234375
2.0552490234375
1.8755859375
1.7821289062499999
1.7490966796874998
1.6773925781249999
1.706396484375
1.5839355468749998
1.5025634765625
3.0228515624999996
3.0268798828124996
3.0220458984375
3.0236572265625
3.0244628906249997
3.0252685546875
2.5636230468749996
2.1946289062499997
1.4228027343749998
0.646142578125
0.24492187499999998
0.024169921875
0.0104736328125
0.088623046875
0.1732177734375
0.2457275390625
0.35368652343749996
0.4197509765625
0.485009765625
0.5526855468749999
0.620361328125
0.6767578125
0.7299316406249999
0.791162109375
0.8322509765624999
0.8741455078125
0.9095947265625
0.9555175781249999
1.8038818359375
2.11083984375
2.2260498046875
2.2792236328124997
2.17529296875
2.1760986328125
2.0898925781249997
1.899755859375
1.8304687499999999
1.7233154296875
1.6242187499999998
1.571044921875
1.4920898437499999
1.3317626953125
2.34287109375
3.0236572265625
3.0252685546875
3.0309082031249996
3.02607421875
3.0204345703124997
2.8794433593749997
2.2663330078125
1.3978271484375
0.85400390625
0.38913574218749997
0.023364257812499997
0.041088867187499996
0.1313232421875
0.2118896484375
0.32065429687499997
0.38913574218749997
0.45358886718749997
0.53818359375
0.5994140625
0.652587890625
0.7065673828125
0.7710205078125
0.8129150390625
0.8604492187499999
0.91201171875
0.945849609375
0.978076171875
1.7039794921875
2.1003662109375
2.2268554687499997
2.2051025390625
2.205908203125
2.241357421875
2.1454833984375
2.1140624999999997
2.02060546875
1.9400390625
1.8844482421875
1.843359375
1.8022705078124999
1.6951171875
2.31708984375
3.0244628906249997
3.0244628906249997
3.0244628906249997
3.0268798828124996
3.0252685546875
3.0244628906249997
2.222021484375
1.45341796875
0.823388671875
0.17724609375
0.020947265625
0.0201416015625
0.0475341796875
0.15871582031249998
0.24331054687499998
0.3117919921875
0.4125
0.47453613281249996
0.5389892578125
0.613916015625
0.6727294921875
0.7234863281249999
0.7669921875
0.8306396484374999
0.8685058593749999
0.9079833984375
0.9531005859374999
1.7047851562499998
2.0906982421875
2.3138671875
2.3879882812499997
2.384765625
2.3726806640625
2.2880859375
2.23330078125
2.270361328125
2.1164794921875
1.9537353515625
1.8586669921874999
1.6508056640625
1.4864501953125
1.4284423828125
3.02607421875
3.027685546875
3.0301025390625
3.0252685546875
3.0268798828124996
3.02607421875
2.43310546875
1.7901855468749999
0.8362792968749999
0.207861328125
0.026586914062499998
0.023364257812499997
0.027392578124999997
0.0668701171875
0.15468749999999998
0.2618408203125
0.33515625
0.41008300781249996
0.49387207031249997
0.5518798828125
0.6090820312499999
0.6743408203125
0.7283203125
0.77666015625
0.8177490234375
0.8749511718749999
0.9152343749999999
0.9490722656249999
1.96904296875
2.193017578125
2.2808349609375
2.28486328125
2.1873779296875
2.3066162109375
2.189794921875
2.13662109375
2.080224609375
1.8957275390625
1.7909912109375
1.699951171875
1.6137451171875
1.5404296874999999
3.02607421875
3.021240234375
3.0252685546875
3.0236572265625
3.0236572265625
3.0252685546875
2.5144775390625
1.7378173828124999
1.06025390625
0.56396484375
0.02900390625
0.022558593749999998
0.0346435546875
0.0837890625
0.1699951171875
0.246533203125
0.3198486328125
0.41572265625
0.48581542968749997
0.5470458984375
0.6171386718749999
0.6727294921875
0.7210693359375
0.7839111328124999
0.8274169921875
0.8693115234375
0.9079833984375
0.9531005859374999
1.8747802734374999
2.228466796875
2.3871826171875
2.3485107421875
2.408935546875
2.402490234375
2.289697265625
2.26552734375
2.1849609375
2.01416015625
1.9843505859375
1.861083984375
1.6943115234375
1.5887695312499999
2.963232421875
3.0244628906249997
3.0309082031249996
3.0228515624999996
3.0244628906249997
3.0236572265625
2.6216308593749997
1.9835449218749999
0.928125
0.410888671875
0.0362548828125
0.023364257812499997
0.024169921875
0.022558593749999998
0.091845703125
0.2038330078125
0.2827880859375
0.35288085937499997
0.420556640625
0.5019287109375
0.5687988281249999
0.623583984375
0.6904541015625
0.7476562499999999
0.7927734375
0.8338623046875
0.8870361328124999
0.91845703125
1.783740234375
2.1785156249999997
2.2671386718749997
2.2236328125
2.128564453125
2.093115234375
1.996435546875
2.0729736328125
1.9585693359374998
1.88525390625
1.8046875
1.7289550781249998
1.7152587890625
1.64677734375
1.6830322265625
3.0252685546875
3.027685546875
3.02607421875
3.0252685546875
3.021240234375
3.0236572265625
2.1680419921875
1.3978271484375
0.75087890625
0.32951660156249996
0.02578125
0.024169921875
0.022558593749999998
0.124072265625
0.20947265625
0.2811767578125
0.3585205078125
0.44956054687499997
0.515625
0.572021484375
0.6437255859375
0.694482421875
0.7436279296874999
0.78955078125
0.849169921875
0.8886474609374999
0.9249023437499999
1.0320556640625
1.9746826171874998
2.222021484375
2.2429687499999997
2.3017822265625
2.2260498046875
2.2051025390625
2.193017578125
2.128564453125
2.112451171875
1.9053955078125
1.835302734375
1.7217041015624999
1.6306640625
1.5243164062499999
3.0244628906249997
3.0244628906249997
3.02607421875
3.0252685546875
3.02607421875
3.02607421875
2.441162109375
1.6105224609375
0.9869384765625
0.32468261718749997
0.023364257812499997
0.022558593749999998
0.0322265625
0.08217773437499999
0.1740234375
0.2513671875
0.346435546875
0.4189453125
0.47775878906249997
0.5454345703125
0.6195556640625
0.6759521484375
0.7210693359375
0.7871337890625
0.829833984375
0.8701171875
0.9095947265625
1.46630859375
1.819189453125
2.0504150390625
2.1293701171875
2.2083251953125
2.2067138671874997
2.18173828125
2.0600830078125
2.0947265625
1.9843505859375
1.9053955078125
1.8256347656249998
1.796630859375
1.7458740234374999
1.7039794921875
3.0268798828124996
3.0268798828124996
3.02607421875
3.0204345703124997
3.021240234375
3.0268798828124996
2.350927734375
1.8046875
0.8991210937499999
0.5357666015625
0.0636474609375
0.024169921875
0.0201416015625
0.0910400390625
0.1732177734375
0.2747314453125
0.35126953125
0.420556640625
0.48259277343749996
0.562353515625
0.6211669921874999
0.6767578125
0.7226806640625
0.781494140625
0.8322509765624999
0.8709228515624999
0.9224853515625
0.95390625
1.8022705078124999
2.1019775390624997
2.2365234375
2.281640625
2.3195068359374997
2.29775390625
2.2647216796875
2.1632080078125
2.0649169921875
1.896533203125
1.864306640625
1.7619873046874999
1.66611328125
1.5984375
2.7545654296874997
3.02607421875
3.0244628906249997
3.027685546875
3.0236572265625
3.0188232421874996
2.7722900390625
2.18818359375
1.2189697265625
0.6211669921874999
0.15146484375
0.022558593749999998
0.023364257812499997
0.038671874999999994
0.12246093749999999
0.2280029296875
0.307763671875
0.378662109375
0.46728515625
0.5309326171875
0.5857177734375
0.639697265625
0.7114013671874999
0.7541015624999999
0.8024414062499999
0.8451416015625
0.897509765625
0.9385986328125
1.7249267578124998
2.1785156249999997
2.255859375
2.280029296875
2.3098388671875
2.2373291015625
2.2647216796875
2.2236328125
2.2067138671874997
1.9956298828124999
1.899755859375
1.8006591796875
1.62744140625
1.5718505859374998
2.5612060546874997
3.02607421875
3.0244628906249997
3.0228515624999996
3.0244628906249997
3.027685546875
3.02607421875
2.1406494140625
1.368017578125
0.7355712890624999
0.1571044921875
0.027392578124999997
0.0249755859375
0.0249755859375
0.1119873046875
0.18852539062499998
0.2698974609375
0.348046875
0.4358642578125
0.5083740234374999
0.5607421874999999
0.6340576171875
0.6912597656249999
0.7371826171875
0.7863281249999999
0.8427246093749999
0.8830078124999999
0.9176513671875
1.6765869140624998
2.0633056640625
2.2357177734375
2.3775146484375
2.3468994140625
2.273583984375
2.2051025390625
2.0794189453125
2.093115234375
1.925537109375
1.7579589843749999
1.6693359374999999
1.6250244140624999
1.5662109375
1.5122314453124999
3.0228515624999996
3.0244628906249997
3.0252685546875
3.0220458984375
3.0252685546875
3.029296875
2.4516357421875
1.6943115234375
0.9643798828125
0.3391845703125
0.0217529296875
0.0249755859375
0.027392578124999997
0.10634765624999999
0.19013671875
0.269091796875
0.36577148437499996
0.43425292968749996
0.49870605468749996
0.5760498046875
0.6356689453125
0.688037109375
0.736376953125
0.8000244140624999
0.8403076171874999
0.87978515625
0.9168457031249999
1.6967285156249998
1.944873046875
2.1084228515625
2.244580078125
2.1277587890625
2.125341796875
2.0923095703125
2.0439697265625
2.047998046875
2.006103515625
1.948095703125
1.869140625
1.8151611328125
1.65966796875
1.5815185546875
3.0083496093749997
3.0244628906249997
3.02607421875
3.0204345703124997
3.0268798828124996
3.029296875
2.6699707031249997
2.0069091796875
1.069921875
0.4713134765625
0.10957031249999999
0.02578125
0.024169921875
0.08137207031249999
0.167578125
0.275537109375
0.3440185546875
0.41733398437499997
0.48178710937499997
0.56396484375
0.6187499999999999
0.6751464843749999
0.7468505859375
0.791162109375
0.8274169921875
0.8685058593749999
0.9257080078125
0.95068359375
1.7692382812499998
2.14951171875
2.2921142578125
2.3823486328125
2.512060546875
2.425048828125
2.3404541015625
2.3372314453125
2.2260498046875
2.1052001953125
1.9215087890625
1.6765869140624998
1.6411376953124999
1.5863525390625
2.0181884765625
3.0244628906249997
3.0252685546875
3.02607421875
3.0252685546875
3.0236572265625
3.0252685546875
2.0069091796875
1.2157470703125
0.6654785156249999
0.2038330078125
0.02578125
0.023364257812499997
0.024169921875
0.095068359375
0.18369140625
0.25458984375
0.33193359375
0.42539062499999997
0.488232421875
0.5526855468749999
0.610693359375
0.678369140625
0.7275146484374999
0.7734375
0.8322509765624999
0.871728515625
0.9152343749999999
1.6000488281249998
2.1003662109375
2.238134765625
2.2751953124999997
2.231689453125
2.176904296875
2.17529296875
2.1132568359375
2.0133544921874997
1.896533203125
1.8393310546875
1.780517578125
1.6773925781249999
1.6532226562499999
1.869140625
3.0268798828124996
3.027685546875
3.027685546875
3.01962890625
3.0317138671875
3.0268798828124996
2.3146728515625
1.558154296875
0.871728515625
0.2360595703125
0.020947265625
0.020947265625
0.024169921875
0.095068359375
0.18369140625
0.262646484375
0.3359619140625
0.4310302734375
0.491455078125
0.55751953125
0.6276123046875
0.6807861328125
0.7307373046875
0.77666015625
0.8346679687499999
0.8805908203124999
0.913623046875
1.6089111328124999
1.980322265625
2.1760986328125
2.2937255859375
2.2832519531249997
2.1938232421875
2.24619140625
2.1648193359375
2.1438720703125
2.0778076171874997
1.980322265625
1.8699462890624998
1.7732666015624998
1.7007568359374998
1.6177734375
3.0220458984375
3.0252685546875
3.0236572265625
3.0228515624999996
3.02607421875
3.021240234375
2.4766113281249997
1.8151611328125
1.155322265625
0.4600341796875
0.022558593749999998
0.02578125
0.024169921875
0.042700195312499994
0.12568359375
0.20625
0.30937499999999996
0.38510742187499997
0.44956054687499997
0.533349609375
0.588134765625
0.639697265625
0.6993164062499999
0.7621582031249999
0.8104980468749999
0.84755859375
0.88623046875
0.9345703125
1.7732666015624998
2.080224609375
2.2598876953125
2.2679443359375
2.23330078125
2.1535400390625
2.1462890624999997
2.0657226562499997
2.0794189453125
1.8957275390625
1.8071044921875
1.72412109375
1.6765869140624998
1.5815185546875
2.9068359375
3.021240234375
3.0268798828124996
3.0244628906249997
3.0236572265625
3.0236572265625
2.721533203125
1.989990234375
0.9869384765625
0.44633789062499996
0.0515625
0.020947265625
0.023364257812499997
0.08137207031249999
0.1699951171875
0.2795654296875
0.3520751953125
0.423779296875
0.48662109374999996
0.5607421874999999
0.6251953124999999
0.678369140625
0.7412109375
0.78955078125
0.8314453125
0.8741455078125
0.9216796875
0.9571289062499999
1.716064453125
2.1503173828124997
2.27841796875
2.392822265625
2.3477050781249997
2.2953369140624997
2.1954345703125
2.1760986328125
2.0149658203125
1.9231201171874999
1.8409423828125
1.7660156249999999
1.603271484375
1.522705078125
1.5170654296875
3.02607421875
3.0252685546875
3.0220458984375
3.029296875
3.0252685546875
3.02607421875
2.1068115234375
1.351904296875
0.749267578125
0.3279052734375
0.0217529296875
0.0217529296875
0.02578125
0.1345458984375
0.21672363281249998
0.29326171875
0.3665771484375
0.45842285156249996
0.517236328125
0.578466796875
0.6566162109375
0.7033447265624999
0.7484619140625
0.8000244140624999
0.85400390625
0.8934814453125
0.929736328125
0.9635742187499999
1.85625
1.9013671875
1.92392578125
2.0633056640625
2.012548828125
1.9472900390624999
1.9617919921875
1.9625976562499998
1.9787109374999998
1.909423828125
1.7466796875
1.658056640625
1.6185791015625
1.5807128906249999
3.02607421875
3.02607421875
3.0268798828124996
3.0244628906249997
3.0309082031249996
3.0252685546875
2.44599609375
1.7313720703125
1.0828125
0.42941894531249997
0.02900390625
0.022558593749999998
0.08620605468749999
0.167578125
0.2441162109375
0.32548828124999996
0.420556640625
0.48581542968749997
0.5438232421875
0.604248046875
0.6807861328125
0.7234863281249999
0.7710205078125
0.8258056640625
0.8741455078125
0.9087890624999999
0.9490722656249999
0.992578125
1.944873046875
2.2840576171875
2.3904052734375
2.425048828125
2.273583984375
2.1978515625
2.11728515625
2.0375244140624997
1.9190917968749999
1.7748779296875
1.7418457031249999
1.6886718749999998
1.619384765625
1.6072998046875
3.0164062499999997
3.0236572265625
3.0252685546875
3.027685546875
3.027685546875
3.0244628906249997
2.4443847656249997
1.8369140625
0.863671875
0.3552978515625
0.0249755859375
0.023364257812499997
0.033837890625
0.1232666015625
0.19899902343749998
0.2972900390625
0.37382812499999996
0.44553222656249997
0.50595703125
0.5873291015625
0.6405029296875
0.69609375
0.7597412109374999
0.8000244140624999
0.84111328125
0.887841796875
0.9353759765624999
0.9708251953125
1.9078125
2.2308837890624997
2.43955078125
2.4282714843749997
2.4016845703125
2.410546875
2.2856689453125
2.1664306640624997
2.0898925781249997
1.8989501953124999
1.7861572265624999
1.7450683593749998
1.6000488281249998
1.5726562499999999
2.3630126953125
3.0220458984375
3.0268798828124996
3.02607421875
3.0268798828124996
3.027685546875
2.9205322265625
2.1777099609375
1.1408203125
0.6485595703125
0.1571044921875
0.026586914062499998
0.022558593749999998
0.023364257812499997
0.10231933593749999
0.2118896484375
0.2989013671875
0.3673828125
0.45761718749999997
0.5164306640624999
0.578466796875
0.6356689453125
0.704150390625
0.752490234375
0.8000244140624999
0.8531982421875
0.889453125
0.929736328125
1.7055908203124999
2.126953125
2.2647216796875
2.2494140625
2.37509765625
2.3323974609375
2.3243408203125
2.4065185546875
2.2695556640625
2.189794921875
1.9593749999999999
1.85947265625
1.7579589843749999
1.6330810546874999
2.17529296875
3.0268798828124996
3.0301025390625
3.02607421875
3.0228515624999996
3.021240234375
3.029296875
2.231689453125
1.4219970703125
0.833056640625
0.20061035156249998
0.0217529296875
0.026586914062499998
0.02578125
0.043505859375
0.127294921875
0.21269531249999998
0.31340332031249996
0.38188476562499996
0.44553222656249997
0.510791015625
0.591357421875
0.64775390625
0.6977050781249999
0.742822265625
0.8064697265624999
0.8507812499999999
0.8846191406249999
1.5911865234375
1.98515625
2.1849609375
2.2268554687499997
2.180126953125
2.1664306640624997
2.228466796875
2.08828125
2.1068115234375
1.9714599609374999
1.8361083984375
1.812744140625
1.783740234375
1.651611328125
1.5484863281249999
3.02607421875
3.0317138671875
3.0244628906249997
3.0244628906249997
3.02607421875
3.02607421875
2.3452880859375
1.80791015625
0.91845703125
0.3794677734375
0.022558593749999998
0.026586914062499998
0.024169921875
0.049951171875
0.136962890625
0.217529296875
0.32065429687499997
0.394775390625
0.4552001953125
0.539794921875
0.5937744140625
0.6509765624999999
0.704150390625
0.765380859375
0.807275390625
0.855615234375
0.8950927734374999
0.942626953125
1.93359375
2.1873779296875
2.2389404296874997
2.209130859375
2.2469970703124997
2.2115478515625
2.215576171875
2.176904296875
2.14951171875
1.973876953125
1.8844482421875
1.786962890625
1.748291015625
1.622607421875
2.9849853515625
3.0236572265625
3.029296875
3.021240234375
3.0244628906249997
3.0252685546875
2.5434814453124996
1.9956298828124999
1.0513916015625
0.456005859375
0.11762695312499999
0.017724609375
0.019335937499999997
0.0201416015625
0.0958740234375
0.20947265625
0.28681640625
0.35690917968749997
0.42539062499999997
0.514013671875
0.5712158203125
0.6276123046875
0.6968994140625
0.7476562499999999
0.791162109375
0.8354736328125
0.887841796875
0.9257080078125
1.6024658203125
2.126953125
2.2695556640625
2.2840576171875
2.3235351562499997
2.2913085937499997
2.2840576171875
2.1599853515625
2.0947265625
1.9424560546874998
1.9472900390624999
1.7466796875
1.64677734375
1.5251220703125
1.461474609375
3.0244628906249997
3.021240234375
3.0236572265625
3.0268798828124996
3.0268798828124996
3.02607421875
2.2244384765625
1.42119140625
0.8668945312499999
0.4189453125
0.017724609375
0.020947265625
0.02578125
0.07814941406249999
0.169189453125
0.24895019531249998
0.32468261718749997
0.41572265625
0.4842041015625
0.5454345703125
0.620361328125
0.6703125
0.7226806640625
0.7734375
0.8290283203125
0.8693115234375
0.9047607421874999
1.7362060546875
2.14951171875
2.34931640625
2.4145751953125
2.333203125
2.2711669921874997
2.29453125
2.1865722656249997
2.1333984375
2.015771484375
1.843359375
1.65966796875
1.5984375
1.56298828125
1.5033691406249998
3.02607421875
3.0220458984375
3.0252685546875
3.02607421875
3.0268798828124996
3.0244628906249997
2.415380859375
1.6177734375
0.8910644531249999
0.2811767578125
0.0217529296875
0.022558593749999998
0.017724609375
0.049951171875
0.1345458984375
0.2183349609375
0.3158203125
0.3907470703125
0.46164550781249997
0.5212646484375
0.597802734375
0.6501708984375
0.700927734375
0.7669921875
0.80888671875
0.8531982421875
0.8886474609374999
1.3728515625
1.848193359375
2.1462890624999997
2.29775390625
2.2832519531249997
2.3267578125
2.354150390625
2.215576171875
2.1825439453124997
2.115673828125
1.9634033203124999
1.877197265625
1.812744140625
1.6725585937499998
1.6298583984375
3.02607421875
3.0268798828124996
3.0268798828124996
3.0204345703124997
3.0252685546875
3.02607421875
2.5894042968749997
1.9545410156249998
1.0610595703124999
0.5341552734375
0.146630859375
0.0217529296875
0.020947265625
0.024169921875
0.069287109375
0.17885742187499998
0.26022949218749997
0.3311279296875
0.40283203125
0.48984374999999997
0.5526855468749999
0.6090820312499999
0.668701171875
0.7259033203124999
0.7968017578125
0.8209716796875
0.8741455078125
0.910400390625
1.8417480468749998
2.15595703125
2.318701171875
2.328369140625
2.3485107421875
2.2953369140624997
2.318701171875
2.3533447265625
2.225244140625
2.0334960937499997
1.964208984375
1.8900878906249998
1.861083984375
1.8014648437499998
2.711865234375
3.0244628906249997
3.0228515624999996
3.0268798828124996
3.02607421875
3.02607421875
2.9068359375
2.0947265625
1.0884521484375
0.6260009765625
0.0668701171875
0.026586914062499998
0.0281982421875
0.022558593749999998
0.037060546874999996
0.11440429687499999
0.1998046875
0.275537109375
0.37302246093749997
0.4390869140625
0.5051513671875
0.5776611328125
0.6405029296875
0.6920654296875
0.736376953125
0.8000244140624999
0.8354736328125
0.878173828125
1.7893798828124998
2.12373046875
2.2590820312499997
2.3307861328125
2.3178955078125
2.241357421875
2.20751953125
2.0681396484375
1.9585693359374998
1.844970703125
1.786962890625
1.72734375
1.6306640625
1.545263671875
2.180126953125
3.0252685546875
3.02607421875
3.027685546875
3.0301025390625
3.0244628906249997
3.01962890625
2.2663330078125
1.490478515625
0.8338623046875
0.217529296875
0.0249755859375
0.017724609375
0.026586914062499998
0.104736328125
0.1877197265625
0.2666748046875
0.36577148437499996
0.43022460937499996
0.4962890625
0.578466796875
0.6308349609374999
0.67998046875
0.7355712890624999
0.7951904296875
0.8314453125
0.8765624999999999
0.929736328125
1.5541259765625
1.993212890625
2.199462890625
2.26875
2.263916015625
2.2002685546875
2.1744873046874997
2.1744873046874997
2.1205078125
2.0625
1.9392333984374999
1.8498046874999998
1.7926025390625
1.703173828125
1.6137451171875
3.0252685546875
3.029296875
3.029296875
3.029296875
3.0268798828124996
3.0252685546875
2.6772216796875
1.9005615234375
1.0409179687499999
0.620361328125
0.1957763671875
0.0169189453125
0.026586914062499998
0.0249755859375
0.0797607421875
0.1877197265625
0.27231445312499997
0.339990234375
0.4318359375
0.4954833984375
0.5551025390625
0.6131103515624999
0.6920654296875
0.734765625
0.7822998046874999
0.839501953125
0.8805908203124999
0.9152343749999999
1.780517578125
2.096337890625
2.147900390625
2.183349609375
2.2083251953125
2.19140625
2.0729736328125
1.941650390625
1.9231201171874999
1.7724609375
1.7668212890625
1.71123046875
1.654833984375
1.6290527343749999
3.02607421875
3.02607421875
3.02607421875
3.02607421875
3.02607421875
3.01962890625
2.60712890625
1.7442626953125
0.9716308593749999
0.501123046875
0.023364257812499997
0.026586914062499998
0.023364257812499997
0.0845947265625
0.19497070312499998
0.2779541015625
0.34482421874999997
0.4390869140625
0.501123046875
0.5696044921875
0.639697265625
0.69287109375
0.742822265625
0.7879394531249999
0.8507812499999999
0.87978515625
0.9232910156249999
1.0417236328125
1.9682373046875
2.1970458984375
2.33642578125
2.34931640625
2.276806640625
2.32998046875
2.2486083984375
2.2308837890624997
2.167236328125
2.0310791015625
1.909423828125
1.843359375
1.7474853515625
1.6072998046875
2.956787109375
3.02607421875
3.02607421875
3.029296875
3.0252685546875
3.0309082031249996
2.6490234375
2.1406494140625
1.3599609375
0.5857177734375
0.20061035156249998
0.024169921875
0.022558593749999998
0.020947265625
0.058813476562499994
0.17241210937499998
0.2513671875
0.3230712890625
0.39719238281249997
0.4842041015625
0.546240234375
0.6002197265625
0.6743408203125
0.7242919921875
0.7734375
0.81533203125
0.8709228515624999
0.9087890624999999
1.5734619140625
2.0898925781249997
2.2792236328124997
2.3452880859375
2.3525390625
2.3726806640625
2.247802734375
2.2969482421875
2.257470703125
2.0181884765625
1.9400390625
1.7289550781249998
1.64677734375
1.5243164062499999
2.7972656249999996
3.0301025390625
3.02607421875
3.0244628906249997
3.0252685546875
3.0236572265625
3.027685546875
2.1535400390625
1.3551269531249999
0.8129150390625
0.1732177734375
0.024169921875
0.0217529296875
0.023364257812499997
0.053173828124999996
0.143408203125
0.21672363281249998
0.322265625
0.388330078125
0.459228515625
0.517236328125
0.5986083984375
0.6493652343749999
0.6968994140625
0.7677978515624999
0.80888671875
0.8515869140625
0.9047607421874999
1.7257324218749999
2.1760986328125
2.34609375
2.434716796875
2.39443359375
2.3420654296875
2.2921142578125
2.2623046875
2.1849609375
1.964208984375
1.8570556640625
1.703173828125
1.6564453124999998
1.5557373046874998
1.5202880859374999
3.0244628906249997
3.027685546875
3.02607421875
3.0220458984375
3.0252685546875
3.02607421875
2.325146484375
1.60166015625
0.6872314453124999
0.2666748046875
0.023364257812499997
0.0201416015625
0.0249755859375
0.033032226562499996
0.1087646484375
0.2199462890625
0.3037353515625
0.3714111328125
0.4568115234375
0.5228759765625
0.5760498046875
0.6517822265625
0.6993164062499999
0.7532958984375
0.797607421875
0.8572265625
0.894287109375
1.6830322265625
2.0278564453125
2.193017578125
2.3138671875
2.334814453125
2.3195068359374997
2.2969482421875
2.1696533203125
2.0987548828125
1.9625976562499998
1.803076171875
1.67900390625
1.5839355468749998
1.490478515625
1.3639892578125
3.0244628906249997
3.0268798828124996
3.0252685546875
3.0252685546875
3.0236572265625
3.0228515624999996
2.3581787109375
1.5484863281249999
0.8386962890624999
0.291650390625
0.0281982421875
0.0169189453125
0.020947265625
0.1200439453125
0.20625
0.2811767578125
0.38107910156249997
0.4447265625
0.510791015625
0.572021484375
0.6437255859375
0.69609375
0.7412109375
0.8056640625
0.84755859375
0.887841796875
0.9337646484375
0.9724365234375
1.899755859375
2.0858642578124997
2.2429687499999997
2.1978515625
2.1865722656249997
2.244580078125
2.24619140625
2.2953369140624997
2.152734375
1.9948242187499998
1.8304687499999999
1.786962890625
1.7450683593749998
1.72412109375
3.02607421875
3.029296875
3.0268798828124996
3.02607421875
3.0228515624999996
3.0301025390625
2.4564697265624997
1.9110351562499999
0.9232910156249999
0.48581542968749997
0.064453125
0.022558593749999998
0.026586914062499998
0.059619140625
0.14421386718749998
0.252978515625
0.3279052734375
0.39719238281249997
0.4833984375
0.546240234375
0.60263671875
0.6582275390625
0.726708984375
0.7734375
0.8161376953124999
0.8725341796874999
0.910400390625
0.9434326171874999
1.9134521484375
2.2196044921875
2.32998046875
2.3420654296875
2.2647216796875
2.2026855468749997
2.083447265625
1.977099609375
1.8925048828125
1.7845458984375
1.6975341796874999
1.662890625
1.6322753906249998
1.5654052734375
3.0244628906249997
3.0309082031249996
3.0244628906249997
3.0268798828124996
3.02607421875
3.01962890625
2.6369384765625
2.0262451171875
1.2101074218749999
0.671923828125
0.18288574218749998
0.02578125
0.0249755859375
0.0708984375
0.1619384765625
0.240087890625
0.3391845703125
0.40202636718749996
0.4713134765625
0.5373779296875
0.6131103515624999
0.6703125
0.7178466796874999
0.7790771484375
0.825
0.8644775390624999
0.90556640625
0.95068359375
1.812744140625
2.11728515625
2.1857666015625
2.199462890625
2.2808349609375
2.3130615234375
2.18818359375
2.20107421875
2.19140625
2.0262451171875
1.957763671875
1.8635009765625
1.7281494140625
1.6443603515624998
2.302587890625
3.029296875
3.027685546875
3.0228515624999996
3.0228515624999996
3.02607421875
2.9986816406249996
2.25263671875
1.3083984375
0.720263671875
0.2860107421875
0.022558593749999998
0.0201416015625
0.02900390625
0.057202148437499996
0.191748046875
0.2715087890625
0.34482421874999997
0.43425292968749996
0.5003173828124999
0.5631591796875
0.6179443359375
0.6896484374999999
0.734765625
0.7806884765625
0.8427246093749999
0.8789794921874999
0.91845703125
1.6266357421875
2.0955322265625
2.2486083984375
2.3525390625
2.2824462890625
2.228466796875
2.2510253906249997
2.2614990234375
2.18173828125
2.1068115234375
1.9384277343749998
1.8489990234375
1.79501953125
1.77568359375
2.0431640625
3.029296875
3.02607421875
3.0236572265625
3.0236572265625
3.0228515624999996
3.0107666015624996
2.3203125
1.4977294921875
0.9168457031249999
0.356103515625
0.024169921875
0.023364257812499997
0.022558593749999998
0.045117187499999996
0.1248779296875
0.2102783203125
0.30937499999999996
0.3843017578125
0.4471435546875
0.5325439453124999
0.5921630859375
0.6485595703125
0.7146240234375
0.7581298828124999
0.8048583984375
0.8507812499999999
0.9031494140624999
1.6000488281249998
1.9924072265625
2.3517333984374997
2.410546875
2.34609375
2.2824462890625
2.2324951171875
2.1809326171875
2.1970458984375
2.086669921875
1.9730712890625
1.9005615234375
1.751513671875
1.6459716796875
1.5162597656249999
3.02607421875
3.0309082031249996
3.0236572265625
3.0252685546875
3.0244628906249997
3.021240234375
2.3452880859375
1.46630859375
0.8354736328125
0.30454101562499997
0.019335937499999997
0.018530273437499998
0.022558593749999998
0.0362548828125
0.1490478515625
0.2263916015625
0.3053466796875
0.37785644531249996
0.4640625
0.52529296875
0.5873291015625
0.6574218749999999
0.7146240234375
0.758935546875
0.8104980468749999
0.8596435546875
0.894287109375
0.9313476562499999
1.93359375
2.1809326171875
2.1970458984375
2.2631103515624997
2.2115478515625
2.2502197265625
2.14306640625
2.0761962890625
2.03671875
1.8143554687499999
1.7466796875
1.6363037109374998
1.5243164062499999
1.3728515625
3.0244628906249997
3.0268798828124996
3.0284912109374997
3.0252685546875
3.018017578125
3.0220458984375
2.5168945312499997
1.8199951171875
1.1206787109375
0.47050781249999996
0.038671874999999994
0.018530273437499998
0.023364257812499997
0.107958984375
0.1941650390625
0.2795654296875
0.37060546875
0.436669921875
0.50595703125
0.5663818359375
0.6413085937499999
0.6912597656249999
0.7412109375
0.800830078125
0.8443359374999999
0.8838134765625
0.936181640625
0.9635742187499999
1.8747802734374999
2.1922119140625
2.3146728515625
2.286474609375
2.2663330078125
2.2727783203125
2.2905029296875
2.21396484375
2.209130859375
2.0036865234375
1.8876708984375
1.82080078125
1.716064453125
1.6008544921874999
2.827880859375
3.027685546875
3.0244628906249997
3.02607421875
3.0268798828124996
3.0228515624999996
2.6135742187499997
2.0971435546875
1.0489746093749999
0.49790039062499997
0.0717041015625
0.018530273437499998
0.022558593749999998
0.043505859375
0.124072265625
0.2384765625
0.3117919921875
0.3794677734375
0.472119140625
0.533349609375
0.58974609375
0.64775390625
0.717041015625
0.7613525390625
0.8080810546874999
0.8660888671875
0.9047607421874999
0.9345703125
1.8860595703124998
2.1180908203124997
2.2534423828125
2.25263671875
2.12373046875
2.126953125
2.0455810546874997
2.0004638671875
1.9658203125
1.8602783203125
1.683837890625
1.60166015625
1.49853515625
1.4800048828124999
2.640966796875
3.0220458984375
3.0244628906249997
3.0244628906249997
3.0252685546875
3.0204345703124997
2.8496337890624996
2.14306640625
1.4228027343749998
0.8346679687499999
0.29648437499999997
0.017724609375
0.017724609375
0.120849609375
0.201416015625
0.28359375
0.37705078124999997
0.44230957031249996
0.5115966796875
0.5687988281249999
0.6453369140624999
0.7001220703125
0.7452392578125
0.80888671875
0.849169921875
0.88623046875
0.9257080078125
0.9724365234375
1.587158203125
1.9924072265625
2.1680419921875
2.2727783203125
2.3203125
2.2324951171875
2.2083251953125
2.230078125
2.222021484375
2.0536376953124997
1.9940185546875
1.8812255859375
1.7080078125
1.6040771484374998
1.5484863281249999
3.0301025390625
3.0244628906249997
3.0228515624999996
3.0301025390625
3.02607421875
3.02607421875
2.454052734375
1.3849365234375
0.7541015624999999
0.34079589843749997
0.022558593749999998
0.020947265625
0.026586914062499998
0.104736328125
0.2102783203125
0.28842773437499997
0.3673828125
0.451171875
0.5180419921875
0.5760498046875
0.6332519531249999
0.6993164062499999
0.7452392578125
0.8024414062499999
0.85400390625
0.889453125
0.9345703125
1.1617675781249999
2.0455810546874997
2.2276611328125
2.1760986328125
2.2276611328125
2.1648193359375
2.1785156249999997
2.1052001953125
2.0625
1.9650146484375
1.8554443359375
1.791796875
1.6830322265625
1.6000488281249998
1.4687255859375
3.02607421875
3.0244628906249997
3.0252685546875
3.02607421875
3.0252685546875
3.0309082031249996
2.2590820312499997
1.4864501953125
0.768603515625
0.175634765625
0.027392578124999997
0.023364257812499997
0.0926513671875
0.17885742187499998
0.2618408203125
0.3279052734375
0.42619628906249996
0.49064941406249996
0.55107421875
0.631640625
0.6791748046874999
0.7315429687499999
0.7943847656249999
0.8346679687499999
0.8773681640625
0.913623046875
0.9603515625
1.6814208984374999
1.9787109374999998
2.19140625
2.24619140625
2.244580078125
2.1777099609375
2.11728515625
2.102783203125
2.067333984375
1.9916015624999999
1.8949218749999999
1.78857421875
1.67578125
1.5597656249999998
1.393798828125
3.0252685546875
3.0236572265625
3.0268798828124996
3.0236572265625
3.0309082031249996
3.02607421875
2.441162109375
1.67578125
0.9732421874999999
0.50595703125
0.10957031249999999
0.024169921875
0.06767578125
0.1538818359375
0.2586181640625
0.33354492187499996
0.40605468749999996
0.4125
0.554296875
0.6131103515624999
0.6678955078125
0.7387939453125
0.7790771484375
0.8177490234375
0.881396484375
0.9112060546874999
0.95068359375
0.98291015625
1.883642578125
2.1664306640624997
2.257470703125
2.276806640625
2.241357421875
2.2292724609375
2.1462890624999997
2.093115234375
2.0496093749999997
1.9891845703125
1.964208984375
1.7797119140625
1.7410400390624998
1.6209960937499999
3.0228515624999996
3.0236572265625
3.029296875
3.027685546875
3.0268798828124996
3.02607421875
2.4645263671874997
1.9472900390624999
1.1529052734375
0.451171875
0.0684814453125
0.022558593749999998
0.0322265625
0.116015625
0.19497070312499998
0.2771484375
0.372216796875
0.4439208984375
0.5043457031249999
0.5841064453125
0.6380859375
0.6904541015625
0.734765625
0.8000244140624999
0.8467529296874999
0.8838134765625
0.936181640625
0.9651855468749999
1.79501953125
2.1978515625
2.2751953124999997
2.3315917968749997
2.29453125
2.1704589843749997
2.067333984375
2.118896484375
1.9150634765624999
1.893310546875
1.8046875
1.7015624999999999
1.609716796875
1.5106201171875
1.88525390625
3.0228515624999996
3.0252685546875
3.0204345703124997
3.0252685546875
3.027685546875
2.9753173828125
2.0133544921874997
1.2777832031249998
0.75087890625
0.32145996093749996
0.0249755859375
0.022558593749999998
0.0878173828125
0.20463867187499998
0.285205078125
0.35771484374999996
0.45358886718749997
0.5099853515625
0.5728271484374999
0.6292236328124999
0.6968994140625
0.74443359375
0.7935791015625
0.8507812499999999
0.8926757812499999
0.9273193359374999
0.9651855468749999
1.7990478515625
2.064111328125
2.2760009765625
2.328369140625
2.3275634765624997
2.2502197265625
2.13984375
2.128564453125
2.0536376953124997
1.941650390625
1.8635009765625
1.714453125
1.6379150390625
1.5202880859374999
1.77890625
3.029296875
3.02607421875
3.0244628906249997
3.0252685546875
3.0228515624999996
3.0268798828124996
2.3396484374999997
1.5565429687499999
0.7194580078124999
0.23525390624999998
0.022558593749999998
0.024169921875
0.0555908203125
0.141796875
0.22719726562499998
0.3230712890625
0.3955810546875
0.46083984375
0.5438232421875
0.6010253906249999
0.6630615234374999
0.7154296874999999
0.7774658203125
0.813720703125
0.855615234375
0.9095947265625
0.942626953125
1.4316650390624999
1.980322265625
2.215576171875
2.263916015625
2.2051025390625
2.1325927734375
2.075390625
1.993212890625
1.9327880859375
1.8884765625
1.8175781249999998
1.7732666015624998
1.6427490234375
1.5267333984375
1.4840332031249999
3.0252685546875
3.027685546875
3.0252685546875
3.0244628906249997
3.0204345703124997
3.021240234375
2.4685546874999997
1.606494140625
0.9313476562499999
0.533349609375
0.07814941406249999
0.024169921875
0.0717041015625
0.1861083984375
0.2578125
0.33676757812499997
0.40927734374999997
0.4922607421875
0.55751953125
0.6098876953125
0.68642578125
0.7355712890624999
0.77666015625
0.8282226562499999
0.8773681640625
0.9168457031249999
0.9563232421875
1.7450683593749998
1.980322265625
2.205908203125
2.3211181640625
2.225244140625
2.1865722656249997
2.128564453125
2.115673828125
2.0898925781249997
1.9182861328124998
1.7934082031249998
1.7297607421874999
1.6153564453125
1.4671142578124998
1.4066894531249998
3.0252685546875
3.027685546875
3.021240234375
3.029296875
3.0301025390625
3.0244628906249997
2.3879882812499997
1.8409423828125
0.88623046875
0.38188476562499996
0.018530273437499998
0.0201416015625
0.09829101562499999
0.18369140625
0.26828613281249997
0.359326171875
0.43022460937499996
0.49790039062499997
0.575244140625
0.6308349609374999
0.68642578125
0.7412109375
0.7935791015625
0.837890625
0.8765624999999999
0.9313476562499999
0.966796875
0.9958007812499999
1.84013671875
2.0939208984374997
2.160791015625
2.2026855468749997
2.1003662109375
2.12373046875
2.1221191406249997
2.14306640625
1.9795166015624999
1.8659179687499998
1.7692382812499998
1.6910888671875
1.6395263671875
1.5726562499999999
3.027685546875
3.02607421875
3.0252685546875
3.02607421875
3.0228515624999996
3.021240234375
2.5877929687499996
1.8377197265624998
1.1996337890625
0.5937744140625
0.040283203125
0.026586914062499998
0.0620361328125
0.095068359375
0.2578125
0.33354492187499996
0.40122070312499997
0.488232421875
0.5518798828125
0.607470703125
0.6823974609375
0.7299316406249999
0.7782714843749999
0.8193603515625
0.8773681640625
0.9192626953124999
0.952294921875
0.9949951171875
1.786962890625
2.0536376953124997
2.2510253906249997
2.26552734375
2.2341064453125
2.2357177734375
2.2244384765625
2.1720703125
2.1309814453125
1.9762939453125
1.896533203125
1.80791015625
1.622607421875
1.5597656249999998
2.6280761718749996
3.021240234375
3.0236572265625
3.029296875
3.021240234375
3.0284912109374997
2.8045166015625
2.1277587890625
1.1110107421875
0.597802734375
0.217529296875
0.0217529296875
0.0249755859375
0.09829101562499999
0.19658203124999998
0.2892333984375
0.3601318359375
0.42861328125
0.515625
0.5736328125
0.6332519531249999
0.6840087890625
0.7452392578125
0.7943847656249999
0.8386962890624999
0.8910644531249999
0.9321533203125
0.9635742187499999
1.6846435546874998
2.07216796875
2.13984375
2.1865722656249997
2.2534423828125
2.19140625
2.115673828125
2.0197998046875
1.9400390625
1.8651123046875
1.7603759765625
1.6854492187499999
1.6081054687499998
1.56298828125
2.55234375
3.027685546875
3.0268798828124996
3.0220458984375
3.0268798828124996
3.0268798828124996
3.02607421875
2.2695556640625
1.4510009765624998
0.7379882812499999
0.1506591796875
0.023364257812499997
0.0249755859375
0.111181640625
0.1973876953125
0.2771484375
0.3520751953125
0.443115234375
0.50595703125
0.5696044921875
0.6429199218749999
0.6952880859374999
0.7420166015624999
0.7855224609375
0.8451416015625
0.88623046875
0.9257080078125
0.9732421874999999
1.6201904296874998
1.9698486328125
2.1760986328125
2.3138671875
2.3420654296875
2.27197265625
2.1970458984375
2.2228271484374997
2.0488037109375
1.9537353515625
1.8586669921874999
1.7531249999999998
1.6250244140624999
1.625830078125
1.6371093749999999
3.0204345703124997
3.0204345703124997
3.0268798828124996
3.0284912109374997
3.027685546875
3.0244628906249997
2.4661376953125
1.77568359375
0.855615234375
0.4125
0.0555908203125
0.026586914062499998
0.0378662109375
0.1168212890625
0.22478027343749998
0.30454101562499997
0.37705078124999997
0.4447265625
0.533349609375
0.5905517578125
0.6437255859375
0.71220703125
0.760546875
0.8048583984375
0.845947265625
0.8991210937499999
0.9418212890625
0.9676025390624999
1.9432617187499999
2.1954345703125
2.302587890625
2.2679443359375
2.2163818359375
2.152734375
2.1422607421874997
2.1221191406249997
2.047998046875
1.9327880859375
1.7926025390625
1.71123046875
1.66611328125
1.5436523437499998
3.0244628906249997
3.0301025390625
3.0252685546875
3.027685546875
3.0252685546875
3.02607421875
2.341259765625
1.6773925781249999
0.9514892578124999
0.4439208984375
0.027392578124999997
0.019335937499999997
0.0281982421875
0.1345458984375
0.2183349609375
0.29245605468749997
0.37060546875
0.459228515625
0.52529296875
0.578466796875
0.652587890625
0.7025390625
0.7565185546875
0.8064697265624999
0.8564208984374999
0.8926757812499999
0.9313476562499999
1.252001953125
1.883642578125
2.1664306640624997
2.2695556640625
2.2502197265625
2.23330078125
2.2357177734375
2.1720703125
2.0737792968749997
1.9529296875
1.843359375
1.7313720703125
1.6717529296875
1.6137451171875
1.525927734375
2.8641357421875
3.0228515624999996
3.0236572265625
3.0244628906249997
3.0284912109374997
3.027685546875
2.5467041015625
2.0052978515624997
0.961962890625
0.4922607421875
0.1393798828125
0.023364257812499997
0.0475341796875
0.127294921875
0.214306640625
0.310986328125
0.388330078125
0.4519775390625
0.5373779296875
0.5937744140625
0.6509765624999999
0.7017333984374999
0.7677978515624999
0.8096923828125
0.85400390625
0.910400390625
0.9418212890625
0.974853515625
1.6685302734374998
2.205908203125
2.318701171875
2.3597900390624997
2.3130615234375
2.257470703125
2.1664306640624997
2.1624023437499997
2.064111328125
1.98193359375
1.9021728515624998
1.861083984375
1.7289550781249998
1.5895751953125
2.921337890625
3.02607421875
3.0252685546875
3.0236572265625
3.0244628906249997
3.02607421875
3.0228515624999996
2.012548828125
1.2930908203125
0.720263671875
0.0708984375
0.0217529296875
0.023364257812499997
0.072509765625
0.15227050781249998
0.23928222656249998
0.31340332031249996
0.40927734374999997
0.47373046874999997
0.5365722656249999
0.6123046875
0.6695068359374999
0.7162353515625
0.760546875
0.8266113281249999
0.8628662109374999
0.9047607421874999
0.9466552734375
1.6846435546874998
2.093115234375
2.2518310546875
2.2727783203125
2.2985595703125
2.2437744140625
2.112451171875
2.1873779296875
2.1793212890625
1.9891845703125
1.8167724609375
1.7176757812499999
1.6379150390625
1.545263671875
1.5839355468749998
3.0244628906249997
3.0244628906249997
3.02607421875
3.021240234375
3.0268798828124996
2.985791015625
2.1785156249999997
1.40830078125
0.5696044921875
0.17080078124999998
0.022558593749999998
0.023364257812499997
0.09345703124999999
0.1740234375
0.281982421875
0.3520751953125
0.420556640625
0.485009765625
0.5663818359375
0.6227783203124999
0.6759521484375
0.7379882812499999
0.7879394531249999
0.829833984375
0.8765624999999999
0.9216796875
0.9579345703125
1.6798095703125
1.996435546875
2.2727783203125
2.2832519531249997
2.2026855468749997
2.2308837890624997
2.1309814453125
2.077001953125
2.0375244140624997
1.944873046875
1.770849609375
1.7023681640625
1.6121337890624998
1.4800048828124999
1.4397216796874999
3.0284912109374997
3.02607421875
3.02607421875
3.0244628906249997
3.0244628906249997
3.0228515624999996
2.3597900390624997
1.5927978515624999
0.9216796875
0.2650634765625
0.023364257812499997
0.0201416015625
0.08540039062499999
0.19658203124999998
0.2771484375
0.34965820312499996
0.44150390624999997
0.5083740234374999
0.5671875
0.623583984375
0.6936767578124999
0.742822265625
0.7927734375
0.8483642578124999
0.889453125
0.9249023437499999
0.97001953125
1.007080078125
1.8868652343749999
2.1221191406249997
2.193017578125
2.2502197265625
2.1648193359375
2.14306640625
2.0520263671875
2.0455810546874997
1.9916015624999999
1.8417480468749998
1.8046875
1.7337890624999999
1.5992431640625
1.5573486328125
3.02607421875
3.0244628906249997
3.0268798828124996
3.02607421875
3.0301025390625
3.0268798828124996
2.528173828125
1.9859619140625
1.0626708984375
0.54140625
0.17885742187499998
0.024169921875
0.0515625
0.14018554687499998
0.24895019531249998
0.327099609375
0.39638671875
0.46164550781249997
0.546240234375
0.60263671875
0.6630615234374999
0.7275146484374999
0.7718261718749999
0.8177490234375
0.862060546875
0.9112060546874999
0.9466552734375
0.97646484375
1.9295654296875
2.212353515625
2.2760009765625
2.280029296875
2.1938232421875
2.1060058593749997
2.0665283203125
2.04638671875
1.948095703125
1.8232177734375
1.706396484375
1.6451660156249999
1.6298583984375
1.5323730468749999
3.0244628906249997
3.0268798828124996
3.029296875
3.0268798828124996
3.02607421875
3.0268798828124996
2.49755859375
1.8892822265625
1.1641845703125
0.6807861328125
0.1264892578125
0.022558593749999998
0.033032226562499996
0.1353515625
0.2183349609375
0.29326171875
0.3673828125
0.46164550781249997
0.526904296875
0.580078125
0.6533935546874999
0.7154296874999999
0.7565185546875
0.8129150390625
0.8588378906249999
0.894287109375
0.9353759765624999
0.97646484375
1.7635986328125
2.09150390625
2.2268554687499997
2.2985595703125
2.2276611328125
2.2308837890624997
2.075390625
2.0818359374999997
1.989990234375
1.8143554687499999
1.662890625
1.5541259765625
1.45341796875
1.474365234375
2.431494140625
3.02607421875
3.0244628906249997
3.0188232421874996
3.02607421875
3.0244628906249997
2.924560546875
2.254248046875
1.2093017578125
0.6437255859375
0.230419921875
0.024169921875
0.0636474609375
0.1474365234375
0.23283691406249998
0.3311279296875
0.3988037109375
0.46567382812499997
0.55107421875
0.6098876953125
0.6614501953124999
0.7097900390624999
0.7774658203125
0.8193603515625
0.865283203125
0.913623046875
0.95068359375
0.9812988281249999
1.69189453125
2.070556640625
2.2107421874999997
2.3517333984374997
2.3759033203124997
2.2776123046875
2.2308837890624997
2.2260498046875
2.1543457031249997
2.002880859375
1.9835449218749999
1.957763671875
1.8264404296874999
1.7007568359374998
2.4830566406249996
3.0252685546875
3.02607421875
3.0252685546875
3.0252685546875
3.02607421875
2.8738037109374996
2.1954345703125
1.335791015625
0.6171386718749999
0.0217529296875
0.018530273437499998
0.020947265625
0.061230468749999996
0.14421386718749998
0.223974609375
0.3053466796875
0.39638671875
0.46728515625
0.526904296875
0.60263671875
0.66064453125
0.7081787109375
0.7702148437499999
0.8225830078124999
0.8548095703124999
0.8999267578125
0.9450439453124999
1.5533203125
2.00771484375
2.2623046875
2.2486083984375
2.2856689453125
2.25263671875
2.1809326171875
2.12373046875
2.0149658203125
1.8312744140625
1.791796875
1.6765869140624998
1.546875
1.53720703125
1.4284423828125
3.021240234375
3.02607421875
3.0228515624999996
3.02607421875
3.0309082031249996
3.02607421875
2.4121582031249997
1.5033691406249998
0.85400390625
0.38913574218749997
0.02578125
0.023364257812499997
0.059619140625
0.149853515625
0.2570068359375
0.3359619140625
0.40122070312499997
0.49064941406249996
0.5486572265624999
0.607470703125
0.66064453125
0.733154296875
0.77666015625
0.81533203125
0.8749511718749999
0.9095947265625
0.95068359375
0.9796874999999999
2.012548828125
2.1535400390625
2.2171875
2.1793212890625
2.151123046875
2.1583740234374997
2.080224609375
2.0415527343749997
1.9650146484375
1.93681640625
1.8062988281249999
1.7088134765624998
1.5887695312499999
1.4751708984374998
3.0220458984375
3.0236572265625
3.0268798828124996
3.0236572265625
3.0252685546875
3.021240234375
2.560400390625
1.828857421875
1.198828125
0.47775878906249997
0.0717041015625
0.0217529296875
0.0523681640625
0.13212890624999998
0.2215576171875
0.298095703125
0.394775390625
0.46083984375
0.523681640625
0.5969970703124999
0.6574218749999999
0.7138183593749999
0.7549072265625
0.8161376953124999
0.8572265625
0.8983154296875
0.9482666015625
0.98291015625
1.8014648437499998
2.1599853515625
2.2792236328124997
2.34287109375
2.2880859375
2.2647216796875
2.2429687499999997
2.1615966796875
2.0471923828125
1.8868652343749999
1.7579589843749999
1.6927001953124998
1.561376953125
1.5106201171875
2.840771484375
3.0228515624999996
3.029296875
3.0228515624999996
3.02607421875
3.0244628906249997
2.6159912109374996
1.7668212890625
1.0650878906249999
0.575244140625
0.21511230468749998
0.024169921875
0.0249755859375
0.0990966796875
0.21591796875
0.2900390625
0.36416015625
0.456005859375
0.5132080078125
0.578466796875
0.6356689453125
0.700927734375
0.75087890625
0.7927734375
0.8515869140625
0.8926757812499999
0.929736328125
0.9611572265624999
1.893310546875
2.1632080078125
2.2905029296875
2.2937255859375
2.247802734375
2.238134765625
2.1229248046875
2.0302734375
2.031884765625
1.9215087890625
1.8264404296874999
1.738623046875
1.6024658203125
1.5347900390625
2.7908203124999997
3.02607421875
3.02607421875
3.027685546875
3.0252685546875
3.0244628906249997
2.898779296875
2.08505859375
1.2987304687499999
0.580078125
0.15146484375
0.023364257812499997
0.02578125
0.091845703125
0.1732177734375
0.2570068359375
0.3504638671875
0.423779296875
0.4874267578125
0.5712158203125
0.631640625
0.6767578125
0.7291259765625
0.7935791015625
0.8346679687499999
0.8773681640625
0.9240966796875
0.961962890625
1.6121337890624998
2.023828125
2.2614990234375
2.3291748046875
2.3227294921875
2.25263671875
2.247802734375
2.2349121093749997
2.1140624999999997
1.9352050781249999
1.8667236328124999
1.7813232421874998
1.6854492187499999
1.5766845703124999
1.5090087890625
3.0244628906249997
3.0252685546875
3.0252685546875
3.0301025390625
3.029296875
3.0268798828124996
2.360595703125
1.3881591796875
0.6678955078125
0.19658203124999998
0.0217529296875
0.0217529296875
0.061230468749999996
0.17241210937499998
0.25620117187499997
0.32871093749999997
0.399609375
0.4890380859375
0.5454345703125
0.6010253906249999
0.6807861328125
0.7299316406249999
0.7806884765625
0.8185546874999999
0.8757568359375
0.9128173828124999
0.9498779296875
1.603271484375
2.0278564453125
2.2429687499999997
2.32998046875
2.302587890625
2.241357421875
2.2026855468749997
2.0496093749999997
2.0012695312499997
1.9021728515624998
1.7297607421874999
1.6620849609375
1.574267578125
1.4542236328125
1.3881591796875
3.0252685546875
3.0252685546875
3.0252685546875
3.0220458984375
3.027685546875
3.0268798828124996
2.3235351562499997
1.6773925781249999
0.8789794921874999
0.41330566406249997
0.023364257812499997
0.027392578124999997
0.10231933593749999
0.185302734375
0.262646484375
0.36577148437499996
0.4390869140625
0.49467773437499996
0.5631591796875
0.6308349609374999
0.68642578125
0.736376953125
0.7959960937499999
0.8403076171874999
0.8805908203124999
0.9345703125
0.966796875
1.6532226562499999
1.96904296875
2.1889892578125
2.26552734375
2.2671386718749997
2.1744873046874997
2.0778076171874997
2.05283203125
2.051220703125
1.864306640625
1.7700439453124999
1.72412109375
1.5782958984375
1.5863525390625
1.4880615234374999
3.0284912109374997
3.0244628906249997
3.0244628906249997
3.0228515624999996
3.02607421875
3.0252685546875
2.44921875
1.7088134765624998
1.0465576171875
0.572021484375
0.023364257812499997
0.0249755859375
0.0475341796875
0.16435546874999998
0.2457275390625
0.3198486328125
0.3907470703125
0.47856445312499996
0.5422119140625
0.604248046875
0.671923828125
0.71865234375
0.7702148437499999
0.8290283203125
0.8749511718749999
0.9047607421874999
0.9394042968749999
0.994189453125
1.78857421875
2.1068115234375
2.2171875
2.18818359375
2.180126953125
2.1648193359375
2.1358154296875
2.1221191406249997
2.0649169921875
1.9102294921874998
1.8038818359375
1.7458740234374999
1.6346923828125
1.5146484375
2.9704833984374996
3.0317138671875
3.0252685546875
3.02607421875
3.0252685546875
3.0220458984375
2.4846679687499997
1.8667236328124999
0.9579345703125
0.4729248046875
0.09748535156249999
0.02578125
0.072509765625
0.1635498046875
0.2376708984375
0.343212890625
0.4125
0.47453613281249996
0.555908203125
0.6195556640625
0.6735351562499999
0.7178466796874999
0.7822998046874999
0.8241943359374999
0.8701171875
0.920068359375
0.9563232421875
0.984521484375
1.8828369140624999
2.1438720703125
2.2324951171875
2.2389404296874997
2.2179931640625
2.3066162109375
2.1720703125
2.1100341796874997
2.0012695312499997
1.9118408203125
1.8151611328125
1.7257324218749999
1.6048828124999999
1.513037109375
2.818212890625
3.0236572265625
3.0228515624999996
3.0252685546875
3.0244628906249997
3.02607421875
2.6844726562499996
2.0415527343749997
1.3108154296874999
0.67998046875
0.0926513671875
0.023364257812499997
0.0281982421875
0.1353515625
0.20947265625
0.29648437499999997
0.3923583984375
0.456005859375
0.5220703125
0.5776611328125
0.6509765624999999
0.7001220703125
0.7557128906249999
0.8121093749999999
0.8628662109374999
0.8991210937499999
0.929736328125
0.9821044921875
1.8006591796875
2.1261474609374997
2.2663330078125
2.281640625
2.2389404296874997
2.1624023437499997
2.028662109375
2.1624023437499997
2.0093261718749997
1.9029785156249999
1.738623046875
1.65966796875
1.5621826171875
1.456640625
1.8006591796875
3.0236572265625
3.0244628906249997
3.0228515624999996
3.0252685546875
3.0244628906249997
3.0244628906249997
2.305810546875
1.2415283203124998
0.646142578125
0.2715087890625
0.026586914062499998
0.04189453125
0.124072265625
0.20866699218749998
0.3117919921875
0.3794677734375
0.45439453124999996
0.53818359375
0.5969970703124999
0.64775390625
0.7025390625
0.7661865234374999
0.8040527343749999
0.85400390625
0.9047607421874999
0.9402099609375
0.9756591796874999
1.5275390624999998
2.083447265625
2.25263671875
2.289697265625
2.25263671875
2.2196044921875
2.115673828125
2.0923095703125
2.02060546875
1.9585693359374998
1.8183837890624999
1.7208984374999998
1.625830078125
1.5380126953125
1.609716796875
3.0268798828124996
3.0236572265625
3.027685546875
3.0252685546875
3.0268798828124996
3.0228515624999996
2.2663330078125
1.5082031249999999
0.8693115234375
0.2795654296875
0.023364257812499997
0.0298095703125
0.133740234375
0.21672363281249998
0.29326171875
0.36496582031249997
0.456005859375
0.523681640625
0.5768554687499999
0.655810546875
0.704150390625
0.7557128906249999
0.8000244140624999
0.85400390625
0.897509765625
0.9305419921875
0.9732421874999999
1.7152587890625
1.928759765625
2.126953125
2.2034912109375
2.204296875
2.1301757812499997
2.096337890625
