0.023364257812499997
0.7541015624999999
0.6977050781249999
0.8523925781249999
1.4832275390624998
3.027685546875
3.01962890625
3.0252685546875
2.6594970703125
2.3936279296875
2.1728759765625
1.9867675781249998
1.93681640625
1.9352050781249999
1.90458984375
1.658056640625
1.5984375
1.6242187499999998
1.545263671875
1.529150390625
1.509814453125
3.027685546875
2.4693603515625
2.437939453125
2.586181640625
1.6475830078125
0.863671875
0.0249755859375
0.024169921875
0.0281982421875
0.19899902343749998
0.44956054687499997
0.7178466796874999
0.9232910156249999
1.1093994140624999
1.1706298828125
1.35673828125
1.5702392578125
1.6322753906249998
1.6266357421875
1.6089111328124999
1.5194824218749998
0.024169921875
0.80888671875
0.797607421875
0.7613525390625
1.3962158203125
2.044775390625
3.0284912109374997
3.0301025390625
2.7739013671875
2.5265625
2.1873779296875
1.9948242187499998
2.0681396484375
1.9472900390624999
1.9198974609375
1.8103271484374999
1.5509033203125
1.525927734375
1.5331787109375
1.5154541015624998
1.5323730468749999
3.0236572265625
2.9906249999999996
2.41376953125
2.5305908203125
2.2292724609375
1.4477783203124999
0.022558593749999998
0.022558593749999998
0.02578125
0.17241210937499998
0.3673828125
0.6711181640624999
0.6018310546875
1.0127197265624999
1.17626953125
1.3583496093749998
1.5380126953125
1.6524169921874998
1.6669189453125
1.6491943359374999
1.593603515625
0.02578125
0.11440429687499999
0.736376953125
0.6268066406249999
1.0086914062499999
1.8377197265624998
3.02607421875
3.0284912109374997
2.969677734375
2.544287109375
2.2711669921874997
2.0649169921875
2.0052978515624997
1.8763916015625
1.9682373046875
1.7748779296875
1.5919921874999998
1.6024658203125
1.590380859375
1.561376953125
1.5678222656249998
3.0268798828124996
3.027685546875
2.3936279296875
2.5974609374999997
2.263916015625
1.3913818359374999
0.027392578124999997
0.024169921875
0.023364257812499997
0.13212890624999998
0.34885253906249997
0.652587890625
0.6815917968749999
1.007080078125
1.084423828125
1.2592529296875
1.5162597656249999
1.6604736328124998
1.65966796875
1.638720703125
1.5637939453124998
0.0201416015625
0.0281982421875
0.8201660156249999
0.6872314453124999
0.9821044921875
1.8788085937499999
3.02607421875
3.0309082031249996
3.0156005859375
2.6764160156249996
2.3912109375
2.03671875
2.0278564453125
1.9279541015625
1.9513183593749999
1.861083984375
1.63388671875
1.606494140625
1.58232421875
1.5839355468749998
1.5791015625
3.0268798828124996
3.0236572265625
2.3960449218749997
2.5265625
2.3855712890625
1.458251953125
0.024169921875
0.0201416015625
0.023364257812499997
0.0281982421875
0.327099609375
0.517236328125
0.6840087890625
1.00546875
1.0707275390625
1.2890625
1.4800048828124999
1.5589599609375
1.5799072265624998
1.606494140625
1.577490234375
0.020947265625
0.024169921875
0.855615234375
0.6791748046874999
0.813720703125
1.5750732421875
2.5708740234375
3.0268798828124996
3.0301025390625
2.6949462890625
2.4427734375
2.21396484375
2.0818359374999997
2.0085205078125
2.006103515625
1.9360107421875
1.6806152343749998
1.5460693359375
1.525927734375
1.5170654296875
1.5404296874999999
1.5218994140625
3.0228515624999996
2.4758056640625
2.3678466796874997
2.550732421875
1.5605712890624999
0.7879394531249999
0.017724609375
0.026586914062499998
0.023364257812499997
0.191748046875
0.42539062499999997
0.6912597656249999
0.8757568359375
1.0513916015625
1.18916015625
1.4477783203124999
1.6008544921874999
1.5645996093749999
1.5879638671874998
1.5863525390625
1.5331787109375
0.023364257812499997
0.7798828124999999
0.7420166015624999
0.7871337890625
1.4526123046875
2.0633056640625
3.021240234375
3.0268798828124996
2.7787353515624997
2.50400390625
2.17529296875
1.996435546875
2.044775390625
1.9682373046875
1.899755859375
1.67578125
1.65
1.6435546875
1.6072998046875
1.5476806640624998
1.506591796875
3.02607421875
2.9495361328125
2.441162109375
2.570068359375
2.1583740234374997
1.327734375
0.0281982421875
0.023364257812499997
0.022558593749999998
0.24331054687499998
0.4439208984375
0.6413085937499999
0.6598388671875
1.0046630859374999
1.1319580078125
1.2576416015624998
1.574267578125
1.6048828124999999
1.6040771484374998
1.606494140625
1.5033691406249998
0.0298095703125
0.21672363281249998
0.7234863281249999
0.6421142578125
0.966796875
1.7208984374999998
3.0244628906249997
3.0228515624999996
3.021240234375
2.618408203125
2.325146484375
2.08828125
2.064111328125
1.941650390625
1.980322265625
1.8812255859375
1.5799072265624998
1.56943359375
1.56298828125
1.5412353515625
1.5114257812499998
3.02607421875
3.0083496093749997
2.44921875
2.5934326171874997
2.3154785156249997
1.4219970703125
0.023364257812499997
0.020947265625
0.0217529296875
0.0322265625
0.28359375
0.49790039062499997
0.55751953125
1.0948974609375
1.106982421875
1.3897705078125
1.490478515625
1.5758789062499998
1.5404296874999999
1.571044921875
1.554931640625
0.0298095703125
0.0281982421875
0.7984130859374999
0.5889404296874999
1.039306640625
1.835302734375
2.763427734375
3.021240234375
3.0244628906249997
2.705419921875
2.50400390625
2.1680419921875
2.160791015625
1.94970703125
2.0536376953124997
1.9110351562499999
1.6733642578124999
1.6040771484374998
1.5879638671874998
1.5146484375
1.4953124999999998
3.027685546875
3.02607421875
2.4468017578125
2.673193359375
2.4548583984375
1.4276367187499999
0.610693359375
0.0249755859375
0.020947265625
0.0201416015625
0.20866699218749998
0.47453613281249996
0.6050537109374999
0.816943359375
1.02802734375
1.158544921875
1.3986328124999998
1.5299560546875
1.5541259765625
1.5976318359375
1.58232421875
0.026586914062499998
0.024169921875
0.8024414062499999
0.6332519531249999
0.7291259765625
1.4961181640624999
2.7650390624999996
3.02607421875
3.02607421875
2.9116699218749997
2.52978515625
2.2598876953125
2.0697509765624997
1.9787109374999998
2.02060546875
1.948095703125
1.6798095703125
1.6645019531249998
1.6056884765625
1.58232421875
1.5275390624999998
1.6105224609375
3.0252685546875
2.5491210937499997
2.5805419921875
2.6901123046874997
1.6234130859375
0.75087890625
0.023364257812499997
0.0281982421875
0.022558593749999998
0.17241210937499998
0.29970703125
0.517236328125
0.760546875
1.0167480468749999
1.106982421875
1.2616699218749998
1.585546875
1.5911865234375
1.611328125
1.577490234375
1.327734375
0.0217529296875
0.7935791015625
0.5937744140625
0.5051513671875
1.4461669921875
2.193017578125
3.029296875
3.0252685546875
2.963232421875
2.682861328125
2.441162109375
2.1567626953125
2.183349609375
2.0649169921875
1.998046875
1.877197265625
1.6137451171875
1.5726562499999999
1.5460693359375
1.5138427734375
1.5009521484375
3.02607421875
2.9761230468749997
2.6256591796874997
2.7505371093749997
2.244580078125
1.38896484375
0.022558593749999998
0.024169921875
0.0217529296875
0.023364257812499997
0.22478027343749998
0.44230957031249996
0.4406982421875
0.8789794921874999
1.010302734375
1.297119140625
1.456640625
1.6056884765625
1.5235107421874998
1.5573486328125
1.5001464843749999
0.023364257812499997
0.027392578124999997
0.7315429687499999
0.394775390625
0.889453125
1.6693359374999999
3.02607421875
3.0236572265625
3.02607421875
2.689306640625
2.518505859375
2.2985595703125
2.2969482421875
2.1180908203124997
2.1140624999999997
1.9916015624999999
1.7208984374999998
1.6475830078125
1.574267578125
1.5525146484374999
1.5001464843749999
3.02607421875
3.0268798828124996
2.7158935546875
2.848828125
2.5144775390625
1.405078125
0.023364257812499997
0.022558593749999998
0.024169921875
0.019335937499999997
0.104736328125
0.33273925781249997
0.35690917968749997
0.8362792968749999
0.8830078124999999
1.134375
1.4501953125
1.525927734375
1.590380859375
1.6129394531249999
1.546875
0.018530273437499998
0.0217529296875
0.678369140625
0.45439453124999996
0.684814453125
1.56298828125
3.0252685546875
3.0236572265625
3.02607421875
2.8713867187499997
2.599072265625
2.281640625
2.3033935546874997
2.0359130859375
2.1632080078125
1.915869140625
1.75634765625
1.7378173828124999
1.6717529296875
1.5839355468749998
1.5686279296874999
3.0228515624999996
3.02607421875
2.7263671874999997
2.940673828125
2.7980712890625
1.7104248046875
0.7710205078125
0.024169921875
0.020947265625
0.026586914062499998
0.023364257812499997
0.1152099609375
0.0443115234375
0.40524902343749997
0.7162353515625
0.9595458984374999
1.18271484375
1.397021484375
1.4703369140625
1.5396240234374998
1.5484863281249999
0.020947265625
0.024169921875
0.20061035156249998
0.22236328125
0.3826904296875
1.255224609375
2.2147705078124997
3.0268798828124996
3.027685546875
3.027685546875
2.8705810546875
2.6748046875
2.521728515625
2.5144775390625
2.425048828125
2.325146484375
2.205908203125
1.8522216796875
1.7853515624999998
1.6927001953124998
1.5992431640625
2.2373291015625
3.0268798828124996
3.0252685546875
3.0301025390625
3.02607421875
2.3984619140625
0.8789794921874999
0.024169921875
0.0201416015625
0.023364257812499997
0.022558593749999998
0.0217529296875
0.08540039062499999
0.27392578125
0.4568115234375
0.671923828125
1.1077880859375
1.3188720703124999
1.3946044921874998
1.5041748046874999
1.50498046875
0.8193603515625
0.0201416015625
0.022558593749999998
0.15871582031249998
0.0845947265625
0.5406005859374999
1.9835449218749999
3.0252685546875
3.0268798828124996
3.0244628906249997
3.0107666015624996
2.8109619140624997
2.6208251953125
2.5595947265624996
2.4749999999999996
2.43955078125
2.2002685546875
1.909423828125
1.8344970703124999
1.73056640625
1.6185791015625
1.5927978515624999
3.027685546875
3.0268798828124996
3.0268798828124996
3.029296875
2.5330078124999997
1.426025390625
0.0249755859375
0.024169921875
0.024169921875
0.0281982421875
0.022558593749999998
0.11037597656249999
0.053173828124999996
0.3681884765625
0.639697265625
0.7694091796875
1.1778808593749999
1.3422363281249998
1.496923828125
1.5484863281249999
1.4630859374999998
0.019335937499999997
0.027392578124999997
0.270703125
0.026586914062499998
0.42136230468749997
1.2568359375
3.0284912109374997
3.0268798828124996
3.027685546875
3.0220458984375
2.81015625
2.6764160156249996
2.7569824218749996
2.5394531249999996
2.5563720703125
2.2373291015625
2.015771484375
1.9311767578124999
1.8409423828125
1.699951171875
1.606494140625
3.0268798828124996
3.027685546875
3.0244628906249997
3.027685546875
2.9463134765624996
1.9102294921874998
0.024169921875
0.02578125
0.0249755859375
0.024169921875
0.0201416015625
0.0555908203125
0.0249755859375
0.4962890625
0.523681640625
0.6977050781249999
1.1214843749999999
1.2608642578125
1.380908203125
1.5565429687499999
1.4800048828124999
0.023364257812499997
0.023364257812499997
0.0314208984375
0.0298095703125
0.3198486328125
1.345458984375
3.021240234375
3.0309082031249996
3.0244628906249997
3.0220458984375
2.95517578125
2.8367431640625
2.8367431640625
2.59423828125
2.631298828125
2.4822509765625
2.0979492187499997
1.973876953125
1.8651123046875
1.74345703125
1.654833984375
3.0244628906249997
3.027685546875
2.9438964843749997
3.0284912109374997
3.0284912109374997
1.8957275390625
0.3746337890625
0.023364257812499997
0.0298095703125
0.0249755859375
0.023364257812499997
0.020947265625
0.024169921875
0.2118896484375
0.388330078125
0.64775390625
1.042529296875
1.1915771484375
1.368017578125
1.4026611328124998
1.4332763671875
0.023364257812499997
0.0249755859375
0.0249755859375
0.022558593749999998
0.0717041015625
1.0973144531249999
2.028662109375
3.0268798828124996
3.0252685546875
3.027685546875
3.0317138671875
2.876220703125
2.9076416015624997
2.86494140625
2.898779296875
2.7626220703124997
2.4596923828125
2.3211181640625
2.1696533203125
2.077001953125
1.9754882812499999
3.0268798828124996
3.02607421875
3.0268798828124996
3.029296875
3.0268798828124996
3.0236572265625
3.0252685546875
0.024169921875
0.0201416015625
0.024169921875
0.0217529296875
0.02578125
0.022558593749999998
0.0249755859375
0.020947265625
0.024169921875
0.023364257812499997
0.018530273437499998
0.02578125
0.023364257812499997
0.024169921875
0.02578125
0.024169921875
0.0201416015625
0.02578125
0.027392578124999997
0.0249755859375
0.026586914062499998
0.024169921875
0.027392578124999997
0.020947265625
0.022558593749999998
0.8660888671875
1.42119140625
2.101171875
2.7489257812499996
3.027685546875
3.0268798828124996
3.0244628906249997
3.0268798828124996
3.0252685546875
3.0268798828124996
3.029296875
3.029296875
3.027685546875
3.0301025390625
3.0252685546875
3.0139892578125
3.0309082031249996
0.9466552734375
0.02578125
0.023364257812499997
0.024169921875
0.018530273437499998
0.02578125
0.02578125
0.0249755859375
0.023364257812499997
0.020947265625
0.027392578124999997
0.0281982421875
0.023364257812499997
0.019335937499999997
0.023364257812499997
0.0281982421875
0.024169921875
0.0281982421875
0.0249755859375
0.023364257812499997
0.0249755859375
0.022558593749999998
0.019335937499999997
0.026586914062499998
0.023364257812499997
0.023364257812499997
0.65419921875
1.3865478515624998
2.280029296875
2.760205078125
3.027685546875
3.0268798828124996
3.0301025390625
3.0268798828124996
3.0236572265625
3.0268798828124996
3.0268798828124996
3.0268798828124996
3.021240234375
3.0236572265625
3.029296875
3.0268798828124996
1.7611816406249998
0.1506591796875
0.027392578124999997
0.024169921875
0.0249755859375
0.017724609375
0.024169921875
0.019335937499999997
0.024169921875
0.023364257812499997
0.02578125
0.023364257812499997
0.023364257812499997
0.0249755859375
0.0249755859375
0.0298095703125
0.026586914062499998
0.020947265625
0.024169921875
0.024169921875
0.022558593749999998
0.0201416015625
0.022558593749999998
0.0281982421875
0.019335937499999997
0.027392578124999997
0.517236328125
1.416357421875
1.9787109374999998
2.591015625
3.029296875
3.0284912109374997
3.021240234375
3.027685546875
3.029296875
3.02607421875
3.0252685546875
3.0268798828124996
3.021240234375
3.027685546875
3.0268798828124996
3.0236572265625
3.0268798828124996
0.6574218749999999
0.02578125
0.02578125
0.024169921875
0.024169921875
0.0201416015625
0.024169921875
0.02578125
0.019335937499999997
0.019335937499999997
0.0249755859375
0.024169921875
0.019335937499999997
0.0249755859375
0.02900390625
0.023364257812499997
0.024169921875
0.0217529296875
0.023364257812499997
0.02900390625
0.0217529296875
0.023364257812499997
0.02578125
0.022558593749999998
0.019335937499999997
0.072509765625
0.8822021484375
1.7136474609374999
2.2002685546875
3.01962890625
3.027685546875
3.0236572265625
3.02607421875
3.02607421875
3.0244628906249997
3.029296875
3.0284912109374997
3.02607421875
3.0284912109374997
3.0244628906249997
3.02607421875
3.0268798828124996
1.239111328125
0.022558593749999998
0.02578125
0.026586914062499998
0.023364257812499997
0.022558593749999998
0.023364257812499997
0.022558593749999998
0.0217529296875
0.023364257812499997
0.018530273437499998
0.0217529296875
0.024169921875
0.024169921875
0.04833984375
0.023364257812499997
0.020947265625
0.0217529296875
0.023364257812499997
0.022558593749999998
0.024169921875
0.0249755859375
0.023364257812499997
0.023364257812499997
0.024169921875
0.022558593749999998
0.45842285156249996
1.058642578125
1.95615234375
2.616796875
3.0252685546875
3.0252685546875
3.0252685546875
3.0236572265625
3.0236572265625
3.02607421875
3.0268798828124996
3.02607421875
3.0268798828124996
3.0252685546875
3.027685546875
3.02607421875
1.1738525390624999
0.024169921875
0.017724609375
0.024169921875
0.0201416015625
0.023364257812499997
0.0249755859375
0.023364257812499997
0.019335937499999997
0.019335937499999997
0.024169921875
0.019335937499999997
0.019335937499999997
0.04189453125
0.024169921875
0.024169921875
0.024169921875
0.020947265625
0.022558593749999998
0.022558593749999998
0.023364257812499997
0.0249755859375
0.0314208984375
0.023364257812499997
0.027392578124999997
0.08701171875
0.5953857421875
1.1271240234375
1.8957275390625
2.65869140625
2.9688720703125
3.0268798828124996
3.02607421875
3.0252685546875
3.0284912109374997
3.021240234375
3.029296875
3.027685546875
3.0228515624999996
3.0236572265625
3.0220458984375
3.0228515624999996
3.0252685546875
0.543017578125
0.0201416015625
0.023364257812499997
0.023364257812499997
0.023364257812499997
0.024169921875
0.024169921875
0.0201416015625
0.024169921875
0.0217529296875
0.0217529296875
0.024169921875
0.061230468749999996
0.053173828124999996
0.023364257812499997
0.026586914062499998
0.024169921875
0.0201416015625
0.02578125
0.0878173828125
0.1651611328125
0.22880859374999998
0.31259765624999997
0.375439453125
0.42861328125
0.48017578125
1.069921875
1.880419921875
2.3799316406249997
3.0284912109374997
3.0228515624999996
3.029296875
3.027685546875
3.0268798828124996
3.0236572265625
3.029296875
3.0268798828124996
3.021240234375
3.0268798828124996
3.0228515624999996
3.0236572265625
3.0236572265625
3.0284912109374997
1.1400146484375
0.022558593749999998
0.023364257812499997
0.023364257812499997
0.024169921875
0.022558593749999998
0.023364257812499997
0.026586914062499998
0.023364257812499997
0.022558593749999998
0.024169921875
0.02578125
0.027392578124999997
0.019335937499999997
0.024169921875
0.0217529296875
0.023364257812499997
0.024169921875
0.0523681640625
0.127294921875
0.20302734374999998
0.2876220703125
0.3585205078125
0.4189453125
0.49387207031249997
1.0916748046875
1.69833984375
2.4113525390625
3.0236572265625
3.02607421875
3.0228515624999996
3.0244628906249997
3.0268798828124996
3.0252685546875
3.0204345703124997
3.0268798828124996
3.0252685546875
3.0252685546875
3.02607421875
3.02607421875
3.02607421875
3.0236572265625
2.038330078125
0.0249755859375
0.024169921875
0.022558593749999998
0.023364257812499997
0.027392578124999997
0.02578125
0.024169921875
0.0249755859375
0.023364257812499997
0.0217529296875
0.0281982421875
0.0249755859375
0.0249755859375
0.0249755859375
0.024169921875
0.024169921875
0.0249755859375
0.023364257812499997
0.0797607421875
0.17885742187499998
0.252978515625
0.314208984375
0.40202636718749996
0.46083984375
0.845947265625
1.5396240234374998
2.2268554687499997
2.872998046875
3.02607421875
3.0244628906249997
3.027685546875
3.0301025390625
3.027685546875
3.0252685546875
3.027685546875
3.0164062499999997
3.0284912109374997
3.02607421875
3.0204345703124997
3.029296875
3.02607421875
3.0244628906249997
0.3875244140625
0.0249755859375
0.022558593749999998
0.023364257812499997
0.024169921875
0.023364257812499997
0.019335937499999997
0.024169921875
0.02900390625
0.024169921875
0.019335937499999997
0.026586914062499998
0.023364257812499997
0.024169921875
0.024169921875
0.026586914062499998
0.024169921875
0.024169921875
0.1152099609375
0.182080078125
0.25620117187499997
0.323876953125
0.41008300781249996
0.4680908203125
0.5220703125
1.393798828125
2.0979492187499997
2.6361328124999996
3.0284912109374997
3.02607421875
3.0301025390625
3.027685546875
3.0268798828124996
3.027685546875
3.02607421875
3.0252685546875
3.021240234375
3.02607421875
3.0268798828124996
3.027685546875
3.029296875
3.0220458984375
0.3544921875
0.024169921875
0.024169921875
0.023364257812499997
0.026586914062499998
0.017724609375
0.020947265625
0.024169921875
0.02900390625
0.024169921875
0.024169921875
0.018530273437499998
0.019335937499999997
0.023364257812499997
0.017724609375
0.0201416015625
0.024169921875
0.033032226562499996
0.130517578125
0.198193359375
0.2731201171875
0.36416015625
0.427001953125
0.48178710937499997
0.5438232421875
0.9821044921875
1.6636962890625
2.40087890625
2.808544921875
3.0252685546875
3.02607421875
3.0244628906249997
3.027685546875
2.9970703125
3.02607421875
3.029296875
3.0268798828124996
3.021240234375
3.027685546875
3.0301025390625
3.0236572265625
3.0252685546875
1.2930908203125
0.024169921875
0.024169921875
0.024169921875
0.024169921875
0.024169921875
0.023364257812499997
0.02578125
0.023364257812499997
0.02900390625
0.024169921875
0.023364257812499997
0.0217529296875
0.023364257812499997
0.018530273437499998
0.024169921875
0.0249755859375
0.103125
0.18369140625
0.2553955078125
0.322265625
0.41008300781249996
0.468896484375
0.526904296875
0.59619140625
0.6429199218749999
0.68642578125
1.8119384765625
2.20107421875
2.5209228515624997
2.4822509765625
2.7835693359375
2.9390625
3.0228515624999996
3.0236572265625
3.0284912109374997
3.0244628906249997
3.0204345703124997
3.02607421875
3.0268798828124996
3.0244628906249997
3.02607421875
2.070556640625
0.023364257812499997
0.0249755859375
0.0201416015625
0.0249755859375
0.018530273437499998
0.023364257812499997
0.027392578124999997
0.023364257812499997
0.022558593749999998
0.0217529296875
0.0249755859375
0.023364257812499997
0.023364257812499997
0.0249755859375
0.0765380859375
0.1812744140625
0.24895019531249998
0.322265625
0.391552734375
0.47050781249999996
0.526904296875
0.5768554687499999
0.646142578125
0.6977050781249999
1.1529052734375
1.5243164062499999
2.26875
2.8335205078124996
3.029296875
3.02607421875
3.027685546875
3.027685546875
3.027685546875
3.027685546875
2.9704833984374996
3.0268798828124996
3.02607421875
3.0252685546875
3.02607421875
3.0244628906249997
3.0244628906249997
3.02607421875
0.023364257812499997
0.022558593749999998
0.024169921875
0.024169921875
0.0217529296875
0.020947265625
0.027392578124999997
0.023364257812499997
0.026586914062499998
0.017724609375
0.02578125
0.02578125
0.024169921875
0.023364257812499997
0.0281982421875
0.033837890625
0.11279296875
0.1893310546875
0.26022949218749997
0.34885253906249997
0.41813964843749996
0.4793701171875
0.530126953125
0.5953857421875
1.27939453125
1.7370117187499998
2.410546875
2.6482177734374996
3.02607421875
3.0284912109374997
3.02607421875
3.0309082031249996
3.0252685546875
3.0244628906249997
3.027685546875
3.021240234375
3.02607421875
3.0252685546875
3.0252685546875
3.0220458984375
3.0228515624999996
3.021240234375
1.7490966796874998
0.0249755859375
0.0249755859375
0.027392578124999997
0.020947265625
0.027392578124999997
0.019335937499999997
0.018530273437499998
0.017724609375
0.02578125
0.024169921875
0.024169921875
0.023364257812499997
0.022558593749999998
0.023364257812499997
0.027392578124999997
0.026586914062499998
0.033032226562499996
0.1039306640625
0.1998046875
0.2747314453125
0.3440185546875
0.407666015625
0.49064941406249996
1.219775390625
1.6604736328124998
2.4306884765625
2.5088378906249997
3.0268798828124996
3.0309082031249996
3.0204345703124997
3.021240234375
3.021240234375
2.9447021484375
2.96162109375
3.02607421875
3.0284912109374997
3.0309082031249996
3.02607421875
3.0236572265625
3.0236572265625
3.0244628906249997
3.027685546875
0.024169921875
0.020947265625
0.024169921875
0.023364257812499997
0.0217529296875
0.023364257812499997
0.022558593749999998
0.024169921875
0.0201416015625
0.023364257812499997
0.022558593749999998
0.0217529296875
0.0249755859375
0.027392578124999997
0.0201416015625
0.023364257812499997
0.018530273437499998
0.023364257812499997
0.0652587890625
0.16838378906249998
0.23686523437499998
0.30856933593749997
0.394775390625
1.3502929687499998
1.8860595703124998
2.2824462890625
2.9720947265624997
3.027685546875
3.029296875
3.029296875
3.0228515624999996
3.02607421875
3.0284912109374997
2.9350341796875
2.8367431640625
3.0268798828124996
3.0252685546875
3.0309082031249996
3.0309082031249996
3.0268798828124996
3.0252685546875
3.02607421875
1.0078857421875
0.024169921875
0.019335937499999997
0.024169921875
0.023364257812499997
0.023364257812499997
0.024169921875
0.018530273437499998
0.0249755859375
0.023364257812499997
0.0217529296875
0.02578125
0.0281982421875
0.0217529296875
0.023364257812499997
0.026586914062499998
0.024169921875
0.024169921875
0.024169921875
0.030615234374999998
0.1039306640625
0.17724609375
0.25458984375
0.9651855468749999
1.5476806640624998
1.9956298828124999
2.6441894531249996
3.0236572265625
3.02607421875
3.0236572265625
3.0284912109374997
3.02607421875
3.0268798828124996
2.9455078125
2.8939453124999996
3.0252685546875
3.0252685546875
3.02607421875
3.0252685546875
3.0309082031249996
3.0252685546875
3.0268798828124996
2.1760986328125
0.024169921875
0.023364257812499997
0.020947265625
0.019335937499999997
0.0249755859375
0.023364257812499997
0.027392578124999997
0.023364257812499997
0.023364257812499997
0.018530273437499998
0.0201416015625
0.0314208984375
0.0217529296875
0.018530273437499998
0.023364257812499997
0.024169921875
0.024169921875
0.027392578124999997
0.023364257812499997
0.0298095703125
0.1071533203125
0.1796630859375
0.8685058593749999
1.4236083984374999
1.8844482421875
2.2590820312499997
2.8609130859375
3.0244628906249997
3.0268798828124996
3.02607421875
3.005126953125
3.02607421875
2.9011962890625
2.8641357421875
2.7577880859375
3.0244628906249997
3.029296875
3.0204345703124997
3.0268798828124996
3.029296875
3.0268798828124996
3.0228515624999996
0.018530273437499998
0.02578125
0.0217529296875
0.024169921875
0.022558593749999998
0.0249755859375
0.0217529296875
0.020947265625
0.02578125
0.0249755859375
0.023364257812499997
0.024169921875
0.024169921875
0.022558593749999998
0.0217529296875
0.020947265625
0.022558593749999998
0.023364257812499997
0.023364257812499997
0.024169921875
0.043505859375
0.11923828125
0.19255371093749998
1.3728515625
1.7289550781249998
2.1583740234374997
2.850439453125
3.0268798828124996
3.0228515624999996
3.0268798828124996
3.02607421875
3.0252685546875
3.02607421875
2.985791015625
2.94873046875
3.0284912109374997
3.0268798828124996
3.0236572265625
3.029296875
3.0252685546875
3.02607421875
3.0301025390625
1.6185791015625
0.022558593749999998
0.027392578124999997
0.02578125
0.022558593749999998
0.022558593749999998
0.024169921875
0.024169921875
0.023364257812499997
0.024169921875
0.020947265625
0.02578125
0.02900390625
0.023364257812499997
0.0249755859375
0.02578125
0.027392578124999997
0.0201416015625
0.023364257812499997
0.023364257812499997
0.02578125
0.026586914062499998
0.0910400390625
0.966796875
1.6330810546874999
2.05283203125
2.4443847656249997
2.7126708984374996
3.027685546875
3.0252685546875
3.0252685546875
3.0252685546875
3.0236572265625
3.0228515624999996
2.9269775390625
3.029296875
3.0220458984375
3.029296875
3.0268798828124996
3.0236572265625
3.02607421875
3.02607421875
3.0284912109374997
0.3714111328125
0.0201416015625
0.024169921875
0.0249755859375
0.027392578124999997
0.023364257812499997
0.023364257812499997
0.0281982421875
0.027392578124999997
0.022558593749999998
0.024169921875
0.027392578124999997
0.024169921875
0.026586914062499998
0.023364257812499997
0.023364257812499997
0.02578125
0.024169921875
0.0201416015625
0.023364257812499997
0.022558593749999998
0.026586914062499998
0.0910400390625
1.4526123046875
1.9674316406249999
2.2792236328124997
2.9680664062499997
3.027685546875
3.02607421875
3.0228515624999996
2.9801513671874997
3.0252685546875
3.0107666015624996
2.8915283203124997
2.7545654296874997
3.02607421875
3.029296875
3.0236572265625
3.0220458984375
3.0252685546875
3.0252685546875
3.0317138671875
1.2745605468749999
0.0201416015625
0.019335937499999997
0.024169921875
0.024169921875
0.024169921875
0.027392578124999997
0.0249755859375
0.0281982421875
0.0281982421875
0.0298095703125
0.0169189453125
0.023364257812499997
0.02578125
0.026586914062499998
0.022558593749999998
0.023364257812499997
0.02578125
0.023364257812499997
0.024169921875
0.0298095703125
0.02578125
0.02578125
1.2745605468749999
1.8659179687499998
2.2824462890625
2.7505371093749997
3.0228515624999996
3.0252685546875
3.0236572265625
3.029296875
3.0252685546875
2.9608154296875
2.9205322265625
2.874609375
3.027685546875
3.02607421875
3.027685546875
3.02607421875
3.02607421875
3.0228515624999996
3.0268798828124996
2.937451171875
0.018530273437499998
0.0249755859375
0.022558593749999998
0.023364257812499997
0.0201416015625
0.020947265625
0.023364257812499997
0.022558593749999998
0.023364257812499997
0.0249755859375
0.024169921875
0.024169921875
0.024169921875
0.024169921875
0.019335937499999997
0.024169921875
0.0281982421875
0.022558593749999998
0.023364257812499997
0.019335937499999997
0.024169921875
0.024169921875
0.7130126953125
1.6645019531249998
2.0616943359374997
2.3710693359375
2.889111328125
3.021240234375
3.0284912109374997
3.0228515624999996
3.0268798828124996
3.0244628906249997
2.9688720703125
2.874609375
2.7932373046874996
3.0252685546875
3.0301025390625
3.0252685546875
3.0244628906249997
3.029296875
3.0236572265625
3.029296875
0.7968017578125
0.024169921875
0.023364257812499997
0.018530273437499998
0.0249755859375
0.0217529296875
0.024169921875
0.022558593749999998
0.022558593749999998
0.0217529296875
0.023364257812499997
0.023364257812499997
0.022558593749999998
0.0298095703125
0.023364257812499997
0.023364257812499997
0.022558593749999998
0.0217529296875
0.024169921875
0.027392578124999997
0.022558593749999998
0.0281982421875
0.020947265625
0.6638671875
1.5509033203125
2.0745849609375
2.6764160156249996
3.0284912109374997
3.0317138671875
3.02607421875
3.005126953125
3.0244628906249997
3.029296875
2.9366455078125
2.872998046875
3.0284912109374997
3.027685546875
3.0252685546875
3.0244628906249997
3.0252685546875
3.02607421875
3.0301025390625
1.3905761718749998
0.023364257812499997
0.023364257812499997
0.02578125
0.022558593749999998
0.022558593749999998
0.023364257812499997
0.0217529296875
0.0201416015625
0.019335937499999997
0.024169921875
0.030615234374999998
0.024169921875
0.020947265625
0.030615234374999998
0.0249755859375
0.0249755859375
0.02578125
0.023364257812499997
0.020947265625
0.024169921875
0.023364257812499997
0.024169921875
0.041088867187499996
1.2834228515625
1.77568359375
2.1462890624999997
2.5740966796875
3.0284912109374997
3.0204345703124997
3.029296875
3.0244628906249997
3.0252685546875
3.021240234375
2.931005859375
3.02607421875
3.0268798828124996
3.0301025390625
3.027685546875
3.0204345703124997
3.0252685546875
3.0244628906249997
3.0268798828124996
0.1732177734375
0.0249755859375
0.0201416015625
0.027392578124999997
0.024169921875
0.024169921875
0.0298095703125
0.02578125
0.023364257812499997
0.022558593749999998
0.022558593749999998
0.023364257812499997
0.020947265625
0.02578125
0.022558593749999998
0.0249755859375
0.023364257812499997
0.020947265625
0.024169921875
0.024169921875
0.024169921875
0.0249755859375
0.08137207031249999
0.91845703125
1.6653076171874999
2.07216796875
2.6256591796874997
3.0325195312499997
3.0268798828124996
3.0268798828124996
2.977734375
3.027685546875
2.9737060546875
2.914892578125
2.83271484375
3.02607421875
3.02607421875
3.0236572265625
3.027685546875
3.0252685546875
3.029296875
3.02607421875
1.2383056640624999
0.0249755859375
0.022558593749999998
0.024169921875
0.02900390625
0.023364257812499997
0.019335937499999997
0.017724609375
0.027392578124999997
0.024169921875
0.023364257812499997
0.019335937499999997
0.023364257812499997
0.0281982421875
0.023364257812499997
0.02578125
0.0217529296875
0.023364257812499997
0.027392578124999997
0.0217529296875
0.0201416015625
0.0249755859375
0.06606445312499999
0.7742431640624999
1.538818359375
1.998046875
2.6321044921874996
2.840771484375
3.0317138671875
3.0244628906249997
3.02607421875
2.9592041015625
3.0268798828124996
2.8447998046875
2.8617187499999996
3.02607421875
3.029296875
3.0301025390625
3.029296875
3.02607421875
3.0268798828124996
3.0236572265625
2.7481201171875
0.023364257812499997
0.023364257812499997
0.023364257812499997
0.018530273437499998
0.024169921875
0.024169921875
0.023364257812499997
0.0217529296875
0.0249755859375
0.022558593749999998
0.0201416015625
0.023364257812499997
0.0281982421875
0.022558593749999998
0.024169921875
0.026586914062499998
0.027392578124999997
0.023364257812499997
0.0249755859375
0.023364257812499997
0.02578125
0.04189453125
0.1200439453125
1.095703125
1.8417480468749998
2.22041015625
2.69091796875
2.9463134765624996
3.0252685546875
3.0252685546875
3.0309082031249996
3.027685546875
2.9358398437499997
2.9261718749999996
2.8069335937499997
3.0309082031249996
3.0220458984375
3.027685546875
3.0268798828124996
3.0268798828124996
3.0252685546875
3.0252685546875
0.607470703125
0.0249755859375
0.019335937499999997
0.023364257812499997
0.018530273437499998
0.024169921875
0.0249755859375
0.023364257812499997
0.023364257812499997
0.023364257812499997
0.02578125
0.027392578124999997
0.019335937499999997
0.027392578124999997
0.027392578124999997
0.024169921875
0.02578125
0.023364257812499997
0.0249755859375
0.023364257812499997
0.024169921875
0.026586914062499998
0.103125
0.7863281249999999
1.3261230468749998
1.9714599609374999
2.5265625
2.802099609375
3.029296875
3.02607421875
2.88427734375
2.947119140625
2.9430908203125
2.9181152343749996
2.8464111328125
3.0268798828124996
3.0244628906249997
3.0244628906249997
3.0244628906249997
3.0244628906249997
3.0268798828124996
3.0252685546875
1.3817138671875
0.023364257812499997
0.0217529296875
0.0217529296875
0.022558593749999998
0.023364257812499997
0.023364257812499997
0.022558593749999998
0.0249755859375
0.023364257812499997
0.02578125
0.0217529296875
0.022558593749999998
0.024169921875
0.023364257812499997
0.022558593749999998
0.023364257812499997
0.017724609375
0.0281982421875
0.020947265625
0.0201416015625
0.0217529296875
0.11359863281249999
0.7291259765625
1.522705078125
2.1068115234375
2.5233398437499996
2.9688720703125
3.0309082031249996
3.0268798828124996
3.0220458984375
3.0236572265625
3.01962890625
3.02607421875
2.9237548828124997
3.0252685546875
3.0317138671875
3.02607421875
3.02607421875
3.021240234375
3.029296875
3.029296875
3.029296875
0.0249755859375
0.024169921875
0.023364257812499997
0.024169921875
0.022558593749999998
0.023364257812499997
0.023364257812499997
0.024169921875
0.0281982421875
0.023364257812499997
0.023364257812499997
0.024169921875
0.023364257812499997
0.024169921875
0.024169921875
0.022558593749999998
0.024169921875
0.024169921875
0.023364257812499997
0.0217529296875
0.0281982421875
0.026586914062499998
0.5325439453124999
1.31162109375
1.9513183593749999
2.270361328125
2.7722900390625
3.02607421875
3.0252685546875
3.0244628906249997
3.0268798828124996
3.0244628906249997
3.02607421875
2.9253662109375
2.8359375
3.0268798828124996
3.02607421875
3.0236572265625
3.027685546875
3.0284912109374997
3.0365478515624997
3.0228515624999996
1.198828125
0.022558593749999998
0.023364257812499997
0.023364257812499997
0.018530273437499998
0.024169921875
0.023364257812499997
0.019335937499999997
0.026586914062499998
0.0249755859375
0.0249755859375
0.023364257812499997
0.026586914062499998
0.023364257812499997
0.027392578124999997
0.0249755859375
0.018530273437499998
0.0249755859375
0.022558593749999998
0.018530273437499998
0.022558593749999998
0.023364257812499997
0.0362548828125
1.1384033203125
1.8304687499999999
2.3146728515625
2.850439453125
3.0220458984375
3.027685546875
3.02607421875
3.0244628906249997
2.9656494140625
2.9124755859375
2.795654296875
2.7650390624999996
3.0252685546875
3.0252685546875
3.037353515625
3.0244628906249997
3.0301025390625
3.02607421875
3.0236572265625
2.3791259765625
0.024169921875
0.020947265625
0.022558593749999998
0.023364257812499997
0.02578125
0.019335937499999997
0.017724609375
0.0217529296875
0.024169921875
0.027392578124999997
0.022558593749999998
0.022558593749999998
0.02578125
0.02900390625
0.018530273437499998
0.0249755859375
0.023364257812499997
0.027392578124999997
0.023364257812499997
0.0217529296875
0.024169921875
0.024169921875
0.0322265625
1.0787841796875
1.8232177734375
2.2260498046875
2.7722900390625
3.029296875
3.0244628906249997
3.0228515624999996
3.0139892578125
3.0268798828124996
2.9156982421874997
3.02607421875
2.8061279296875
3.029296875
3.0220458984375
3.0220458984375
3.0252685546875
3.027685546875
3.02607421875
3.0228515624999996
0.4471435546875
0.023364257812499997
0.024169921875
0.020947265625
0.02578125
0.023364257812499997
0.023364257812499997
0.022558593749999998
0.018530273437499998
0.0201416015625
0.022558593749999998
0.022558593749999998
0.022558593749999998
0.026586914062499998
0.019335937499999997
0.027392578124999997
0.024169921875
0.0201416015625
0.024169921875
0.0201416015625
0.02578125
0.022558593749999998
0.041088867187499996
1.09892578125
1.8506103515624999
2.115673828125
2.7626220703124997
3.0268798828124996
3.0236572265625
3.0268798828124996
3.0268798828124996
3.0317138671875
3.0244628906249997
2.9527587890625
2.91650390625
3.02607421875
3.029296875
3.0268798828124996
3.0244628906249997
3.0301025390625
3.0252685546875
3.0252685546875
1.7426513671875
0.0298095703125
0.024169921875
0.02578125
0.023364257812499997
0.023364257812499997
0.02900390625
0.0217529296875
0.017724609375
0.024169921875
0.0281982421875
0.020947265625
0.022558593749999998
0.0249755859375
0.0201416015625
0.023364257812499997
0.0249755859375
0.0201416015625
0.023364257812499997
0.023364257812499997
0.017724609375
0.026586914062499998
0.02578125
0.075732421875
1.0336669921875
1.735400390625
2.1889892578125
2.6699707031249997
3.02607421875
3.0317138671875
3.02607421875
2.9438964843749997
3.01962890625
2.9664550781249996
2.914892578125
3.0268798828124996
3.02607421875
3.0268798828124996
3.0268798828124996
3.029296875
3.0244628906249997
3.0228515624999996
3.0228515624999996
0.12810058593749998
0.023364257812499997
0.023364257812499997
0.023364257812499997
0.0201416015625
0.020947265625
0.02900390625
0.022558593749999998
0.0249755859375
0.023364257812499997
0.0217529296875
0.023364257812499997
0.023364257812499997
0.022558593749999998
0.0201416015625
0.019335937499999997
0.024169921875
0.018530273437499998
0.024169921875
0.024169921875
0.0249755859375
0.049145507812499996
0.124072265625
1.1158447265625
1.8441650390625
2.209130859375
2.70703125
3.0236572265625
3.027685546875
3.02607421875
3.02607421875
3.027685546875
2.9986816406249996
2.9414794921875
2.784375
3.0244628906249997
3.0244628906249997
3.02607421875
3.0252685546875
3.029296875
3.0309082031249996
3.02607421875
1.0449462890624999
0.020947265625
0.024169921875
0.024169921875
0.017724609375
0.024169921875
0.0217529296875
0.02578125
0.024169921875
0.0217529296875
0.027392578124999997
0.02578125
0.023364257812499997
0.023364257812499997
0.022558593749999998
0.023364257812499997
0.023364257812499997
0.022558593749999998
0.02578125
0.0249755859375
0.024169921875
0.026586914062499998
0.091845703125
0.7371826171875
1.5251220703125
1.9940185546875
2.5652343749999997
2.6272705078125
3.0252685546875
3.027685546875
3.021240234375
3.0268798828124996
3.029296875
2.9342285156249996
2.9011962890625
3.0309082031249996
3.02607421875
3.0309082031249996
3.0268798828124996
3.0244628906249997
3.0252685546875
3.027685546875
2.5805419921875
0.0217529296875
0.023364257812499997
0.022558593749999998
0.019335937499999997
0.02578125
0.023364257812499997
0.0217529296875
0.02578125
0.023364257812499997
0.023364257812499997
0.023364257812499997
0.023364257812499997
0.018530273437499998
0.023364257812499997
0.023364257812499997
0.0201416015625
0.0281982421875
0.02578125
0.022558593749999998
0.023364257812499997
0.0201416015625
0.0684814453125
1.0812011718749999
1.7579589843749999
2.230078125
2.60068359375
3.0268798828124996
3.02607421875
3.0220458984375
3.0220458984375
2.9704833984374996
3.029296875
2.99384765625
2.892333984375
2.7916259765625
3.0236572265625
3.02607421875
3.02607421875
3.0268798828124996
3.0244628906249997
3.0268798828124996
3.027685546875
0.47373046874999997
0.024169921875
0.0281982421875
0.0217529296875
0.023364257812499997
0.02900390625
0.027392578124999997
0.023364257812499997
0.0201416015625
0.0281982421875
0.023364257812499997
0.023364257812499997
0.023364257812499997
0.022558593749999998
0.0217529296875
0.024169921875
0.020947265625
0.022558593749999998
0.022558593749999998
0.022558593749999998
0.024169921875
0.026586914062499998
0.0394775390625
1.3631835937499999
1.867529296875
2.2751953124999997
2.8593017578124997
3.0236572265625
3.02607421875
3.02607421875
3.0268798828124996
3.02607421875
3.0268798828124996
2.940673828125
2.8874999999999997
3.0301025390625
3.02607421875
3.0268798828124996
3.02607421875
3.0252685546875
3.0252685546875
3.0228515624999996
1.6943115234375
0.0249755859375
0.023364257812499997
0.020947265625
0.023364257812499997
0.026586914062499998
0.023364257812499997
0.0201416015625
0.017724609375
0.020947265625
0.0217529296875
0.022558593749999998
0.024169921875
0.020947265625
0.023364257812499997
0.024169921875
0.022558593749999998
0.0217529296875
0.023364257812499997
0.022558593749999998
0.0201416015625
0.02578125
0.0217529296875
0.6308349609374999
1.30517578125
1.8296630859374998
2.6296874999999997
2.5547607421875
3.027685546875
3.0244628906249997
2.9978759765625
3.0252685546875
3.0188232421874996
2.9334228515625
2.848828125
3.0236572265625
3.027685546875
3.0252685546875
3.027685546875
3.029296875
3.02607421875
3.02607421875
2.8681640625
0.023364257812499997
0.018530273437499998
0.0217529296875
0.023364257812499997
0.019335937499999997
0.024169921875
0.024169921875
0.022558593749999998
0.0201416015625
0.024169921875
0.020947265625
0.020947265625
0.0362548828125
0.0249755859375
0.023364257812499997
0.023364257812499997
0.023364257812499997
0.023364257812499997
0.024169921875
0.024169921875
0.023364257812499997
0.045117187499999996
0.15146484375
1.139208984375
1.714453125
2.2824462890625
2.7811523437499996
3.0252685546875
3.0252685546875
3.02607421875
2.9414794921875
3.029296875
3.0244628906249997
2.9261718749999996
2.795654296875
3.0252685546875
3.02607421875
3.027685546875
3.0252685546875
3.0268798828124996
3.02607421875
3.02607421875
0.024169921875
0.0201416015625
0.023364257812499997
0.023364257812499997
0.024169921875
0.018530273437499998
0.024169921875
0.027392578124999997
0.022558593749999998
0.027392578124999997
0.024169921875
0.023364257812499997
0.024169921875
0.024169921875
0.027392578124999997
0.027392578124999997
0.024169921875
0.0217529296875
0.0249755859375
0.023364257812499997
0.030615234374999998
0.1071533203125
1.1239013671875
2.054443359375
2.560400390625
2.94873046875
3.0309082031249996
3.0301025390625
3.02607421875
3.02607421875
3.0228515624999996
3.029296875
3.027685546875
2.9994873046875
2.9197265624999997
3.0284912109374997
3.021240234375
3.02607421875
3.0252685546875
3.0301025390625
3.02607421875
3.027685546875
1.2254150390625
0.0281982421875
0.022558593749999998
0.023364257812499997
0.023364257812499997
0.0708984375
3.02607421875
3.0284912109374997
3.0244628906249997
3.0301025390625
3.02607421875
3.0236572265625
3.0252685546875
3.027685546875
3.02607421875
3.0244628906249997
3.0236572265625
3.027685546875
3.02607421875
3.0268798828124996
3.0244628906249997
3.029296875
3.029296875
3.02607421875
3.0252685546875
3.02607421875
3.0244628906249997
3.029296875
3.0268798828124996
3.029296875
3.0244628906249997
3.0268798828124996
3.027685546875
3.0284912109374997
3.02607421875
3.0244628906249997
3.0228515624999996
3.0228515624999996
3.0236572265625
3.02607421875
3.0268798828124996
3.021240234375
3.0252685546875
3.0268798828124996
3.0301025390625
3.0228515624999996
3.0244628906249997
3.02607421875
3.02607421875
3.0204345703124997
3.0252685546875
3.0301025390625
3.029296875
3.0252685546875
3.0301025390625
3.0268798828124996
0.024169921875
0.0217529296875
0.4600341796875
0.4149169921875
0.7154296874999999
1.948095703125
3.0301025390625
3.0252685546875
3.0268798828124996
3.0284912109374997
3.0301025390625
3.029296875
3.0252685546875
3.021240234375
3.0244628906249997
3.027685546875
3.02607421875
3.0301025390625
3.02607421875
2.9559814453124997
2.72958984375
3.0301025390625
3.02607421875
3.0268798828124996
3.029296875
3.0268798828124996
2.160791015625
0.9289306640624999
0.023364257812499997
0.024169921875
0.023364257812499997
0.024169921875
0.022558593749999998
0.026586914062499998
0.023364257812499997
0.0523681640625
0.0249755859375
0.0765380859375
0.4519775390625
0.5285156249999999
0.5309326171875
0.5567138671874999
0.022558593749999998
0.019335937499999997
0.027392578124999997
0.023364257812499997
0.023364257812499997
0.4519775390625
1.158544921875
3.0252685546875
3.021240234375
3.0268798828124996
2.402490234375
2.0012695312499997
1.638720703125
1.4759765624999999
1.4155517578124999
1.3502929687499998
1.0272216796875
0.8499755859375
0.8660888671875
0.7283203125
0.6856201171874999
0.6308349609374999
3.02607421875
2.963232421875
2.705419921875
2.8190185546874997
2.36865234375
0.6090820312499999
0.0249755859375
0.022558593749999998
0.022558593749999998
0.027392578124999997
0.022558593749999998
0.0217529296875
0.0217529296875
0.0878173828125
0.149853515625
0.2634521484375
0.5607421874999999
0.6630615234374999
0.7138183593749999
0.8024414062499999
0.7661865234374999
0.023364257812499997
0.022558593749999998
0.43505859375
0.2344482421875
0.46647949218749996
1.480810546875
3.027685546875
3.0099609375
2.953564453125
2.4210205078125
2.0729736328125
1.7104248046875
1.7281494140625
1.6322753906249998
1.6314697265625
1.4671142578124998
1.181103515625
1.1980224609374999
1.1617675781249999
1.1206787109375
1.1190673828125
3.027685546875
3.029296875
2.486279296875
2.7392578125
2.2389404296874997
1.119873046875
0.022558593749999998
0.024169921875
0.023364257812499997
0.024169921875
0.0217529296875
0.1490478515625
0.045117187499999996
0.42136230468749997
0.6380859375
0.9337646484375
1.0803955078125
1.134375
1.2093017578125
1.264892578125
1.239111328125
0.0249755859375
0.0201416015625
0.8991210937499999
0.5776611328125
0.8161376953124999
1.8006591796875
2.582958984375
3.0268798828124996
3.0268798828124996
2.5902099609375
2.2840576171875
1.877197265625
1.8820312499999998
1.7660156249999999
1.8224121093749999
1.7450683593749998
1.5009521484375
1.4300537109375
1.397021484375
1.3446533203125
1.3462646484374998
3.02607421875
3.0317138671875
2.566845703125
2.6490234375
2.4403564453124997
1.48564453125
0.08056640625
0.023364257812499997
0.024169921875
0.020947265625
0.091845703125
0.281982421875
0.4149169921875
0.6638671875
0.8846191406249999
1.0336669921875
1.139208984375
1.4912841796874998
1.525927734375
1.5557373046874998
1.5251220703125
0.024169921875
0.023364257812499997
0.9152343749999999
0.7879394531249999
0.7371826171875
1.46953125
2.6095458984374997
3.0268798828124996
3.027685546875
2.6804443359374996
2.309033203125
2.0310791015625
1.880419921875
1.8006591796875
1.8788085937499999
1.8264404296874999
1.5734619140625
1.5347900390625
1.5605712890624999
1.4848388671875
1.52109375
1.4759765624999999
3.029296875
2.5160888671875
2.45888671875
2.63291015625
1.585546875
0.749267578125
0.023364257812499997
0.018530273437499998
0.023364257812499997
0.15871582031249998
0.29970703125
0.53173828125
0.7879394531249999
1.03125
1.2141357421874999
1.361572265625
1.5275390624999998
1.5017578125
1.542041015625
1.5428466796875
1.4872558593749998
0.019335937499999997
0.7718261718749999
0.765380859375
0.694482421875
1.4268310546874998
2.2429687499999997
3.0252685546875
3.0252685546875
2.8874999999999997
2.5386474609375
2.1664306640624997
2.038330078125
1.98837890625
1.9215087890625
1.9134521484375
1.8095214843749998
1.542041015625
1.4010498046875
1.4542236328125
1.448583984375
1.432470703125
3.02607421875
2.9608154296875
2.441162109375
2.52978515625
2.247802734375
1.3527099609375
0.024169921875
0.023364257812499997
0.024169921875
0.0298095703125
0.2634521484375
0.559130859375
0.5551025390625
1.0489746093749999
1.1915771484375
1.442138671875
1.5815185546875
1.574267578125
1.5984375
1.606494140625
1.51787109375
0.024169921875
0.091845703125
0.8435302734375
0.7436279296874999
1.0868408203125
2.0101318359375
3.02607421875
3.0244628906249997
3.0309082031249996
2.4991699218749996
2.176904296875
2.0012695312499997
1.9352050781249999
1.8860595703124998
1.912646484375
1.8199951171875
1.6105224609375
1.5782958984375
1.5718505859374998
1.5218994140625
1.5082031249999999
3.02607421875
3.0244628906249997
2.3984619140625
2.6127685546875
2.2993652343749997
1.29228515625
0.022558593749999998
0.02578125
0.023364257812499997
0.0958740234375
0.310986328125
0.523681640625
0.6195556640625
1.06669921875
1.1319580078125
1.3881591796875
1.561376953125
1.5766845703124999
1.6048828124999999
1.6072998046875
1.5235107421874998
0.024169921875
0.050756835937499994
0.8958984375
0.8096923828125
1.0006347656249999
1.993212890625
3.02607421875
3.0244628906249997
3.02607421875
2.6192138671875
2.3033935546874997
1.9787109374999998
1.973876953125
1.8635009765625
1.931982421875
1.843359375
1.611328125
1.590380859375
1.538818359375
1.5194824218749998
1.5025634765625
3.0220458984375
3.02607421875
2.3952392578125
2.5249511718749997
2.309033203125
1.3527099609375
0.588134765625
0.023364257812499997
0.0249755859375
0.026586914062499998
0.2731201171875
0.51884765625
0.6453369140624999
0.9257080078125
1.1456542968749999
1.3390136718749999
1.4880615234374999
1.60166015625
1.6024658203125
1.603271484375
1.5565429687499999
0.024169921875
0.026586914062499998
0.9192626953124999
0.75732421875
0.936181640625
1.6894775390624999
2.7408691406249996
3.0301025390625
3.0220458984375
2.7779296875
2.38154296875
2.1277587890625
1.9432617187499999
1.9569580078125
1.9545410156249998
1.8788085937499999
1.6081054687499998
1.5331787109375
1.5347900390625
1.6290527343749999
1.4711425781249998
1.4590576171874998
3.02607421875
2.4234375
2.3340087890625
2.46533203125
1.4832275390624998
0.6493652343749999
0.02578125
0.017724609375
0.023364257812499997
0.1232666015625
0.4116943359375
0.7387939453125
0.9079833984375
1.15048828125
1.222998046875
1.5331787109375
1.6234130859375
1.6266357421875
1.6322753906249998
1.5831298828125
1.4791992187499998
0.022558593749999998
0.8967041015624999
0.8266113281249999
0.7951904296875
1.5533203125
2.204296875
3.02607421875
3.0252685546875
2.7884033203125
2.4000732421874997
2.118896484375
1.9166748046875
1.9303710937499998
1.843359375
1.8409423828125
1.6556396484375
1.6234130859375
1.609716796875
1.5484863281249999
1.5492919921875
1.5323730468749999
3.0284912109374997
2.8456054687499996
2.4290771484375
2.495947265625
2.03994140625
1.24716796875
0.022558593749999998
0.020947265625
0.023364257812499997
0.201416015625
0.47453613281249996
0.733154296875
0.7887451171875
1.0965087890625
1.206884765625
1.3059814453124998
1.603271484375
1.6314697265625
1.6282470703124998
1.619384765625
1.5283447265624999
0.019335937499999997
0.3440185546875
0.9410156249999999
0.7855224609375
1.087646484375
1.8860595703124998
3.0284912109374997
3.0252685546875
3.0228515624999996
2.4371337890625
2.1325927734375
1.92392578125
1.9811279296875
1.98193359375
1.9521240234375
1.8336914062499998
1.5565429687499999
1.5605712890624999
1.5605712890624999
1.529150390625
1.4912841796874998
3.0236572265625
3.0268798828124996
2.3267578125
2.4532470703125
2.1970458984375
1.284228515625
0.02900390625
0.0201416015625
0.0249755859375
0.103125
0.3182373046875
0.6260009765625
0.726708984375
1.1859374999999999
1.20849609375
1.4848388671875
1.5895751953125
1.5799072265624998
1.6056884765625
1.6056884765625
1.53076171875
0.024169921875
0.141796875
0.913623046875
0.7927734375
1.0336669921875
2.0214111328124997
2.8141845703125
3.0252685546875
3.02607421875
2.5894042968749997
2.29453125
2.0085205078125
2.0149658203125
1.8385253906249999
1.9231201171874999
1.8046875
1.5976318359375
1.5533203125
1.5251220703125
1.4953124999999998
1.5017578125
3.027685546875
3.0204345703124997
2.36865234375
2.354150390625
2.22041015625
1.2979248046874998
0.5631591796875
0.022558593749999998
0.018530273437499998
0.024169921875
0.24814453125
0.6340576171875
0.765380859375
0.9990234375
1.16337890625
1.3317626953125
1.5621826171875
1.5686279296874999
1.6475830078125
1.635498046875
1.5984375
0.020947265625
0.0249755859375
0.9603515625
0.8056640625
0.9152343749999999
1.6967285156249998
2.34931640625
3.0284912109374997
3.0236572265625
2.7408691406249996
2.2582763671875
2.038330078125
1.915869140625
1.8425537109374999
1.8957275390625
1.8046875
1.6878662109375
1.62744140625
1.6242187499999998
1.58232421875
1.5186767578125
1.5670166015625
3.02607421875
2.3630126953125
2.3082275390625
2.418603515625
1.77890625
0.6388916015624999
0.023364257812499997
0.02578125
0.023364257812499997
0.32951660156249996
0.5212646484375
0.7959960937499999
0.9877441406249999
1.2109130859375
1.284228515625
1.40185546875
1.658056640625
1.6209960937499999
1.590380859375
1.5662109375
1.3784912109374998
0.0201416015625
0.913623046875
0.825
0.7806884765625
1.6411376953124999
2.37509765625
3.0252685546875
3.0309082031249996
2.68125
2.383154296875
2.157568359375
1.9182861328124998
1.9529296875
1.9053955078125
1.8884765625
1.7764892578125
1.533984375
1.525927734375
1.5025634765625
1.4840332031249999
1.477587890625
3.0252685546875
2.7191162109375
2.3912109375
2.43955078125
1.9464843749999998
1.2052734375
0.022558593749999998
0.022558593749999998
0.020947265625
0.193359375
0.526904296875
0.7806884765625
0.7702148437499999
1.1883544921875
1.2866455078124999
1.4687255859375
1.5162597656249999
1.56298828125
1.5992431640625
1.606494140625
1.5235107421874998
0.0201416015625
0.4600341796875
0.9547119140625
0.807275390625
1.1295410156249999
1.9352050781249999
3.0252685546875
3.02607421875
3.0252685546875
2.5305908203125
2.176904296875
1.9940185546875
1.9956298828124999
1.9029785156249999
1.9231201171874999
1.8361083984375
1.5879638671874998
1.5702392578125
1.5323730468749999
1.482421875
1.5146484375
3.0268798828124996
3.0268798828124996
2.3388427734375
2.4290771484375
2.1857666015625
1.235888671875
0.023364257812499997
0.023364257812499997
0.020947265625
0.2135009765625
0.40605468749999996
0.7323486328125
0.781494140625
1.2093017578125
1.216552734375
1.3220947265624998
1.6000488281249998
1.5428466796875
1.6588623046875
1.667724609375
1.53720703125
0.023364257812499997
0.30856933593749997
0.9627685546875
0.775048828125
1.068310546875
1.944873046875
3.0236572265625
3.0252685546875
3.0091552734375
2.55234375
2.204296875
1.9666259765624998
1.9875732421874999
1.7668212890625
1.915869140625
1.7120361328125
1.625830078125
1.5984375
1.60166015625
1.5364013671874999
1.5146484375
2.328369140625
3.0244628906249997
2.2832519531249997
2.3130615234375
2.160791015625
1.2737548828124998
0.6171386718749999
0.024169921875
0.0217529296875
0.0249755859375
0.3262939453125
0.671923828125
0.7726318359375
1.0803955078125
1.2109130859375
1.300341796875
1.448583984375
1.56943359375
1.6218017578125
1.6137451171875
1.5347900390625
0.023364257812499997
0.0201416015625
0.9877441406249999
0.8531982421875
1.019970703125
1.8038818359375
2.4854736328125
3.0220458984375
3.0268798828124996
2.70703125
2.2832519531249997
2.03671875
1.9110351562499999
1.9916015624999999
1.9352050781249999
1.9489013671875
1.7249267578124998
1.522705078125
1.5122314453124999
1.5492919921875
1.5509033203125
1.8900878906249998
3.0244628906249997
2.52978515625
2.2349121093749997
2.354150390625
1.8046875
0.5849121093749999
0.0249755859375
0.02578125
0.02578125
0.2747314453125
0.5486572265624999
0.7887451171875
0.974853515625
1.1666015625
1.3092041015625
1.5597656249999998
1.6209960937499999
1.6000488281249998
1.6000488281249998
1.5645996093749999
1.135986328125
0.018530273437499998
0.9547119140625
0.8185546874999999
0.8531982421875
1.26328125
2.2993652343749997
3.0268798828124996
3.0252685546875
2.6949462890625
2.373486328125
2.135009765625
1.9190917968749999
1.8941162109374998
1.8417480468749998
1.8651123046875
1.7595703125
1.59521484375
1.5702392578125
1.58232421875
1.5662109375
1.529150390625
3.02607421875
2.634521484375
2.3912109375
2.42666015625
1.8651123046875
1.0111083984375
0.023364257812499997
0.0249755859375
0.02578125
0.3037353515625
0.46083984375
0.8266113281249999
0.8370849609375
1.1432373046875
1.264892578125
1.35673828125
1.5919921874999998
1.6121337890624998
1.6491943359374999
1.5645996093749999
1.5380126953125
0.023364257812499997
0.604248046875
0.97001953125
0.8805908203124999
1.1819091796874999
1.8755859375
3.0244628906249997
3.0309082031249996
2.860107421875
2.4016845703125
2.1245361328125
1.9916015624999999
2.0165771484375
1.869140625
1.8860595703124998
1.6846435546874998
1.5799072265624998
1.6089111328124999
1.571044921875
1.5275390624999998
1.49853515625
3.0268798828124996
3.0268798828124996
2.3726806640625
2.4322998046874997
2.1245361328125
1.2310546875
0.026586914062499998
0.0281982421875
0.019335937499999997
0.2441162109375
0.443115234375
0.6767578125
0.8580322265625
1.229443359375
1.2608642578125
1.3623779296874998
1.587158203125
1.6121337890624998
1.60166015625
1.6072998046875
1.5275390624999998
0.024169921875
0.019335937499999997
0.926513671875
0.8000244140624999
1.0119140625
1.9754882812499999
3.0043212890624997
3.0220458984375
3.021240234375
2.513671875
2.2671386718749997
2.0431640625
1.9730712890625
1.8715576171875
1.9682373046875
1.84013671875
1.5654052734375
1.545263671875
1.542041015625
1.509814453125
1.4864501953125
2.876220703125
3.0301025390625
2.254248046875
2.3662353515625
2.0939208984374997
1.2157470703125
0.439892578125
0.023364257812499997
0.0281982421875
0.042700195312499994
0.32871093749999997
0.700927734375
0.7798828124999999
1.0658935546875
1.1279296875
1.353515625
1.5863525390625
1.5927978515624999
1.6056884765625
1.55009765625
1.5476806640624998
0.026586914062499998
0.019335937499999997
0.9861328125
0.8403076171874999
1.0352783203125
1.832080078125
2.4403564453124997
3.0268798828124996
3.027685546875
2.6836669921875
2.3799316406249997
2.0278564453125
1.9311767578124999
1.9110351562499999
1.9327880859375
1.8369140625
1.6572509765624999
1.61455078125
1.5839355468749998
1.5847412109374999
1.5533203125
2.180126953125
3.02607421875
2.4919189453125
2.3267578125
2.3742919921875
1.7418457031249999
0.588134765625
0.023364257812499997
0.024169921875
0.023364257812499997
0.362548828125
0.5841064453125
0.7887451171875
1.044140625
1.2109130859375
1.303564453125
1.3784912109374998
1.6403320312499998
1.6443603515624998
1.6346923828125
1.5992431640625
0.8258056640625
0.022558593749999998
0.9289306640624999
0.8660888671875
0.863671875
1.2826171874999999
2.360595703125
3.0252685546875
3.0284912109374997
2.7207275390624996
2.3525390625
2.0810302734375
1.9118408203125
1.8812255859375
1.8755859375
1.8393310546875
1.6314697265625
1.5428466796875
1.58232421875
1.5831298828125
1.571044921875
1.5355957031249998
3.02607421875
2.5499267578125
2.3259521484375
2.4161865234374997
1.8071044921875
1.0481689453125
0.023364257812499997
0.02578125
0.024169921875
0.21591796875
0.4229736328125
0.749267578125
0.8709228515624999
1.190771484375
1.2938964843749998
1.4920898437499999
1.5654052734375
1.585546875
1.5807128906249999
1.5766845703124999
1.5033691406249998
0.024169921875
0.6372802734374999
0.9402099609375
0.8282226562499999
1.2536132812499998
1.9215087890625
3.0228515624999996
3.0268798828124996
2.9503417968749996
2.5338134765625
2.1865722656249997
2.0246337890625
2.0036865234375
1.880419921875
1.883642578125
1.8111328125
1.5637939453124998
1.5517089843749998
1.538818359375
1.50498046875
1.5331787109375
3.0284912109374997
3.0268798828124996
2.3839599609374997
2.4113525390625
2.141455078125
1.303564453125
0.024169921875
0.0201416015625
0.0281982421875
0.2199462890625
0.4390869140625
0.7323486328125
0.7782714843749999
1.0489746093749999
1.2415283203124998
1.361572265625
1.6000488281249998
1.6177734375
1.6129394531249999
1.6024658203125
1.4791992187499998
0.027392578124999997
0.023364257812499997
0.9724365234375
0.8080810546874999
1.0578369140625
1.8393310546875
3.0244628906249997
3.0301025390625
3.0268798828124996
2.5201171875
2.2405517578125
2.0004638671875
1.944873046875
1.7603759765625
1.90458984375
1.7047851562499998
1.6024658203125
1.662890625
1.61455078125
1.554931640625
1.542041015625
3.0220458984375
3.0252685546875
2.2671386718749997
2.3694580078125
2.1205078125
1.2334716796875
0.502734375
0.020947265625
0.023364257812499997
0.088623046875
0.375439453125
0.7130126953125
0.8266113281249999
1.1384033203125
1.2528076171875
1.327734375
1.538818359375
1.590380859375
1.5992431640625
1.6072998046875
1.5476806640624998
0.024169921875
0.023364257812499997
0.9812988281249999
0.8902587890625
1.06669921875
1.8618896484374998
2.505615234375
3.0236572265625
3.02607421875
2.6546630859375
2.3074218749999997
2.0657226562499997
1.8868652343749999
1.8683349609375
1.899755859375
1.8240234375
1.638720703125
1.5839355468749998
1.5484863281249999
1.5235107421874998
1.5017578125
2.6820556640624997
3.0236572265625
2.4081298828124997
2.321923828125
2.28486328125
1.62744140625
0.575244140625
0.020947265625
0.023364257812499997
0.017724609375
0.31904296875
0.5873291015625
0.7702148437499999
1.0465576171875
1.222998046875
1.3494873046875
1.4961181640624999
1.533984375
1.5678222656249998
1.5960205078124998
1.5541259765625
0.38349609375
0.022558593749999998
0.9482666015625
0.8314453125
0.8773681640625
1.4373046875
2.425048828125
3.02607421875
3.0252685546875
2.69736328125
2.389599609375
2.1229248046875
1.9545410156249998
1.9553466796874999
1.91748046875
1.8739746093749998
1.73056640625
1.5380126953125
1.5444580078124999
1.5525146484374999
1.5033691406249998
1.5146484375
3.0244628906249997
2.4830566406249996
2.3291748046875
2.4032958984375
1.7080078125
0.942626953125
0.023364257812499997
0.0201416015625
0.023364257812499997
0.2747314453125
0.4962890625
0.8403076171874999
0.9305419921875
1.2020507812499999
1.3494873046875
1.3752685546874999
1.5597656249999998
1.5557373046874998
1.5847412109374999
1.6298583984375
1.51787109375
0.022558593749999998
0.7275146484374999
0.9474609374999999
0.8048583984375
1.224609375
1.844970703125
3.0236572265625
3.0244628906249997
2.8552734374999997
2.4830566406249996
2.1454833984375
1.944873046875
1.96904296875
1.8957275390625
1.864306640625
1.6798095703125
1.6072998046875
1.6137451171875
1.5992431640625
1.554931640625
1.5194824218749998
3.02607421875
3.02607421875
2.29453125
2.402490234375
2.125341796875
1.2858398437499998
0.023364257812499997
0.019335937499999997
0.022558593749999998
0.30454101562499997
0.4842041015625
0.7315429687499999
0.82177734375
1.1867431640625
1.2616699218749998
1.34384765625
1.609716796875
1.609716796875
1.6040771484374998
1.538818359375
1.525927734375
0.023364257812499997
0.024169921875
0.9692138671874999
0.7718261718749999
1.1110107421875
1.9593749999999999
3.0244628906249997
3.0220458984375
3.02607421875
2.5096435546875
2.2566650390625
2.0149658203125
1.973876953125
1.9279541015625
1.920703125
1.791796875
1.5645996093749999
1.5637939453124998
1.5476806640624998
1.4751708984374998
1.4953124999999998
3.0252685546875
3.027685546875
2.230078125
2.4451904296875
2.2969482421875
1.2979248046874998
0.127294921875
0.023364257812499997
0.026586914062499998
0.120849609375
0.36093749999999997
0.6509765624999999
0.7943847656249999
1.084423828125
1.2141357421874999
1.4711425781249998
1.5347900390625
1.4679199218749999
1.546875
1.5839355468749998
1.5637939453124998
0.026586914062499998
0.0217529296875
0.9144287109375
0.8121093749999999
1.0497802734375
1.8981445312499998
2.4403564453124997
3.029296875
3.0236572265625
2.6683593749999996
2.37509765625
2.0133544921874997
1.9118408203125
1.8715576171875
1.928759765625
1.883642578125
1.703173828125
1.5976318359375
1.5847412109374999
1.5364013671874999
1.509814453125
2.9817626953125
3.02607421875
2.4403564453124997
2.3203125
2.2357177734375
1.5202880859374999
0.7565185546875
0.023364257812499997
0.023364257812499997
0.023364257812499997
0.32468261718749997
0.5728271484374999
0.8354736328125
0.9128173828124999
1.2640869140625
1.3728515625
1.4501953125
1.6604736328124998
1.6371093749999999
1.6403320312499998
1.5911865234375
0.02578125
0.023364257812499997
0.7806884765625
0.8572265625
0.9369873046874999
1.50498046875
2.389599609375
3.0268798828124996
3.0244628906249997
2.747314453125
2.3396484374999997
2.0858642578124997
1.9352050781249999
1.8167724609375
1.8498046874999998
1.8216064453124998
1.6379150390625
1.5960205078124998
1.6056884765625
1.5654052734375
1.5347900390625
1.5041748046874999
3.027685546875
2.479833984375
2.3630126953125
2.4234375
1.6475830078125
0.9514892578124999
0.024169921875
0.024169921875
0.017724609375
0.2989013671875
0.517236328125
0.79921875
1.0086914062499999
1.1915771484375
1.27294921875
1.393798828125
1.590380859375
1.5887695312499999
1.6072998046875
1.5895751953125
1.53720703125
0.0281982421875
0.7081787109375
0.8805908203124999
0.8443359374999999
1.3180664062499998
2.0197998046875
3.0252685546875
3.0268798828124996
2.85205078125
2.4806396484374997
2.1100341796874997
1.9666259765624998
1.9996582031249999
1.8957275390625
1.8570556640625
1.764404296875
1.5887695312499999
1.56943359375
1.55009765625
1.52109375
1.5106201171875
3.0284912109374997
2.9825683593749996
2.3146728515625
2.502392578125
2.08828125
1.2955078125
0.024169921875
0.022558593749999998
0.027392578124999997
0.141796875
0.4729248046875
0.736376953125
0.7661865234374999
1.16337890625
1.2753662109375
1.48564453125
1.5355957031249998
1.5807128906249999
1.5895751953125
1.5847412109374999
1.5605712890624999
0.023364257812499997
0.0555908203125
0.913623046875
0.8282226562499999
1.1496826171874999
1.9682373046875
3.0252685546875
3.0220458984375
3.0244628906249997
2.4870849609374996
2.212353515625
2.0036865234375
1.96904296875
1.85625
1.8578613281249998
1.791796875
1.5831298828125
1.6129394531249999
1.561376953125
1.542041015625
1.5194824218749998
3.0252685546875
3.02607421875
2.28486328125
2.42666015625
2.2171875
1.2640869140625
0.30856933593749997
0.024169921875
0.023364257812499997
0.14018554687499998
0.39638671875
0.6904541015625
0.8435302734375
1.152099609375
1.2777832031249998
1.3929931640625
1.5517089843749998
1.6121337890624998
1.6177734375
1.5831298828125
1.5533203125
0.02578125
0.024169921875
0.95390625
0.845947265625
0.9474609374999999
1.9859619140625
2.6401611328124996
3.027685546875
3.003515625
2.56845703125
2.27197265625
2.0044921875
1.9110351562499999
1.7764892578125
1.8957275390625
1.8111328125
1.5662109375
1.5791015625
1.5839355468749998
1.5670166015625
1.4711425781249998
3.0252685546875
3.029296875
2.4145751953125
2.2623046875
2.1922119140625
1.482421875
0.849169921875
0.018530273437499998
0.0249755859375
0.026586914062499998
0.3150146484375
0.6630615234374999
0.8773681640625
1.03125
1.2262207031249999
1.3502929687499998
1.49853515625
1.5734619140625
1.585546875
1.6040771484374998
1.5839355468749998
0.018530273437499998
0.022558593749999998
0.8346679687499999
0.781494140625
0.913623046875
1.5017578125
2.11728515625
3.02607421875
3.02607421875
2.7932373046874996
2.370263671875
2.1245361328125
1.948095703125
1.8925048828125
1.848193359375
1.8296630859374998
1.751513671875
1.5267333984375
1.574267578125
1.5275390624999998
1.5154541015624998
1.496923828125
3.0268798828124996
2.4226318359375
2.23974609375
2.3452880859375
1.9634033203124999
0.9071777343749999
0.0249755859375
0.024169921875
0.024169921875
0.3069580078125
0.6227783203124999
0.7951904296875
0.9651855468749999
1.20849609375
1.300341796875
1.5186767578125
1.6209960937499999
1.6072998046875
1.593603515625
1.6137451171875
1.5331787109375
0.02578125
0.7299316406249999
0.8507812499999999
0.8596435546875
1.448583984375
1.9867675781249998
3.0268798828124996
3.0268798828124996
2.8061279296875
2.4766113281249997
2.1785156249999997
1.9545410156249998
1.9005615234375
1.864306640625
1.8659179687499998
1.7039794921875
1.60166015625
1.60166015625
1.5637939453124998
1.5404296874999999
1.5573486328125
3.029296875
2.921337890625
2.2985595703125
2.36220703125
2.012548828125
1.303564453125
0.21108398437499998
0.0217529296875
0.024169921875
0.182080078125
0.5615478515625
0.845947265625
0.8773681640625
1.1287353515625
1.2834228515625
1.3623779296874998
1.5887695312499999
1.6072998046875
1.611328125
1.6137451171875
1.5444580078124999
0.019335937499999997
0.1474365234375
0.9047607421874999
0.8499755859375
1.1657958984374999
1.920703125
3.0268798828124996
3.0301025390625
3.01962890625
2.4758056640625
2.1567626953125
1.957763671875
1.9102294921874998
1.8763916015625
1.8868652343749999
1.7853515624999998
1.5726562499999999
1.5758789062499998
1.5718505859374998
1.609716796875
1.5509033203125
3.02607421875
3.02607421875
2.281640625
2.3525390625
2.13984375
1.3575439453125
0.02578125
0.026586914062499998
0.018530273437499998
0.1998046875
0.4036376953125
0.6791748046874999
0.8113037109375
1.12470703125
1.2415283203124998
1.3768798828125
1.5444580078124999
1.5597656249999998
1.5766845703124999
1.574267578125
1.5509033203125
0.017724609375
0.037060546874999996
0.897509765625
0.8193603515625
0.9990234375
1.928759765625
2.534619140625
3.0244628906249997
3.0228515624999996
2.5958496093749996
2.3114501953124997
2.07861328125
1.9352050781249999
1.8868652343749999
1.9247314453125
1.8256347656249998
1.5976318359375
1.590380859375
1.577490234375
1.5355957031249998
1.5138427734375
3.027685546875
3.0252685546875
2.40087890625
2.2566650390625
2.152734375
1.4139404296875
0.7959960937499999
0.0249755859375
0.024169921875
0.027392578124999997
0.38591308593749996
0.7371826171875
0.920068359375
1.042529296875
1.27294921875
1.3261230468749998
1.4977294921875
1.6443603515624998
1.6000488281249998
