2.5289794921874997
3.0252685546875
3.0268798828124996
2.42666015625
2.17529296875
2.01416015625
1.8667236328124999
1.699951171875
1.6935058593749999
1.67578125
1.6129394531249999
1.6153564453125
1.6242187499999998
1.5847412109374999
1.5001464843749999
1.50498046875
3.0220458984375
2.63291015625
2.3452880859375
2.204296875
1.6532226562499999
1.2262207031249999
0.5003173828124999
0.026586914062499998
0.088623046875
0.399609375
0.6968994140625
1.0191650390625
1.084423828125
1.3100097656249998
1.3817138671875
1.4461669921875
1.53076171875
1.6024658203125
1.545263671875
1.6121337890624998
1.4308593749999998
0.02900390625
0.4680908203125
0.662255859375
0.9659912109375
1.4091064453125
1.7579589843749999
3.021240234375
3.0244628906249997
2.6498291015624997
2.4016845703125
2.0616943359374997
1.9593749999999999
1.8618896484374998
1.66611328125
1.6290527343749999
1.5992431640625
1.5734619140625
1.55009765625
1.5847412109374999
1.5944091796875
1.5944091796875
3.02607421875
2.9108642578125
2.3920166015624997
2.20751953125
1.989990234375
1.2616699218749998
0.4970947265625
0.0281982421875
0.0539794921875
0.42216796874999996
0.65419921875
0.9305419921875
1.0433349609375
1.232666015625
1.26328125
1.448583984375
1.5750732421875
1.6814208984374999
1.6403320312499998
1.529150390625
1.493701171875
0.023364257812499997
0.38671875
0.6807861328125
0.9224853515625
1.1947998046875
1.751513671875
3.0284912109374997
3.0252685546875
2.7448974609374996
2.4081298828124997
2.1261474609374997
1.893310546875
1.8344970703124999
1.7410400390624998
1.7128417968749998
1.6346923828125
1.5533203125
1.5194824218749998
1.5283447265624999
1.4953124999999998
1.4791992187499998
3.0220458984375
2.947119140625
2.5491210937499997
2.3404541015625
1.8941162109374998
1.46953125
0.5373779296875
0.0249755859375
0.027392578124999997
0.28037109374999997
0.549462890625
0.942626953125
1.0417236328125
1.284228515625
1.3817138671875
1.4630859374999998
1.4880615234374999
1.5525146484374999
1.5331787109375
1.5702392578125
1.48564453125
0.023364257812499997
0.11279296875
0.6123046875
0.8362792968749999
1.1947998046875
1.770849609375
2.1060058593749997
3.0252685546875
2.9978759765625
2.7078369140625
2.2840576171875
1.9086181640625
1.9408447265625
1.7724609375
1.6371093749999999
1.5887695312499999
1.558154296875
1.509814453125
1.4832275390624998
1.545263671875
1.46630859375
2.7892089843749996
3.029296875
2.5330078124999997
2.338037109375
2.1076171875
1.53076171875
0.7557128906249999
0.2827880859375
0.02900390625
0.2537841796875
0.6002197265625
0.8000244140624999
0.9893554687499999
1.229443359375
1.3212890625
1.4477783203124999
1.5533203125
1.5734619140625
1.6314697265625
1.6524169921874998
1.6403320312499998
0.020947265625
0.0249755859375
0.5607421874999999
0.7412109375
0.9224853515625
1.5621826171875
2.0625
3.0252685546875
3.0156005859375
2.62646484375
2.3259521484375
1.9795166015624999
1.8981445312499998
1.8248291015625
1.6854492187499999
1.6379150390625
1.6201904296874998
1.5927978515624999
1.5847412109374999
1.5404296874999999
1.5235107421874998
1.5799072265624998
3.0220458984375
2.6192138671875
2.3452880859375
2.060888671875
1.587158203125
1.1561279296875
0.40524902343749997
0.0249755859375
0.18288574218749998
0.4600341796875
0.813720703125
1.029638671875
1.1255126953124999
1.2979248046874998
1.5251220703125
1.55009765625
1.5444580078124999
1.5791015625
1.5662109375
1.5323730468749999
0.27231445312499997
0.024169921875
0.4568115234375
0.742822265625
0.9474609374999999
1.3543212890624998
1.77568359375
3.0252685546875
3.0268798828124996
2.840771484375
2.3614013671875
2.080224609375
1.8626953124999999
1.7418457031249999
1.722509765625
1.6540283203125
1.5533203125
1.5815185546875
1.5460693359375
1.5662109375
1.5315673828124998
1.51787109375
3.0268798828124996
2.715087890625
2.3662353515625
2.1849609375
1.64677734375
1.2802001953125
0.43344726562499997
0.11037597656249999
0.11762695312499999
0.4833984375
0.7710205078125
0.9571289062499999
1.0119140625
1.2785888671874999
1.384130859375
1.4074951171874999
1.5090087890625
1.4961181640624999
1.4848388671875
1.558154296875
1.5927978515624999
0.0217529296875
0.44633789062499996
0.6711181640624999
0.8934814453125
1.42119140625
1.7692382812499998
3.0188232421874996
3.027685546875
2.7867919921874997
2.4234375
2.115673828125
1.90458984375
1.912646484375
1.7410400390624998
1.6137451171875
1.6185791015625
1.5565429687499999
1.5670166015625
1.5517089843749998
1.47275390625
1.4832275390624998
3.02607421875
2.92294921875
2.50400390625
2.2614990234375
2.0262451171875
1.603271484375
0.42216796874999996
0.11037597656249999
0.020947265625
0.265869140625
0.7822998046874999
0.95068359375
0.9563232421875
1.284228515625
1.448583984375
1.5170654296875
1.558154296875
1.5404296874999999
1.5154541015624998
1.587158203125
1.5347900390625
0.022558593749999998
0.14421386718749998
0.6912597656249999
0.8805908203124999
1.1222900390625
1.7257324218749999
2.6014892578124997
3.02607421875
3.0204345703124997
2.54267578125
2.2236328125
1.9617919921875
1.8441650390625
1.683837890625
1.7047851562499998
1.687060546875
1.6185791015625
1.5839355468749998
1.5702392578125
1.5154541015624998
1.5106201171875
2.76181640625
3.0083496093749997
2.470166015625
2.2711669921874997
2.1221191406249997
1.5299560546875
0.8918701171875
0.1796630859375
0.024169921875
0.37705078124999997
0.62841796875
0.97001953125
1.0505859375
1.2584472656249999
1.30517578125
1.482421875
1.5404296874999999
1.4832275390624998
1.4953124999999998
1.5702392578125
1.5533203125
0.0217529296875
0.023364257812499997
0.5567138671874999
0.7879394531249999
1.0868408203125
1.52109375
2.0133544921874997
3.0268798828124996
3.0220458984375
2.6466064453125
2.402490234375
1.9924072265625
1.9078125
1.7853515624999998
1.6878662109375
1.6475830078125
1.5879638671874998
1.5243164062499999
1.5275390624999998
1.5605712890624999
1.513037109375
2.576513671875
3.0268798828124996
2.6272705078125
2.2913085937499997
2.10439453125
1.641943359375
0.9474609374999999
0.1893310546875
0.0217529296875
0.17241210937499998
0.580078125
0.8999267578125
0.9635742187499999
1.1512939453125
1.3825195312499998
1.43408203125
1.4872558593749998
1.4961181640624999
1.5621826171875
1.5509033203125
1.5525146484374999
0.40283203125
0.023364257812499997
0.4729248046875
0.7581298828124999
0.9998291015624999
1.4872558593749998
2.0012695312499997
3.0252685546875
3.0244628906249997
2.6683593749999996
2.312255859375
2.0415527343749997
1.8651123046875
1.7531249999999998
1.69189453125
1.6411376953124999
1.5791015625
1.6298583984375
1.6266357421875
1.7426513671875
1.525927734375
1.5202880859374999
3.0317138671875
2.5950439453125
2.34609375
2.1052001953125
1.6604736328124998
1.2503906249999999
0.3472412109375
0.0249755859375
0.1571044921875
0.4519775390625
0.7339599609374999
1.0046630859374999
1.0634765625
1.2914794921875
1.4791992187499998
1.5017578125
1.5146484375
1.546875
1.5960205078124998
1.5299560546875
0.639697265625
0.023364257812499997
0.436669921875
0.6856201171874999
1.0272216796875
1.4066894531249998
1.77890625
3.0228515624999996
3.02607421875
2.7916259765625
2.434716796875
2.07861328125
1.928759765625
1.8570556640625
1.69189453125
1.5831298828125
1.5976318359375
1.5831298828125
1.5436523437499998
1.5170654296875
1.5267333984375
1.53720703125
3.0220458984375
2.9285888671875
2.4363281249999997
2.21396484375
1.941650390625
1.303564453125
0.3714111328125
0.095068359375
0.0201416015625
0.420556640625
0.6711181640624999
0.9176513671875
1.134375
1.300341796875
1.4155517578124999
1.4550292968749998
1.5267333984375
1.5509033203125
1.5009521484375
1.56943359375
1.4397216796874999
0.022558593749999998
0.44553222656249997
0.6340576171875
0.87978515625
1.3043701171875
1.703173828125
2.5732910156249997
3.02607421875
2.8560791015625
2.53623046875
2.3146728515625
1.9714599609374999
1.864306640625
1.6806152343749998
1.6403320312499998
1.6693359374999999
1.5605712890624999
1.5267333984375
1.5541259765625
1.513037109375
1.5557373046874998
3.0252685546875
2.9745117187499996
2.463720703125
2.281640625
1.9916015624999999
1.4598632812499999
0.8967041015624999
0.1119873046875
0.0169189453125
0.2940673828125
0.694482421875
0.9410156249999999
0.9756591796874999
1.2624755859374999
1.400244140625
1.477587890625
1.545263671875
1.5073974609374998
1.5412353515625
1.5347900390625
1.5235107421874998
0.0249755859375
0.04189453125
0.6034423828125
0.8274169921875
1.206884765625
1.6725585937499998
2.357373046875
3.0252685546875
3.0228515624999996
2.52978515625
2.2631103515624997
2.0149658203125
1.8788085937499999
1.7249267578124998
1.6636962890625
1.64677734375
1.574267578125
1.60166015625
1.6089111328124999
1.585546875
1.5404296874999999
2.616796875
3.0252685546875
2.512060546875
2.3936279296875
2.0761962890625
1.5114257812499998
0.93779296875
0.28359375
0.0249755859375
0.1651611328125
0.49790039062499997
0.8322509765624999
0.994189453125
1.24716796875
1.3744628906249998
1.5621826171875
1.6266357421875
1.6451660156249999
1.477587890625
1.5517089843749998
1.561376953125
0.3053466796875
0.022558593749999998
0.5285156249999999
0.7234863281249999
1.0562255859375
1.593603515625
2.0052978515624997
3.021240234375
3.0268798828124996
2.631298828125
2.26875
2.0173828124999997
1.8344970703124999
1.6975341796874999
1.6371093749999999
1.6572509765624999
1.6008544921874999
1.53720703125
1.5251220703125
1.5380126953125
1.5517089843749998
2.3211181640625
3.02607421875
2.6538574218749997
2.354150390625
2.1777099609375
1.7136474609374999
1.2737548828124998
0.30454101562499997
0.0120849609375
0.1732177734375
0.517236328125
0.749267578125
0.942626953125
1.07958984375
1.36962890625
1.4413330078125
1.5412353515625
1.5186767578125
1.53720703125
1.6475830078125
1.5073974609374998
0.6840087890625
0.023364257812499997
0.38349609375
0.7460449218749999
0.9708251953125
1.368017578125
1.9400390625
3.0252685546875
3.02607421875
2.6522460937499996
2.37509765625
2.1406494140625
1.8868652343749999
1.7531249999999998
1.67900390625
1.687060546875
1.654833984375
1.5919921874999998
1.6177734375
1.56943359375
1.6121337890624998
1.4953124999999998
3.0228515624999996
2.7497314453125
2.4556640625
2.273583984375
1.7772949218749998
1.2914794921875
0.42619628906249996
0.0837890625
0.046728515624999994
0.404443359375
0.6517822265625
1.026416015625
1.1134277343749999
1.32451171875
1.432470703125
1.482421875
1.554931640625
1.538818359375
1.6185791015625
1.6008544921874999
1.6306640625
0.022558593749999998
0.3681884765625
0.668701171875
0.91845703125
1.2777832031249998
1.7128417968749998
2.5080322265625
3.0220458984375
2.9197265624999997
2.47822265625
2.1221191406249997
1.9142578124999998
1.832080078125
1.667724609375
1.6298583984375
1.6330810546874999
1.611328125
1.5807128906249999
1.5645996093749999
1.5484863281249999
1.5017578125
3.0252685546875
2.9455078125
2.4242431640624997
2.2018798828125
1.9754882812499999
1.496923828125
0.42216796874999996
0.1699951171875
0.062841796875
0.4245849609375
0.620361328125
0.9385986328125
1.074755859375
1.327734375
1.43408203125
1.4719482421874999
1.4816162109375
1.3422363281249998
1.4832275390624998
1.5154541015624998
1.4284423828125
0.02578125
0.0443115234375
0.6187499999999999
0.7516845703124999
1.1706298828125
1.6604736328124998
2.38154296875
3.0204345703124997
2.9181152343749996
2.6039062499999996
2.312255859375
2.0302734375
1.8425537109374999
1.7571533203124998
1.6991455078125
1.6733642578124999
1.6201904296874998
1.5597656249999998
1.5251220703125
1.5517089843749998
1.53076171875
2.6337158203124997
3.0244628906249997
2.534619140625
2.2872802734374997
2.0109375
1.5194824218749998
0.9990234375
0.23203125
0.053173828124999996
0.24814453125
0.5929687499999999
0.863671875
0.9643798828125
1.2181640624999999
1.3768798828125
1.4332763671875
1.4880615234374999
1.506591796875
1.5114257812499998
1.59521484375
1.5863525390625
0.026586914062499998
0.024169921875
0.58974609375
0.823388671875
1.0594482421875
1.58232421875
2.0181884765625
3.0244628906249997
3.02607421875
2.6739990234374997
2.2429687499999997
1.9787109374999998
1.832080078125
1.6967285156249998
1.6798095703125
1.7611816406249998
1.5323730468749999
1.56298828125
1.6008544921874999
1.6129394531249999
1.558154296875
2.3968505859375
3.0252685546875
2.5394531249999996
2.3452880859375
2.1519287109375
1.64677734375
0.9337646484375
0.25458984375
0.023364257812499997
0.167578125
0.47856445312499996
0.8121093749999999
0.9917724609374999
1.2697265624999998
1.3962158203125
1.5017578125
1.4928955078125
1.4920898437499999
1.5396240234374998
1.6008544921874999
1.5041748046874999
0.5373779296875
0.023364257812499997
0.6260009765625
0.78310546875
0.9676025390624999
1.5017578125
1.8981445312499998
3.027685546875
3.0252685546875
2.65869140625
2.3614013671875
2.0407470703125
1.9037841796875
1.7772949218749998
1.754736328125
1.63388671875
1.6201904296874998
1.6483886718749998
1.571044921875
1.554931640625
1.5815185546875
1.5380126953125
3.029296875
2.6836669921875
2.38154296875
2.2083251953125
1.7096191406249999
1.3043701171875
0.375439453125
0.049145507812499996
0.1538818359375
0.39638671875
0.7468505859375
0.9611572265624999
1.06025390625
1.281005859375
1.3865478515624998
1.4896728515625
1.5299560546875
1.5186767578125
1.5879638671874998
1.5347900390625
0.8668945312499999
0.026586914062499998
0.27634277343749997
0.5583251953125
0.8765624999999999
1.110205078125
1.6822265625
3.027685546875
3.02607421875
3.0107666015624996
2.6941406249999997
2.2598876953125
2.0262451171875
1.8715576171875
1.6798095703125
1.6346923828125
1.606494140625
1.5605712890624999
1.5944091796875
1.5927978515624999
1.5565429687499999
1.48564453125
3.0268798828124996
3.0244628906249997
2.6321044921874996
2.4226318359375
2.270361328125
1.490478515625
0.4084716796875
0.042700195312499994
0.023364257812499997
0.18046874999999998
0.40122070312499997
0.5768554687499999
0.7532958984375
1.0175537109375
1.22783203125
1.3656005859375
1.43408203125
1.4195800781249999
1.4735595703125
1.496923828125
1.4928955078125
0.0201416015625
0.024169921875
0.15871582031249998
0.2505615234375
0.5309326171875
1.232666015625
2.3001708984375
3.0268798828124996
3.0236572265625
2.9438964843749997
2.83271484375
2.5394531249999996
2.462109375
2.2743896484375
2.04638671875
1.912646484375
1.85302734375
1.7635986328125
1.6242187499999998
1.6000488281249998
1.5654052734375
3.0244628906249997
3.0236572265625
3.02607421875
2.9833740234375
2.69091796875
2.0810302734375
1.2254150390625
0.019335937499999997
0.023364257812499997
0.0201416015625
0.069287109375
0.2135009765625
0.20463867187499998
0.6413085937499999
0.7629638671875
1.00546875
1.2125244140625
1.332568359375
1.4155517578124999
1.525927734375
1.6000488281249998
0.022558593749999998
0.022558593749999998
0.023364257812499997
0.024169921875
0.29245605468749997
0.9708251953125
1.5057861328125
3.029296875
3.0252685546875
3.0228515624999996
2.9680664062499997
2.779541015625
2.5708740234375
2.32998046875
2.193017578125
2.0858642578124997
1.915869140625
1.7982421874999999
1.7055908203124999
1.6556396484375
1.5734619140625
2.8939453124999996
3.021240234375
3.02607421875
3.0252685546875
3.0083496093749997
2.5434814453124996
1.6693359374999999
0.26022949218749997
0.022558593749999998
0.022558593749999998
0.0201416015625
0.024169921875
0.1232666015625
0.2634521484375
0.549462890625
0.6896484374999999
0.9273193359374999
1.09248046875
1.2721435546875
1.2753662109375
1.2850341796875
0.017724609375
0.022558593749999998
0.022558593749999998
0.026586914062499998
0.020947265625
0.4713134765625
1.026416015625
3.029296875
3.0252685546875
3.02607421875
3.0244628906249997
3.0244628906249997
2.9656494140625
2.9076416015624997
2.6981689453124997
2.576513671875
2.3879882812499997
2.0713623046875
2.0133544921874997
1.9327880859375
1.8280517578125
1.7039794921875
3.0284912109374997
3.02607421875
3.0252685546875
3.0284912109374997
2.7948486328124997
2.2937255859375
0.7210693359375
0.0201416015625
0.023364257812499997
0.023364257812499997
0.0249755859375
0.022558593749999998
0.022558593749999998
0.2135009765625
0.3585205078125
0.5132080078125
0.64453125
0.82177734375
0.9095947265625
0.9708251953125
0.027392578124999997
0.0217529296875
0.024169921875
0.023364257812499997
0.023364257812499997
0.0217529296875
0.388330078125
1.8884765625
3.0236572265625
3.0268798828124996
3.0244628906249997
3.02607421875
3.0244628906249997
3.0204345703124997
3.0252685546875
3.0244628906249997
2.9825683593749996
2.91328125
2.843994140625
2.73603515625
2.6192138671875
2.5644287109375
3.02607421875
3.0244628906249997
3.027685546875
3.0252685546875
3.0268798828124996
3.0252685546875
1.94970703125
1.1802978515625
0.02578125
0.023364257812499997
0.024169921875
0.024169921875
0.026586914062499998
0.022558593749999998
0.0217529296875
0.024169921875
0.023364257812499997
0.022558593749999998
0.0281982421875
0.0249755859375
0.0217529296875
0.019335937499999997
0.026586914062499998
0.023364257812499997
0.024169921875
0.0249755859375
0.022558593749999998
0.019335937499999997
0.023364257812499997
0.816943359375
1.703173828125
2.1696533203125
2.4427734375
2.8270751953124997
2.940673828125
2.9801513671874997
3.0147949218749996
3.0284912109374997
3.021240234375
2.9382568359374996
2.89072265625
2.7593994140625
3.02607421875
3.02607421875
3.0284912109374997
3.0204345703124997
3.029296875
3.0244628906249997
2.9672607421875
1.48564453125
0.018530273437499998
0.0217529296875
0.018530273437499998
0.023364257812499997
0.0281982421875
0.0217529296875
0.022558593749999998
0.0281982421875
0.023364257812499997
0.022558593749999998
0.022558593749999998
0.146630859375
0.11359863281249999
0.024169921875
0.027392578124999997
0.023364257812499997
0.0217529296875
0.024169921875
0.02578125
0.022558593749999998
0.024169921875
0.0217529296875
0.9547119140625
1.606494140625
2.2228271484374997
2.5571777343749997
2.6627197265625
2.744091796875
2.86494140625
2.979345703125
2.6441894531249996
2.9801513671874997
2.953564453125
2.98095703125
3.0252685546875
3.0268798828124996
3.0268798828124996
3.0252685546875
3.0268798828124996
3.0244628906249997
3.02607421875
1.6653076171874999
0.43425292968749996
0.017724609375
0.022558593749999998
0.022558593749999998
0.0249755859375
0.026586914062499998
0.023364257812499997
0.0217529296875
0.026586914062499998
0.020947265625
0.041088867187499996
0.0966796875
0.1780517578125
0.02578125
0.022558593749999998
0.0217529296875
0.024169921875
0.023364257812499997
0.022558593749999998
0.024169921875
0.020947265625
0.02578125
0.8805908203124999
1.8820312499999998
2.263916015625
2.5853759765624997
2.91328125
3.0301025390625
3.029296875
3.0220458984375
3.027685546875
3.01318359375
2.95517578125
3.0172119140625
2.892333984375
3.0252685546875
3.0284912109374997
3.02607421875
3.0188232421874996
3.0236572265625
3.0309082031249996
2.012548828125
0.9394042968749999
0.020947265625
0.0249755859375
0.022558593749999998
0.027392578124999997
0.023364257812499997
0.0201416015625
0.18691406249999998
0.023364257812499997
0.024169921875
0.11359863281249999
0.167578125
0.2908447265625
0.28037109374999997
0.024169921875
0.027392578124999997
0.0201416015625
0.022558593749999998
0.023364257812499997
0.02578125
0.0249755859375
0.023364257812499997
0.7162353515625
1.4042724609375
1.8925048828125
2.2389404296874997
2.7408691406249996
2.8633300781249997
3.0228515624999996
3.0244628906249997
3.0252685546875
3.0284912109374997
3.02607421875
3.0252685546875
2.956787109375
3.0204345703124997
3.02607421875
3.021240234375
3.0252685546875
3.02607421875
3.0244628906249997
3.0244628906249997
1.6806152343749998
0.08217773437499999
0.026586914062499998
0.027392578124999997
0.0249755859375
0.020947265625
0.0217529296875
0.023364257812499997
0.018530273437499998
0.07814941406249999
0.14501953125
0.240087890625
0.310986328125
0.2989013671875
0.023364257812499997
0.022558593749999998
0.0217529296875
0.024169921875
0.023364257812499997
0.023364257812499997
0.023364257812499997
0.024169921875
0.023364257812499997
1.1271240234375
1.7909912109375
2.2147705078124997
2.5813476562499997
2.6482177734374996
2.989013671875
3.0244628906249997
3.0268798828124996
3.02607421875
3.029296875
2.99384765625
2.8963623046875
3.0236572265625
3.0252685546875
3.0268798828124996
3.02607421875
3.02607421875
3.0236572265625
3.0244628906249997
1.6371093749999999
0.43828124999999996
0.0249755859375
0.02900390625
0.0217529296875
0.022558593749999998
0.022558593749999998
0.022558593749999998
0.022558593749999998
0.018530273437499998
0.053173828124999996
0.127294921875
0.19013671875
0.27231445312499997
0.022558593749999998
0.020947265625
0.018530273437499998
0.026586914062499998
0.0249755859375
0.022558593749999998
0.023364257812499997
0.024169921875
0.023364257812499997
0.69287109375
1.5815185546875
1.9948242187499998
2.318701171875
2.6304931640625
2.8552734374999997
2.9865966796874996
2.9511474609375
3.021240234375
3.0228515624999996
3.029296875
3.0244628906249997
3.0244628906249997
3.02607421875
3.0236572265625
3.0268798828124996
3.0228515624999996
3.0268798828124996
3.0252685546875
2.0165771484375
0.91201171875
0.02578125
0.0249755859375
0.022558593749999998
0.022558593749999998
0.0201416015625
0.024169921875
0.019335937499999997
0.061230468749999996
0.027392578124999997
0.11440429687499999
0.15629882812499998
0.2457275390625
0.3037353515625
0.024169921875
0.022558593749999998
0.027392578124999997
0.022558593749999998
0.022558593749999998
0.0249755859375
0.022558593749999998
0.023364257812499997
0.6598388671875
1.27294921875
1.722509765625
2.26552734375
2.8109619140624997
2.624853515625
2.9269775390625
3.02607421875
3.02607421875
3.0252685546875
3.02607421875
3.0236572265625
3.0252685546875
3.0244628906249997
3.029296875
3.0244628906249997
3.0244628906249997
3.0236572265625
3.0220458984375
2.8383544921875
1.061865234375
0.0668701171875
0.022558593749999998
0.0169189453125
0.023364257812499997
0.0249755859375
0.022558593749999998
0.026586914062499998
0.0201416015625
0.0749267578125
0.1353515625
0.193359375
0.3230712890625
0.391552734375
0.023364257812499997
0.0217529296875
0.020947265625
0.023364257812499997
0.0217529296875
0.020947265625
0.0249755859375
0.022558593749999998
0.0217529296875
1.15693359375
1.8941162109374998
2.2824462890625
2.6699707031249997
2.7328124999999996
3.0252685546875
3.021240234375
3.0236572265625
3.0228515624999996
3.0252685546875
3.02607421875
3.02607421875
3.02607421875
3.02607421875
3.0244628906249997
3.0236572265625
3.0284912109374997
3.027685546875
2.985791015625
1.558154296875
0.439892578125
0.0217529296875
0.023364257812499997
0.0217529296875
0.023364257812499997
0.018530273437499998
0.0217529296875
0.019335937499999997
0.049951171875
0.1393798828125
0.1297119140625
0.2296142578125
0.3158203125
0.0249755859375
0.019335937499999997
0.024169921875
0.017724609375
0.022558593749999998
0.022558593749999998
0.018530273437499998
0.026586914062499998
0.022558593749999998
0.9635742187499999
1.62744140625
2.1035888671875
2.466943359375
2.7448974609374996
2.9914306640625
3.0252685546875
3.027685546875
3.0268798828124996
3.0268798828124996
3.02607421875
2.9906249999999996
3.0301025390625
3.02607421875
3.029296875
3.0244628906249997
3.0252685546875
3.029296875
3.0252685546875
1.9859619140625
0.49467773437499996
0.023364257812499997
0.018530273437499998
0.024169921875
0.023364257812499997
0.022558593749999998
0.020947265625
0.0217529296875
0.022558593749999998
0.037060546874999996
0.1119873046875
0.2634521484375
0.3762451171875
0.26022949218749997
0.0217529296875
0.023364257812499997
0.019335937499999997
0.020947265625
0.020947265625
0.0217529296875
0.02578125
0.02578125
0.825
1.558154296875
1.9593749999999999
2.37509765625
2.7303955078124997
2.9076416015624997
3.0252685546875
3.02607421875
3.0252685546875
3.0244628906249997
3.0284912109374997
3.02607421875
3.027685546875
3.0252685546875
3.0220458984375
3.02607421875
3.02607421875
3.0252685546875
3.0252685546875
2.1035888671875
0.9676025390624999
0.020947265625
0.023364257812499997
0.024169921875
0.022558593749999998
0.02900390625
0.023364257812499997
0.020947265625
0.0201416015625
0.038671874999999994
0.1039306640625
0.182080078125
0.28037109374999997
0.281982421875
0.022558593749999998
0.022558593749999998
0.024169921875
0.020947265625
0.023364257812499997
0.022558593749999998
0.023364257812499997
0.023364257812499997
0.0708984375
1.171435546875
1.8498046874999998
2.180126953125
2.6119628906249996
2.7650390624999996
3.0172119140625
3.02607421875
3.029296875
3.027685546875
3.0244628906249997
3.027685546875
2.9745117187499996
3.0252685546875
3.0244628906249997
3.0220458984375
3.02607421875
3.0284912109374997
3.0252685546875
2.47177734375
1.46630859375
0.233642578125
0.023364257812499997
0.023364257812499997
0.02578125
0.023364257812499997
0.026586914062499998
0.024169921875
0.022558593749999998
0.020947265625
0.1168212890625
0.1611328125
0.23686523437499998
0.30454101562499997
0.023364257812499997
0.022558593749999998
0.0249755859375
0.023364257812499997
0.026586914062499998
0.023364257812499997
0.0249755859375
0.022558593749999998
0.02578125
0.8805908203124999
1.4896728515625
1.8336914062499998
2.3259521484375
2.5112548828124996
2.760205078125
2.9020019531249996
3.005126953125
3.029296875
2.9664550781249996
2.9366455078125
2.9318115234374997
3.0252685546875
3.0236572265625
3.02607421875
3.0244628906249997
3.0236572265625
3.02607421875
3.0268798828124996
1.960986328125
0.49387207031249997
0.020947265625
0.02900390625
0.024169921875
0.019335937499999997
0.023364257812499997
0.022558593749999998
0.026586914062499998
0.022558593749999998
0.023364257812499997
0.12568359375
0.20463867187499998
0.19497070312499998
0.022558593749999998
0.022558593749999998
0.023364257812499997
0.0217529296875
0.023364257812499997
0.023364257812499997
0.022558593749999998
0.018530273437499998
0.0201416015625
0.6815917968749999
1.3229003906249999
1.9102294921874998
2.3114501953124997
2.679638671875
2.8552734374999997
3.0252685546875
3.0228515624999996
3.0252685546875
3.027685546875
3.0244628906249997
2.9503417968749996
3.0244628906249997
3.0252685546875
3.0268798828124996
3.02607421875
3.0244628906249997
3.027685546875
3.02607421875
2.0262451171875
0.8161376953124999
0.027392578124999997
0.022558593749999998
0.0281982421875
0.022558593749999998
0.041088867187499996
0.023364257812499997
0.02578125
0.0217529296875
0.0878173828125
0.11762695312499999
0.1812744140625
0.3391845703125
0.11359863281249999
0.024169921875
0.020947265625
0.019335937499999997
0.022558593749999998
0.022558593749999998
0.023364257812499997
0.024169921875
0.02578125
0.7822998046874999
1.5412353515625
1.9730712890625
2.3525390625
2.6780273437499997
2.937451171875
3.0268798828124996
3.0252685546875
3.0228515624999996
3.02607421875
3.0244628906249997
3.0244628906249997
2.95517578125
3.021240234375
3.0244628906249997
3.0220458984375
3.02607421875
3.0244628906249997
3.0236572265625
2.2034912109375
1.3188720703124999
0.0217529296875
0.02578125
0.022558593749999998
0.027392578124999997
0.022558593749999998
0.0217529296875
0.022558593749999998
0.022558593749999998
0.0314208984375
0.2827880859375
0.08701171875
0.0797607421875
0.03544921875
0.02578125
0.023364257812499997
0.022558593749999998
0.022558593749999998
0.022558593749999998
0.023364257812499997
0.0217529296875
0.023364257812499997
0.026586914062499998
0.7822998046874999
1.413134765625
1.8546386718749999
2.3396484374999997
2.4766113281249997
2.631298828125
2.784375
2.808544921875
2.8641357421875
2.9479248046874997
3.003515625
2.9930419921875
3.0228515624999996
3.0252685546875
3.0268798828124996
3.0236572265625
3.0252685546875
3.0244628906249997
3.02607421875
1.9182861328124998
0.33837890625
0.0217529296875
0.019335937499999997
0.022558593749999998
0.0217529296875
0.018530273437499998
0.024169921875
0.027392578124999997
0.022558593749999998
0.0652587890625
0.136962890625
0.2118896484375
0.240087890625
0.024169921875
0.026586914062499998
0.023364257812499997
0.0217529296875
0.019335937499999997
0.0281982421875
0.0249755859375
0.024169921875
0.0249755859375
1.013525390625
1.6266357421875
2.20107421875
2.40732421875
2.6449951171875
2.889111328125
2.91328125
2.9769287109375
3.0268798828124996
3.0252685546875
3.0236572265625
3.0284912109374997
3.0236572265625
3.0268798828124996
3.01318359375
3.0244628906249997
3.02607421875
3.0244628906249997
3.01962890625
1.9303710937499998
0.7017333984374999
0.018530273437499998
0.0217529296875
0.0201416015625
0.023364257812499997
0.024169921875
0.023364257812499997
0.0217529296875
0.0217529296875
0.0249755859375
0.0797607421875
0.182080078125
0.2457275390625
0.022558593749999998
0.018530273437499998
0.019335937499999997
0.024169921875
0.024169921875
0.0169189453125
0.0249755859375
0.026586914062499998
0.024169921875
0.559130859375
1.3744628906249998
1.8054931640624998
2.1213134765625
2.47822265625
2.6111572265625
2.7368408203124996
2.8270751953124997
2.9124755859375
2.924560546875
2.8689697265625
2.8472167968749997
2.719921875
3.0284912109374997
3.0252685546875
3.0204345703124997
3.0421875
3.0244628906249997
3.0220458984375
1.9569580078125
1.0763671875
0.024169921875
0.0217529296875
0.023364257812499997
0.024169921875
0.023364257812499997
0.023364257812499997
0.026586914062499998
0.022558593749999998
0.023364257812499997
0.059619140625
0.09829101562499999
0.21511230468749998
0.21511230468749998
0.015307617187499999
0.017724609375
0.0201416015625
0.0217529296875
0.027392578124999997
0.02578125
0.0443115234375
0.116015625
0.20947265625
1.3905761718749998
1.5911865234375
2.0036865234375
2.4951416015624996
2.6208251953125
2.779541015625
2.8166015625
2.8367431640625
2.985791015625
2.9559814453124997
2.9011962890625
2.8149902343749997
3.02607421875
3.0244628906249997
3.0284912109374997
3.027685546875
3.0252685546875
3.029296875
3.0252685546875
1.2044677734375
0.1353515625
0.023364257812499997
0.026586914062499998
0.023364257812499997
0.022558593749999998
0.023364257812499997
0.026586914062499998
0.023364257812499997
0.023364257812499997
0.026586914062499998
0.049145507812499996
0.11279296875
0.136962890625
0.023364257812499997
0.027392578124999997
0.02578125
0.0281982421875
0.02900390625
0.08701171875
0.1699951171875
0.262646484375
0.32145996093749996
1.0191650390625
1.606494140625
1.989990234375
2.3420654296875
2.60068359375
2.7642333984375
2.8697753906249996
2.8979736328124996
2.8963623046875
2.8915283203124997
2.83271484375
2.7610107421874996
3.0244628906249997
3.0236572265625
3.02607421875
3.0244628906249997
3.0309082031249996
3.0252685546875
3.0204345703124997
1.7539306640624999
0.41733398437499997
0.0169189453125
0.0217529296875
0.0217529296875
0.027392578124999997
0.022558593749999998
0.022558593749999998
0.024169921875
0.023364257812499997
0.08942871093749999
0.07734374999999999
0.0217529296875
0.0169189453125
0.023364257812499997
0.022558593749999998
0.022558593749999998
0.027392578124999997
0.09990234375
0.17644042968749998
0.24895019531249998
0.33515625
0.3988037109375
0.9313476562499999
1.7668212890625
2.0947265625
2.405712890625
2.6643310546874996
2.7320068359375
2.9020019531249996
2.889111328125
2.843994140625
2.8786376953125
2.8077392578125
2.7666503906249997
2.631298828125
3.02607421875
3.02607421875
3.0252685546875
3.0244628906249997
3.0252685546875
3.0228515624999996
1.8957275390625
0.7943847656249999
0.023364257812499997
0.0249755859375
0.0249755859375
0.019335937499999997
0.022558593749999998
0.023364257812499997
0.02578125
0.022558593749999998
0.023364257812499997
0.042700195312499994
0.124072265625
0.1119873046875
0.17482910156249998
0.0217529296875
0.023364257812499997
0.037060546874999996
0.127294921875
0.198193359375
0.29326171875
0.35288085937499997
0.4165283203125
0.4922607421875
1.3607666015625
1.880419921875
2.0842529296875
2.5144775390625
2.5652343749999997
2.7650390624999996
2.8359375
2.9575927734375
2.850439453125
2.7867919921874997
2.719921875
2.6619140624999997
3.0244628906249997
3.0252685546875
3.0244628906249997
3.0252685546875
3.029296875
3.0244628906249997
2.73603515625
0.9168457031249999
0.027392578124999997
0.023364257812499997
0.0217529296875
0.0217529296875
0.022558593749999998
0.0217529296875
0.024169921875
0.022558593749999998
0.023364257812499997
0.022558593749999998
0.022558593749999998
0.020947265625
0.0217529296875
0.019335937499999997
0.0717041015625
0.15146484375
0.24895019531249998
0.31743164062499996
0.37785644531249996
0.44230957031249996
0.51884765625
0.572021484375
1.2439453125
1.8014648437499998
2.0431640625
2.302587890625
2.518505859375
2.6256591796874997
2.7505371093749997
2.715087890625
2.6804443359374996
2.6949462890625
2.69091796875
2.6852783203125
3.027685546875
3.02607421875
3.021240234375
3.0252685546875
3.02607421875
3.021240234375
2.5177001953125
1.490478515625
0.17724609375
0.022558593749999998
0.019335937499999997
0.018530273437499998
0.022558593749999998
0.023364257812499997
0.023364257812499997
0.023364257812499997
0.022558593749999998
0.023364257812499997
0.022558593749999998
0.07814941406249999
0.104736328125
0.07734374999999999
0.1426025390625
0.23686523437499998
0.30051269531249997
0.36979980468749996
0.43505859375
0.5132080078125
0.56396484375
0.6163330078125
0.67998046875
1.4203857421875
1.7716552734375
1.9271484374999999
2.1865722656249997
2.3557617187499997
2.487890625
2.4991699218749996
2.5869873046875
2.6135742187499997
2.5080322265625
2.4846679687499997
2.4194091796875
3.02607421875
3.0244628906249997
3.0252685546875
3.0220458984375
3.0244628906249997
3.0244628906249997
1.79501953125
0.23283691406249998
0.0217529296875
0.024169921875
0.022558593749999998
0.023364257812499997
0.020947265625
0.022558593749999998
0.017724609375
0.023364257812499997
0.0217529296875
0.024169921875
0.08056640625
0.14501953125
0.2215576171875
0.31259765624999997
0.38107910156249997
0.443115234375
0.5019287109375
0.575244140625
0.6227783203124999
0.6751464843749999
0.7299316406249999
0.7677978515624999
0.807275390625
1.1456542968749999
1.554931640625
1.791796875
1.95615234375
2.167236328125
2.228466796875
2.2808349609375
2.399267578125
2.38154296875
2.3879882812499997
2.25263671875
3.021240234375
3.0220458984375
3.0236572265625
3.0220458984375
3.027685546875
3.0236572265625
1.8739746093749998
0.700927734375
0.022558593749999998
0.022558593749999998
0.018530273437499998
0.022558593749999998
0.0217529296875
0.023364257812499997
0.022558593749999998
0.03544921875
0.1168212890625
0.217529296875
0.28681640625
0.356103515625
0.4406982421875
0.5035400390625
0.5551025390625
0.6098876953125
0.678369140625
0.7226806640625
0.7629638671875
0.8129150390625
2.334814453125
2.8947509765625
3.0252685546875
3.0244628906249997
3.02607421875
3.027685546875
3.02607421875
2.9785400390624996
2.8214355468749996
2.69091796875
2.60068359375
2.4854736328125
2.40732421875
2.321923828125
3.027685546875
3.0252685546875
3.0309082031249996
3.02607421875
3.0252685546875
3.0220458984375
2.6466064453125
1.2052734375
0.023364257812499997
0.027392578124999997
0.018530273437499998
0.020947265625
0.023364257812499997
0.023364257812499997
0.02578125
0.027392578124999997
0.022558593749999998
0.022558593749999998
0.017724609375
0.022558593749999998
0.022558593749999998
0.024169921875
0.07412109374999999
0.1699951171875
0.24492187499999998
0.314208984375
0.399609375
0.4640625
0.514013671875
2.3799316406249997
3.0244628906249997
3.02607421875
3.0268798828124996
2.9422851562499996
3.02607421875
2.979345703125
2.914892578125
2.7932373046874996
2.7908203124999997
2.6047119140625
2.4749999999999996
2.3887939453125
2.309033203125
3.0204345703124997
3.0204345703124997
3.029296875
3.0236572265625
3.02607421875
3.0268798828124996
1.52109375
0.019335937499999997
0.024169921875
0.017724609375
0.0249755859375
0.023364257812499997
0.018530273437499998
0.02578125
0.02578125
0.022558593749999998
0.0281982421875
0.022558593749999998
0.0217529296875
0.02578125
0.022558593749999998
0.022558593749999998
0.020947265625
0.0249755859375
0.11762695312499999
0.19094238281249998
0.26103515625
0.33193359375
2.2018798828125
2.8625244140625
3.02607421875
3.027685546875
3.0268798828124996
3.02607421875
2.9511474609375
2.8705810546875
2.73603515625
2.634521484375
2.53623046875
2.36865234375
2.29775390625
2.1229248046875
3.021240234375
3.0244628906249997
3.0236572265625
3.0228515624999996
3.0252685546875
3.0301025390625
1.571044921875
0.291650390625
0.026586914062499998
0.0217529296875
0.024169921875
0.022558593749999998
0.017724609375
0.024169921875
0.027392578124999997
0.023364257812499997
0.0249755859375
0.022558593749999998
0.019335937499999997
0.023364257812499997
0.022558593749999998
0.024169921875
0.023364257812499997
0.0281982421875
0.022558593749999998
0.08942871093749999
0.17241210937499998
0.259423828125
1.8393310546875
2.81982421875
3.02607421875
3.02607421875
3.029296875
3.0244628906249997
2.9785400390624996
2.9277832031249997
2.81015625
2.6047119140625
2.5418701171875
2.479833984375
2.309033203125
2.1180908203124997
3.027685546875
3.0220458984375
3.02607421875
3.02607421875
3.0244628906249997
3.0236572265625
2.3614013671875
0.9949951171875
0.0217529296875
0.020947265625
0.022558593749999998
0.022558593749999998
0.0217529296875
0.023364257812499997
0.023364257812499997
0.022558593749999998
0.023364257812499997
0.0217529296875
0.024169921875
0.023364257812499997
0.024169921875
0.0281982421875
0.019335937499999997
0.024169921875
0.024169921875
0.026586914062499998
0.09426269531249999
0.1732177734375
0.8685058593749999
2.8391601562499997
3.0252685546875
3.0252685546875
3.0244628906249997
3.02607421875
3.021240234375
3.0075439453125
2.9285888671875
2.715087890625
2.5958496093749996
2.2236328125
2.31064453125
2.3154785156249997
3.0284912109374997
3.0236572265625
3.02607421875
3.029296875
3.0252685546875
3.029296875
3.027685546875
1.545263671875
0.881396484375
1.5347900390625
3.0236572265625
3.0236572265625
3.0236572265625
3.0228515624999996
3.02607421875
3.0244628906249997
3.0252685546875
3.02607421875
3.0236572265625
3.0244628906249997
3.029296875
3.0268798828124996
3.02607421875
3.0220458984375
3.0244628906249997
3.02607421875
3.0228515624999996
3.0228515624999996
3.02607421875
3.0228515624999996
3.02607421875
3.0252685546875
3.0228515624999996
3.0268798828124996
3.0188232421874996
3.02607421875
3.0228515624999996
3.0309082031249996
3.0252685546875
3.0284912109374997
3.02607421875
3.0204345703124997
3.02607421875
3.0244628906249997
3.0268798828124996
3.029296875
3.02607421875
3.0204345703124997
3.02607421875
3.0244628906249997
3.0236572265625
3.02607421875
3.0236572265625
3.02607421875
3.0252685546875
3.0236572265625
3.029296875
3.0236572265625
3.0268798828124996
3.0236572265625
3.0244628906249997
3.027685546875
3.02607421875
2.9817626953125
0.5663818359375
0.9345703125
1.2938964843749998
1.9424560546874998
2.753759765625
3.02607421875
3.027685546875
3.027685546875
3.0252685546875
3.02607421875
2.8480224609375
2.6683593749999996
2.57490234375
2.257470703125
1.920703125
1.6967285156249998
1.4236083984374999
1.264892578125
1.1456542968749999
0.9216796875
0.8177490234375
3.0284912109374997
2.8576904296874996
2.19140625
1.8586669921874999
1.2769775390625
0.2537841796875
0.02578125
0.026586914062499998
0.018530273437499998
0.023364257812499997
0.0201416015625
0.022558593749999998
0.027392578124999997
0.0394775390625
0.042700195312499994
0.0837890625
0.16274414062499998
0.2038330078125
0.207861328125
0.22478027343749998
0.2360595703125
0.023364257812499997
0.023364257812499997
0.022558593749999998
0.022558593749999998
0.062841796875
0.572021484375
1.73056640625
3.027685546875
2.8850830078125
2.1487060546875
1.7080078125
1.3180664062499998
1.0078857421875
0.9434326171874999
0.8024414062499999
0.7130126953125
0.7299316406249999
0.7839111328124999
0.87978515625
0.8910644531249999
0.823388671875
2.7529541015624996
2.892333984375
2.46533203125
2.126953125
1.8586669921874999
1.16337890625
0.23686523437499998
0.022558593749999998
0.024169921875
0.0217529296875
0.023364257812499997
0.0926513671875
0.1877197265625
0.54140625
0.6614501953124999
0.7629638671875
0.8822021484375
0.95068359375
0.9901611328125
1.018359375
1.058642578125
0.0281982421875
0.0217529296875
0.20705566406249998
0.27392578125
0.652587890625
1.2415283203124998
1.7619873046874999
3.02607421875
3.0123779296874997
2.5885986328125
2.1648193359375
1.716064453125
1.5484863281249999
1.3857421875
1.31162109375
1.2745605468749999
1.184326171875
1.239111328125
1.2826171874999999
1.2576416015624998
1.287451171875
2.924560546875
3.0268798828124996
2.5837646484374996
2.2832519531249997
2.0496093749999997
1.4912841796874998
0.9812988281249999
0.027392578124999997
0.023364257812499997
0.022558593749999998
0.4068603515625
0.5994140625
0.6735351562499999
0.8991210937499999
1.1077880859375
1.1883544921875
1.281005859375
1.3551269531249999
1.264892578125
1.24716796875
1.3494873046875
0.023364257812499997
0.022558593749999998
0.5341552734375
0.5518798828125
0.8362792968749999
1.3075927734375
1.8780029296874998
3.01962890625
3.0309082031249996
2.7730957031249996
2.241357421875
1.9811279296875
1.8224121093749999
1.5984375
1.4542236328125
1.416357421875
1.4058837890625
1.393798828125
1.3986328124999998
1.3752685546874999
1.480810546875
1.5001464843749999
3.0204345703124997
2.650634765625
2.3315917968749997
2.20107421875
1.5533203125
1.071533203125
0.182080078125
0.024169921875
0.11037597656249999
0.42216796874999996
0.710595703125
0.95068359375
1.03447265625
1.2858398437499998
1.4074951171874999
1.4195800781249999
1.426025390625
1.461474609375
1.4735595703125
1.4848388671875
1.4123291015625
0.0281982421875
0.4552001953125
0.7097900390624999
0.897509765625
1.3978271484375
1.75634765625
2.9986816406249996
3.0244628906249997
2.7303955078124997
2.3581787109375
2.0407470703125
1.8095214843749998
1.6572509765624999
1.60166015625
1.5968261718749999
1.5138427734375
1.5299560546875
1.5202880859374999
1.4928955078125
1.4928955078125
1.5218994140625
3.0244628906249997
2.8770263671875
2.4774169921875
2.1841552734375
1.72412109375
1.474365234375
0.24733886718749998
0.0217529296875
0.024169921875
0.459228515625
0.6815917968749999
0.7774658203125
0.9869384765625
1.3100097656249998
1.461474609375
1.4679199218749999
1.5106201171875
1.5355957031249998
1.5734619140625
1.5565429687499999
1.4655029296875
0.024169921875
0.1651611328125
0.69287109375
0.9466552734375
1.155322265625
1.7877685546875
2.8311035156249997
3.0244628906249997
2.91328125
2.3130615234375
2.051220703125
1.8248291015625
1.7555419921875
1.6846435546874998
1.6967285156249998
1.5597656249999998
1.4896728515625
1.52109375
1.5396240234374998
1.5364013671874999
1.5670166015625
3.0204345703124997
2.9076416015624997
2.5547607421875
2.26552734375
1.8884765625
1.4364990234375
0.6421142578125
0.1635498046875
0.022558593749999998
0.31259765624999997
0.6598388671875
0.889453125
0.9490722656249999
1.316455078125
1.3962158203125
1.4219970703125
1.5122314453124999
1.587158203125
1.5839355468749998
1.5444580078124999
1.5355957031249998
0.026586914062499998
0.13857421875
0.6904541015625
0.7299316406249999
1.15048828125
1.6636962890625
2.176904296875
3.0309082031249996
2.9205322265625
2.5628173828125
2.1140624999999997
1.877197265625
1.819189453125
1.67900390625
1.5380126953125
1.5275390624999998
1.585546875
1.5235107421874998
1.509814453125
1.5380126953125
1.5001464843749999
3.0139892578125
3.0268798828124996
2.5209228515624997
2.3066162109375
2.031884765625
1.5114257812499998
0.8121093749999999
0.17644042968749998
0.020947265625
0.310986328125
0.62197265625
0.8765624999999999
1.0658935546875
1.3261230468749998
1.3986328124999998
1.4888671875
1.5847412109374999
1.5645996093749999
1.611328125
1.53076171875
1.5082031249999999
0.026586914062499998
0.022558593749999998
0.6098876953125
0.8177490234375
1.094091796875
1.7120361328125
2.093115234375
3.0244628906249997
2.9680664062499997
2.5813476562499997
2.2453857421875
1.9666259765624998
1.80791015625
1.61455078125
1.5815185546875
1.5484863281249999
1.52109375
1.5364013671874999
1.4961181640624999
1.50498046875
1.5299560546875
1.542041015625
3.0236572265625
2.6224365234375
2.2913085937499997
2.022216796875
1.6443603515624998
1.2608642578125
0.252978515625
0.023364257812499997
0.2384765625
0.5744384765625
0.936181640625
1.1077880859375
1.2044677734375
1.3994384765624999
1.4679199218749999
1.5919921874999998
1.577490234375
1.6081054687499998
1.5726562499999999
1.538818359375
0.22316894531249998
0.018530273437499998
0.5051513671875
0.823388671875
1.0723388671875
1.513037109375
1.8498046874999998
3.02607421875
3.0268798828124996
2.719921875
2.2373291015625
1.9875732421874999
1.8546386718749999
1.6475830078125
1.6346923828125
1.6524169921874998
1.6451660156249999
1.5766845703124999
1.5565429687499999
1.5412353515625
1.5355957031249998
1.51787109375
3.0268798828124996
2.6135742187499997
2.2993652343749997
2.1301757812499997
1.9029785156249999
1.2374999999999998
0.34160156249999996
0.0829833984375
0.1538818359375
0.44230957031249996
0.717041015625
0.9821044921875
1.1400146484375
1.364794921875
1.4518066406249999
1.4445556640625
1.456640625
1.5275390624999998
1.5895751953125
1.5791015625
1.5025634765625
0.017724609375
0.459228515625
0.7154296874999999
1.0062744140625
1.506591796875
1.8876708984375
2.89072265625
3.0228515624999996
2.7779296875
2.3855712890625
2.002880859375
1.7200927734375
1.714453125
1.5968261718749999
1.5525146484374999
1.6483886718749998
1.4542236328125
1.5807128906249999
1.6218017578125
1.6161621093749998
1.546875
3.02607421875
2.8810546875
2.4516357421875
2.0979492187499997
1.8280517578125
1.4445556640625
0.662255859375
0.12890625
0.13857421875
0.4165283203125
0.7726318359375
0.9498779296875
1.0465576171875
1.36962890625
1.506591796875
1.5355957031249998
1.5484863281249999
1.5025634765625
1.5202880859374999
1.561376953125
1.5541259765625
0.020947265625
0.1998046875
0.7154296874999999
1.019970703125
1.27939453125
1.683837890625
2.6941406249999997
3.029296875
2.91328125
2.3879882812499997
2.126953125
1.9811279296875
1.8248291015625
1.7329833984374998
1.65966796875
1.5315673828124998
1.48564453125
1.5033691406249998
1.545263671875
1.5831298828125
1.5662109375
2.9503417968749996
3.0228515624999996
2.5048095703124997
2.2494140625
2.0149658203125
1.448583984375
0.8024414062499999
0.2384765625
0.053173828124999996
0.3520751953125
0.610693359375
0.8677001953125
1.1150390625
1.281005859375
1.43408203125
1.55009765625
1.5041748046874999
1.5726562499999999
1.3946044921874998
1.5315673828124998
1.5090087890625
0.023364257812499997
0.09748535156249999
0.7001220703125
0.9772705078124999
1.184326171875
1.722509765625
2.1374267578125
3.0188232421874996
2.947119140625
2.513671875
2.16884765625
1.8441650390625
1.8489990234375
1.73056640625
1.6653076171874999
1.593603515625
1.590380859375
1.5235107421874998
1.5766845703124999
1.5895751953125
1.5057861328125
2.6659423828124997
3.0284912109374997
2.6208251953125
2.2349121093749997
1.9295654296875
1.5154541015624998
1.147265625
0.3262939453125
0.0281982421875
0.16838378906249998
0.6171386718749999
0.8467529296874999
1.087646484375
1.2415283203124998
1.4026611328124998
1.4155517578124999
1.5017578125
1.5283447265624999
1.4961181640624999
1.5138427734375
1.52109375
0.252978515625
0.022558593749999998
0.5204589843749999
0.8644775390624999
1.1271240234375
1.5202880859374999
2.0310791015625
3.0228515624999996
3.0268798828124996
2.5813476562499997
2.280029296875
1.8788085937499999
1.8304687499999999
1.72412109375
1.6725585937499998
1.6346923828125
1.7217041015624999
1.5726562499999999
1.5758789062499998
1.55009765625
1.4493896484375
1.477587890625
3.0244628906249997
2.663525390625
2.3211181640625
2.1857666015625
1.5517089843749998
1.1698242187499999
0.49387207031249997
0.0249755859375
0.18691406249999998
0.5736328125
0.807275390625
1.1561279296875
1.2383056640624999
1.38896484375
1.4437499999999999
1.4574462890625
1.5041748046874999
1.5323730468749999
1.5267333984375
1.5766845703124999
1.5283447265624999
0.0281982421875
0.53173828125
0.8346679687499999
1.10859375
1.4928955078125
1.8143554687499999
3.011572265625
3.0284912109374997
2.6739990234374997
2.309033203125
1.9529296875
1.7692382812499998
1.7337890624999999
1.6701416015625
1.658056640625
1.546875
1.558154296875
1.53720703125
1.5533203125
1.5090087890625
1.5202880859374999
3.021240234375
2.8528564453125
2.34931640625
2.1454833984375
1.84013671875
1.4429443359374998
0.410888671875
0.088623046875
0.0684814453125
0.5526855468749999
0.845947265625
1.07958984375
1.142431640625
1.3688232421875
1.4332763671875
1.506591796875
1.4993408203124998
1.5380126953125
1.5573486328125
1.6314697265625
1.50498046875
0.017724609375
0.21269531249999998
0.8000244140624999
0.974853515625
1.2060791015624999
1.82724609375
3.0147949218749996
3.0252685546875
2.7666503906249997
2.3074218749999997
1.9489013671875
1.8755859375
1.8973388671875
1.6701416015625
1.5734619140625
1.513037109375
1.5404296874999999
1.56298828125
1.4638916015624999
1.4622802734375
1.4848388671875
3.0236572265625
2.8528564453125
2.383154296875
2.0971435546875
1.7829345703125
1.45341796875
0.720263671875
0.21914062499999998
0.15791015625
0.4874267578125
0.7460449218749999
1.0272216796875
1.1158447265625
1.348681640625
1.4880615234374999
1.482421875
1.4711425781249998
1.5186767578125
1.5887695312499999
1.658056640625
1.5645996093749999
0.022558593749999998
0.1699951171875
0.7339599609374999
0.9071777343749999
1.2342773437499999
1.674169921875
2.0890869140625
3.0252685546875
2.92939453125
2.5072265624999996
2.101171875
1.8489990234375
1.754736328125
1.7289550781249998
1.6411376953124999
1.5847412109374999
1.5509033203125
1.5670166015625
1.46630859375
1.5017578125
1.5484863281249999
2.7336181640625
3.02607421875
2.4886962890624997
2.18818359375
1.9408447265625
1.5186767578125
0.77666015625
0.35690917968749997
0.12568359375
0.36979980468749996
0.69609375
0.9611572265624999
1.132763671875
1.3736572265625
1.5517089843749998
1.49853515625
1.5726562499999999
1.5073974609374998
1.5517089843749998
1.5396240234374998
1.522705078125
0.08137207031249999
0.09990234375
0.668701171875
0.8910644531249999
1.155322265625
1.6725585937499998
2.02060546875
3.0204345703124997
2.9761230468749997
2.5483154296875
2.2518310546875
1.9585693359374998
1.7539306640624999
1.65
1.6701416015625
1.5807128906249999
1.651611328125
1.6008544921874999
1.525927734375
1.5895751953125
1.5267333984375
1.5347900390625
3.0228515624999996
2.576513671875
2.2679443359375
2.018994140625
1.59521484375
1.1980224609374999
0.29245605468749997
0.08217773437499999
0.24089355468749998
0.5325439453124999
0.9257080078125
1.1134277343749999
1.1923828125
1.3728515625
1.4510009765624998
1.561376953125
1.5509033203125
1.56943359375
1.558154296875
1.4945068359375
0.4245849609375
0.023364257812499997
0.48984374999999997
0.85400390625
1.0634765625
1.4542236328125
1.77890625
3.0252685546875
3.021240234375
2.7666503906249997
2.2679443359375
1.96904296875
1.78857421875
1.6572509765624999
1.611328125
1.5944091796875
1.538818359375
1.5992431640625
1.5525146484374999
1.5509033203125
1.5315673828124998
1.525927734375
3.02607421875
2.679638671875
2.3130615234375
2.1390380859375
1.5404296874999999
1.1706298828125
0.330322265625
0.1490478515625
0.2578125
0.5679931640625
0.74443359375
1.029638671875
1.15048828125
1.3067871093749999
1.4993408203124998
1.5396240234374998
1.609716796875
1.545263671875
1.5847412109374999
1.5597656249999998
1.5750732421875
0.02578125
0.48178710937499997
0.7822998046874999
0.992578125
1.40185546875
1.799853515625
2.6385498046875
3.0244628906249997
2.744091796875
2.3630126953125
2.01416015625
1.7692382812499998
1.6524169921874998
1.62744140625
1.641943359375
1.6894775390624999
1.6089111328124999
1.6081054687499998
1.5702392578125
1.5138427734375
1.4389160156249998
3.02607421875
2.8713867187499997
2.4258544921875
2.176904296875
1.85947265625
1.4751708984374998
0.42216796874999996
0.17241210937499998
0.185302734375
0.46083984375
0.7420166015624999
1.00546875
1.1271240234375
1.4437499999999999
1.3736572265625
1.55009765625
1.51787109375
1.4671142578124998
1.477587890625
1.6564453124999998
1.5944091796875
0.022558593749999998
0.19899902343749998
0.7516845703124999
0.9966064453125
1.2109130859375
1.6798095703125
2.4790283203124996
3.02607421875
2.9237548828124997
2.462109375
2.1938232421875
1.8892822265625
1.7635986328125
1.5597656249999998
1.5364013671874999
1.5662109375
1.533984375
1.5654052734375
1.593603515625
1.5686279296874999
1.4791992187499998
2.7658447265625
2.8979736328124996
2.466943359375
2.257470703125
1.8635009765625
1.4413330078125
0.9804931640625
0.343212890625
0.08620605468749999
0.346435546875
0.6413085937499999
1.0078857421875
1.0731445312499999
1.3285400390625
1.4928955078125
1.5605712890624999
1.5235107421874998
1.5146484375
1.525927734375
1.4501953125
1.493701171875
0.024169921875
0.09426269531249999
0.64775390625
0.8749511718749999
1.3043701171875
1.7233154296875
2.070556640625
3.0236572265625
3.01318359375
2.6047119140625
2.1664306640624997
1.9456787109375
2.0093261718749997
1.625830078125
1.6089111328124999
1.5517089843749998
1.5194824218749998
1.5267333984375
1.5090087890625
1.554931640625
1.538818359375
2.5265625
3.0236572265625
2.618408203125
2.144677734375
2.006103515625
1.6242187499999998
1.0812011718749999
0.43022460937499996
0.146630859375
0.38671875
0.684814453125
0.894287109375
1.077978515625
1.2785888671874999
1.3921875
1.4139404296875
1.5025634765625
1.482421875
1.5484863281249999
1.5895751953125
1.490478515625
0.44150390624999997
0.02900390625
0.6098876953125
0.839501953125
1.0650878906249999
1.6733642578124999
2.0375244140624997
3.0220458984375
3.0236572265625
2.5894042968749997
2.2808349609375
1.9779052734375
1.8054931640624998
1.716064453125
1.6475830078125
1.6201904296874998
1.5758789062499998
1.5654052734375
1.5347900390625
1.5476806640624998
1.5283447265624999
1.43408203125
3.0244628906249997
2.6192138671875
2.2905029296875
2.086669921875
1.5992431640625
1.20849609375
0.33676757812499997
0.0717041015625
0.23203125
0.572021484375
0.8757568359375
1.0707275390625
1.181103515625
1.3792968749999999
1.4542236328125
1.5323730468749999
1.5815185546875
1.513037109375
1.496923828125
1.5492919921875
0.8129150390625
0.022558593749999998
0.5051513671875
0.90556640625
1.09248046875
1.40830078125
1.73056640625
3.0228515624999996
3.0228515624999996
2.7932373046874996
2.23330078125
1.98515625
1.8344970703124999
1.706396484375
1.635498046875
1.6024658203125
1.6379150390625
1.6000488281249998
1.5702392578125
1.55009765625
1.4928955078125
1.4356933593749999
3.0244628906249997
2.6675537109375
2.29775390625
2.0890869140625
1.8586669921874999
1.3398193359375
0.38913574218749997
0.2102783203125
0.269091796875
0.53173828125
0.7742431640624999
1.1110107421875
1.2463623046874999
1.3921875
1.4510009765624998
1.5186767578125
1.5057861328125
1.5315673828124998
1.5766845703124999
1.5766845703124999
1.5597656249999998
0.018530273437499998
0.44633789062499996
0.7532958984375
0.9345703125
1.3414306640625
1.7490966796874998
2.4161865234374997
3.0309082031249996
2.779541015625
2.36865234375
2.035107421875
1.8417480468749998
1.8240234375
1.6991455078125
1.5678222656249998
1.5879638671874998
1.64677734375
1.65
1.61455078125
1.590380859375
1.4042724609375
3.0228515624999996
2.8206298828125
2.4121582031249997
2.1052001953125
1.893310546875
1.4606689453125
0.48178710937499997
0.23525390624999998
0.127294921875
0.53818359375
0.6340576171875
0.9531005859374999
1.1142333984375
1.2785888671874999
1.3865478515624998
1.47275390625
1.5726562499999999
1.5412353515625
1.5791015625
1.545263671875
1.5235107421874998
0.020947265625
0.12165527343749999
0.678369140625
0.8886474609374999
1.1770751953125
1.754736328125
2.3879882812499997
3.0244628906249997
2.98740234375
2.466943359375
2.1632080078125
1.8957275390625
1.770849609375
1.69833984375
1.6363037109374998
1.5645996093749999
1.52109375
1.5678222656249998
1.6250244140624999
1.5960205078124998
1.50498046875
2.544287109375
2.972900390625
2.354150390625
2.1632080078125
1.8981445312499998
1.4872558593749998
0.9812988281249999
0.2860107421875
0.0620361328125
0.38913574218749997
0.6936767578124999
1.0248046874999999
1.09248046875
1.2955078125
1.5041748046874999
1.542041015625
1.5807128906249999
1.5654052734375
1.5541259765625
1.5476806640624998
1.52109375
0.026586914062499998
0.1619384765625
0.58974609375
0.8693115234375
1.1545166015625
1.6040771484374998
2.051220703125
3.0244628906249997
3.02607421875
2.5652343749999997
2.141455078125
1.883642578125
1.7853515624999998
1.6491943359374999
1.585546875
1.622607421875
1.5791015625
1.6701416015625
1.606494140625
1.496923828125
1.5243164062499999
2.2365234375
3.0220458984375
2.4758056640625
2.209130859375
1.9529296875
1.5887695312499999
1.07958984375
0.36577148437499996
0.1119873046875
0.31662597656249997
0.623583984375
0.8934814453125
1.1110107421875
1.3075927734375
1.4469726562499998
1.493701171875
1.4953124999999998
1.5428466796875
1.5589599609375
1.5283447265624999
1.5565429687499999
0.7484619140625
0.024169921875
0.6380859375
0.8701171875
0.9635742187499999
1.63388671875
1.920703125
3.02607421875
3.0228515624999996
2.5877929687499996
2.2905029296875
1.9924072265625
1.896533203125
1.7378173828124999
1.5944091796875
1.6250244140624999
1.5670166015625
1.5275390624999998
1.4953124999999998
1.5460693359375
1.554931640625
1.915869140625
3.0268798828124996
2.6449951171875
2.270361328125
2.0278564453125
1.7200927734375
1.198828125
0.38671875
0.1699951171875
0.278759765625
0.7033447265624999
0.9740478515625
1.0787841796875
1.164990234375
1.319677734375
1.43408203125
1.4598632812499999
1.4300537109375
1.4687255859375
1.5138427734375
1.5525146484374999
1.09892578125
0.023364257812499997
0.41008300781249996
0.8427246093749999
1.074755859375
1.3551269531249999
1.960986328125
3.0252685546875
3.0236572265625
2.6490234375
2.3259521484375
2.0375244140624997
1.8828369140624999
1.7249267578124998
1.67578125
1.58232421875
1.5484863281249999
1.5984375
1.5887695312499999
1.4711425781249998
1.4155517578124999
1.4469726562499998
3.027685546875
2.6876953125
2.3654296875
2.1785156249999997
1.716064453125
1.3092041015625
0.5663818359375
0.2553955078125
0.291650390625
0.56396484375
0.7694091796875
1.00546875
1.155322265625
1.319677734375
1.522705078125
1.5138427734375
1.5847412109374999
1.5637939453124998
1.5734619140625
1.4977294921875
1.50498046875
0.0217529296875
0.42539062499999997
0.7806884765625
1.044140625
1.351904296875
1.748291015625
2.2115478515625
3.029296875
2.8423828125
2.370263671875
1.9956298828124999
1.80791015625
1.7499023437499999
1.7120361328125
1.6854492187499999
1.5718505859374998
1.545263671875
1.5492919921875
1.5484863281249999
1.4953124999999998
1.5573486328125
3.0252685546875
2.92939453125
2.3420654296875
2.1849609375
1.925537109375
1.4630859374999998
0.5953857421875
0.24814453125
0.1377685546875
0.5341552734375
0.8000244140624999
0.9724365234375
1.147265625
1.3470703124999999
1.432470703125
1.5492919921875
1.6129394531249999
1.5887695312499999
1.561376953125
1.5323730468749999
1.4872558593749998
0.02578125
0.3279052734375
0.7130126953125
0.8967041015624999
1.1819091796874999
1.66611328125
2.2510253906249997
3.0204345703124997
2.8391601562499997
2.434716796875
2.151123046875
1.9352050781249999
1.7829345703125
1.6322753906249998
1.609716796875
1.56943359375
1.5509033203125
1.513037109375
1.5484863281249999
1.5122314453124999
1.513037109375
2.3001708984375
3.0010986328125
2.3920166015624997
2.1946289062499997
1.8344970703124999
1.4244140625
0.9772705078124999
0.29648437499999997
0.18691406249999998
0.468896484375
0.7476562499999999
1.0546142578125
1.1053710937499999
1.29228515625
1.4477783203124999
1.4759765624999999
1.4864501953125
1.4026611328124998
1.55009765625
1.5380126953125
1.5807128906249999
0.0201416015625
0.0201416015625
0.6090820312499999
0.8225830078124999
1.18916015625
1.622607421875
1.9956298828124999
3.02607421875
3.021240234375
2.5579833984375
2.1664306640624997
1.9617919921875
1.8224121093749999
1.6636962890625
1.6862548828125
1.6201904296874998
1.5404296874999999
1.5186767578125
1.5984375
1.6290527343749999
1.585546875
1.9150634765624999
3.0252685546875
2.354150390625
2.1712646484375
2.0069091796875
1.5637939453124998
1.158544921875
0.38510742187499997
0.165966796875
0.41411132812499996
0.6767578125
0.8677001953125
1.0803955078125
1.1625732421875
1.3583496093749998
1.40185546875
1.5275390624999998
1.5323730468749999
1.58232421875
1.606494140625
1.571044921875
0.9651855468749999
0.026586914062499998
0.6469482421874999
0.928125
1.100537109375
1.56298828125
1.8441650390625
3.0244628906249997
3.0228515624999996
2.679638671875
2.2993652343749997
1.90458984375
1.8062988281249999
1.7442626953125
1.6411376953124999
1.7587646484375
1.5484863281249999
1.5750732421875
1.56298828125
1.5919921874999998
1.4389160156249998
1.5734619140625
3.0220458984375
2.6546630859375
2.2993652343749997
2.012548828125
1.6645019531249998
1.332568359375
0.391552734375
0.2376708984375
0.298095703125
0.652587890625
0.903955078125
1.0489746093749999
1.0868408203125
1.3704345703124998
1.4332763671875
1.538818359375
1.5033691406249998
1.5267333984375
1.5621826171875
1.5146484375
1.3220947265624998
0.0217529296875
0.41572265625
0.8266113281249999
1.0570312499999999
1.361572265625
1.9102294921874998
3.0002929687499997
3.0252685546875
2.5982666015625
2.296142578125
2.0004638671875
1.8578613281249998
1.719287109375
1.658056640625
1.6105224609375
1.51787109375
1.5758789062499998
1.5476806640624998
1.490478515625
1.5235107421874998
1.513037109375
3.021240234375
2.6941406249999997
2.34609375
2.0810302734375
1.703173828125
1.3913818359374999
0.6670898437499999
0.20625
0.2634521484375
0.5841064453125
0.7637695312499999
1.1239013671875
1.1690185546875
1.3470703124999999
1.5114257812499998
1.4477783203124999
1.4655029296875
1.496923828125
1.5726562499999999
1.4945068359375
1.5073974609374998
0.0169189453125
0.37705078124999997
0.8000244140624999
1.1657958984374999
1.319677734375
1.7507080078125
2.23330078125
3.027685546875
2.89072265625
2.408935546875
2.0069091796875
1.828857421875
1.796630859375
1.625830078125
1.611328125
1.587158203125
1.5766845703124999
1.522705078125
1.5887695312499999
1.6290527343749999
1.5444580078124999
3.02607421875
2.91650390625
2.3372314453125
2.0947265625
1.8796142578125
1.3929931640625
0.597802734375
0.25217285156249997
0.15791015625
0.55107421875
0.813720703125
1.0167480468749999
1.1158447265625
1.4010498046875
1.445361328125
1.461474609375
1.456640625
1.542041015625
1.603271484375
1.5146484375
1.4711425781249998
0.020947265625
0.3158203125
0.7621582031249999
0.9949951171875
1.2656982421874998
1.6773925781249999
2.1342041015624997
3.0301025390625
2.8947509765625
2.518505859375
2.1470947265625
1.835302734375
1.738623046875
1.585546875
1.5887695312499999
1.5960205078124998
1.6048828124999999
1.558154296875
1.5799072265624998
1.5815185546875
1.5380126953125
2.9342285156249996
3.0083496093749997
2.3879882812499997
2.1301757812499997
1.8546386718749999
1.4598632812499999
1.1093994140624999
0.44230957031249996
0.230419921875
0.420556640625
0.781494140625
0.9756591796874999
1.0836181640625
1.1915771484375
1.4397216796874999
1.5412353515625
1.5412353515625
1.5863525390625
1.5662109375
1.5621826171875
1.5251220703125
0.040283203125
0.022558593749999998
0.6711181640624999
0.9708251953125
1.19560546875
1.625830078125
2.0906982421875
3.021240234375
3.0236572265625
2.447607421875
2.1140624999999997
1.8715576171875
1.803076171875
1.6314697265625
1.6322753906249998
1.571044921875
1.5057861328125
1.5412353515625
1.5525146484374999
1.5573486328125
1.590380859375
1.7587646484375
3.0309082031249996
2.4121582031249997
2.1180908203124997
1.9440673828125
1.47275390625
1.1110107421875
0.343212890625
0.193359375
0.4149169921875
0.7339599609374999
0.90234375
1.08603515625
1.2447509765625
1.4348876953124998
1.5122314453124999
1.5404296874999999
1.5436523437499998
1.6105224609375
1.5734619140625
1.5557373046874998
1.3905761718749998
0.020947265625
0.594580078125
0.8209716796875
1.2076904296875
1.5202880859374999
1.8361083984375
2.8697753906249996
3.021240234375
2.647412109375
2.29453125
1.9472900390624999
1.77568359375
1.6991455078125
1.5927978515624999
1.5702392578125
1.5186767578125
1.571044921875
1.6137451171875
1.60166015625
1.6048828124999999
1.577490234375
3.0244628906249997
2.6498291015624997
2.1454833984375
2.0044921875
1.6967285156249998
1.335791015625
0.420556640625
0.19658203124999998
0.23928222656249998
0.6493652343749999
0.887841796875
1.119873046875
1.2020507812499999
1.405078125
1.4542236328125
1.5380126953125
1.46953125
1.5114257812499998
1.5202880859374999
1.5654052734375
1.490478515625
0.0217529296875
0.6260009765625
0.8983154296875
1.0787841796875
1.2898681640624998
1.8095214843749998
2.7352294921875
3.02607421875
2.6337158203124997
2.3307861328125
1.98837890625
1.6927001953124998
1.6781982421875
1.6491943359374999
1.7442626953125
1.6806152343749998
1.651611328125
1.60166015625
1.5251220703125
1.4872558593749998
1.4687255859375
3.0252685546875
2.769873046875
2.3694580078125
2.08505859375
1.751513671875
1.4356933593749999
0.7283203125
0.29326171875
0.191748046875
0.4729248046875
0.855615234375
1.0513916015625
1.1964111328125
1.2963134765625
1.4526123046875
1.5025634765625
1.538818359375
1.4751708984374998
1.4284423828125
1.5283447265624999
1.4606689453125
0.023364257812499997
0.34965820312499996
0.823388671875
1.0288330078124999
1.2012451171875
1.5992431640625
2.6111572265625
3.02607421875
2.882666015625
2.3549560546875
2.077001953125
1.8546386718749999
1.7523193359375
1.6371093749999999
1.63388671875
1.5911865234375
1.5654052734375
1.5758789062499998
1.5831298828125
1.5380126953125
1.5243164062499999
2.9543701171874996
2.9680664062499997
2.3630126953125
2.05927734375
1.7716552734375
1.4155517578124999
0.8209716796875
0.38591308593749996
0.28842773437499997
0.543017578125
0.800830078125
0.9837158203124999
1.1190673828125
1.3921875
1.4920898437499999
1.4840332031249999
1.4800048828124999
1.5057861328125
1.5106201171875
1.574267578125
1.558154296875
0.11843261718749999
0.2280029296875
0.7661865234374999
0.990966796875
1.3752685546874999
1.6701416015625
2.125341796875
3.02607421875
2.8544677734375
2.4041015624999997
2.080224609375
1.8465820312499999
1.7080078125
1.6209960937499999
1.6129394531249999
1.6363037109374998
1.6000488281249998
1.4880615234374999
1.5299560546875
1.56298828125
1.5082031249999999
2.7577880859375
3.0244628906249997
2.344482421875
2.0898925781249997
1.880419921875
1.5355957031249998
1.224609375
0.4165283203125
0.26103515625
0.4245849609375
0.7114013671874999
0.9732421874999999
1.123095703125
1.3140380859374998
1.4364990234375
1.4945068359375
1.5404296874999999
1.5637939453124998
1.496923828125
1.509814453125
1.5041748046874999
0.18449707031249998
0.0217529296875
0.69287109375
0.966796875
1.21171875
1.5815185546875
2.0117431640625
3.0389648437499996
3.0284912109374997
2.5096435546875
2.1551513671875
1.9376220703125
1.7603759765625
1.66611328125
1.6048828124999999
1.5718505859374998
1.5645996093749999
1.5726562499999999
1.5057861328125
1.5662109375
1.496923828125
1.5831298828125
3.0252685546875
2.46533203125
2.1567626953125
1.98193359375
1.4606689453125
1.1939941406249999
0.456005859375
0.2183349609375
0.41733398437499997
0.71865234375
1.0030517578125
1.1770751953125
1.2616699218749998
1.3833251953124999
1.4284423828125
1.5194824218749998
1.4284423828125
1.5444580078124999
1.6105224609375
1.603271484375
0.36093749999999997
0.0201416015625
0.57041015625
0.8685058593749999
1.16337890625
1.5283447265624999
1.9182861328124998
3.0268798828124996
3.027685546875
2.6482177734374996
2.141455078125
1.8989501953124999
1.76279296875
1.6129394531249999
1.561376953125
1.5484863281249999
1.5670166015625
1.6604736328124998
1.6024658203125
1.6056884765625
1.5678222656249998
1.525927734375
3.02607421875
2.705419921875
2.160791015625
2.0375244140624997
1.7797119140625
1.2286376953125
0.5212646484375
0.24814453125
0.3681884765625
0.6251953124999999
0.920068359375
1.0634765625
1.1996337890625
1.3285400390625
1.4469726562499998
1.5412353515625
1.53720703125
1.5533203125
1.5960205078124998
1.558154296875
1.4840332031249999
0.0249755859375
0.5373779296875
0.889453125
1.094091796875
1.4058837890625
1.732177734375
2.650634765625
3.0309082031249996
2.647412109375
2.309033203125
1.9593749999999999
1.7136474609374999
1.7080078125
1.6395263671875
1.5847412109374999
1.5436523437499998
1.5960205078124998
1.5782958984375
1.49853515625
1.4840332031249999
1.5380126953125
3.0252685546875
2.763427734375
2.4049072265625
2.05283203125
1.815966796875
1.432470703125
0.7943847656249999
0.193359375
0.20302734374999998
0.5309326171875
0.9402099609375
1.0610595703124999
1.1537109374999999
1.34384765625
1.4252197265625
1.5194824218749998
1.5557373046874998
1.53720703125
1.5041748046874999
1.4800048828124999
1.5557373046874998
0.02900390625
0.26828613281249997
0.8241943359374999
0.9796874999999999
1.2914794921875
1.6612792968749999
2.4991699218749996
3.027685546875
