1.6403320312499998
1.635498046875
1.5944091796875
1.5831298828125
1.5476806640624998
1.5525146484374999
1.5355957031249998
1.60166015625
3.027685546875
2.634521484375
2.312255859375
2.0890869140625
1.7901855468749999
1.4920898437499999
0.6413085937499999
0.3182373046875
0.2972900390625
0.5526855468749999
0.8548095703124999
1.0094970703125
1.0731445312499999
1.3309570312499999
1.5082031249999999
1.5082031249999999
1.5444580078124999
1.5412353515625
1.6201904296874998
1.5960205078124998
1.4187744140624998
0.0217529296875
0.362548828125
0.8121093749999999
1.036083984375
1.3365966796875
1.5428466796875
3.0252685546875
3.02607421875
2.6820556640624997
2.2711669921874997
2.070556640625
1.91748046875
1.7829345703125
1.6830322265625
1.5976318359375
1.554931640625
1.5492919921875
1.5323730468749999
1.533984375
1.5404296874999999
1.53720703125
3.0107666015624996
2.698974609375
2.3614013671875
2.1132568359375
1.8667236328124999
1.4147460937499998
0.6501708984375
0.472119140625
0.27392578125
0.5373779296875
0.760546875
1.026416015625
1.1150390625
1.3100097656249998
1.405078125
1.474365234375
1.461474609375
1.4316650390624999
1.5517089843749998
1.5927978515624999
1.5525146484374999
0.02578125
0.24169921875
0.7275146484374999
0.984521484375
1.2673095703125
1.5702392578125
2.8794433593749997
3.0228515624999996
2.682861328125
2.3581787109375
1.9650146484375
1.803076171875
1.740234375
1.6266357421875
1.6556396484375
1.5831298828125
1.5331787109375
1.5509033203125
1.5863525390625
1.585546875
1.609716796875
2.9672607421875
2.9559814453124997
2.47822265625
2.1470947265625
1.8731689453125
1.5243164062499999
0.7242919921875
0.45842285156249996
0.21269531249999998
0.4197509765625
0.816943359375
0.9595458984374999
1.045751953125
1.24716796875
1.2963134765625
1.3543212890624998
1.4252197265625
1.554931640625
1.5122314453124999
1.5331787109375
1.5114257812499998
0.07412109374999999
0.033032226562499996
0.7919677734374999
1.023193359375
1.18271484375
1.6048828124999999
2.2598876953125
3.0204345703124997
2.872998046875
2.3936279296875
2.0794189453125
1.92392578125
1.7249267578124998
1.5863525390625
1.6363037109374998
1.5863525390625
1.6089111328124999
1.6072998046875
1.56943359375
1.5364013671874999
1.5202880859374999
1.7942138671874999
2.9914306640625
2.52978515625
2.2905029296875
1.9762939453125
1.546875
1.2399169921875
0.639697265625
0.2747314453125
0.45036621093749996
0.7420166015624999
0.9305419921875
0.9635742187499999
1.216552734375
1.2495849609374998
1.3913818359374999
1.4896728515625
1.5404296874999999
1.5766845703124999
1.4510009765624998
1.5025634765625
0.1119873046875
0.020947265625
0.6251953124999999
0.849169921875
1.1416259765624999
1.5218994140625
1.8626953124999999
3.01962890625
2.9970703125
2.6490234375
2.2832519531249997
1.957763671875
1.7748779296875
1.6910888671875
1.5944091796875
1.546875
1.52109375
1.5726562499999999
1.56943359375
1.5412353515625
1.55009765625
1.5863525390625
3.02607421875
2.6288818359375
2.1938232421875
2.03994140625
1.7152587890625
1.2673095703125
0.6759521484375
0.3021240234375
0.36577148437499996
0.6904541015625
0.8677001953125
1.0626708984375
1.2560302734375
1.4010498046875
1.4816162109375
1.4888671875
1.44052734375
1.5645996093749999
1.5428466796875
1.5186767578125
1.3704345703124998
0.024169921875
0.5671875
0.8362792968749999
1.0562255859375
1.4115234374999999
1.7901855468749999
2.9970703125
3.0252685546875
2.5821533203125
2.392822265625
1.9601806640625
1.7772949218749998
1.72734375
1.6701416015625
1.658056640625
1.6056884765625
1.6306640625
1.538818359375
1.5758789062499998
1.538818359375
1.50498046875
3.0268798828124996
2.6901123046874997
2.389599609375
2.051220703125
1.783740234375
1.4445556640625
0.610693359375
0.2513671875
0.3230712890625
0.6517822265625
0.8886474609374999
1.055419921875
1.1190673828125
1.345458984375
1.3881591796875
1.397021484375
1.4155517578124999
1.5033691406249998
1.4872558593749998
1.4953124999999998
1.4864501953125
0.0217529296875
0.39316406249999997
0.8838134765625
1.0167480468749999
1.3349853515624999
1.6798095703125
3.0244628906249997
3.02607421875
2.7908203124999997
2.358984375
1.98837890625
1.8224121093749999
1.7426513671875
1.6306640625
1.6185791015625
1.5791015625
1.509814453125
1.47275390625
1.4953124999999998
1.5017578125
1.4638916015624999
2.9100585937499996
2.7465087890624997
2.4065185546875
2.1696533203125
1.8788085937499999
1.4469726562499998
0.6767578125
0.46970214843749997
0.33676757812499997
0.530126953125
0.813720703125
1.0248046874999999
1.1053710937499999
1.2826171874999999
1.351904296875
1.5194824218749998
1.5992431640625
1.525927734375
1.5162597656249999
1.5533203125
1.546875
0.020947265625
0.26103515625
0.7033447265624999
0.9192626953124999
1.2568359375
1.6298583984375
2.2469970703124997
3.0252685546875
2.792431640625
2.357373046875
2.0254394531249997
1.8820312499999998
1.7684326171875
1.6886718749999998
1.6177734375
1.5654052734375
1.5154541015624998
1.51787109375
1.56943359375
1.53720703125
1.5090087890625
2.7988769531249997
2.9221435546874996
2.4629150390625
2.189794921875
1.9376220703125
1.5654052734375
0.7943847656249999
0.517236328125
0.2747314453125
0.43505859375
0.82177734375
1.0401123046875
1.01513671875
1.2399169921875
1.351904296875
1.4526123046875
1.4655029296875
1.5001464843749999
1.5186767578125
1.59521484375
1.5758789062499998
0.1329345703125
0.0217529296875
0.694482421875
0.9079833984375
1.1698242187499999
1.5734619140625
2.064111328125
3.0228515624999996
2.9261718749999996
2.4814453125
2.1857666015625
1.93681640625
1.7442626953125
1.5662109375
1.6008544921874999
1.635498046875
1.6379150390625
1.5267333984375
1.49853515625
1.5686279296874999
1.4751708984374998
1.5791015625
2.8625244140625
2.4693603515625
2.199462890625
1.9408447265625
1.5460693359375
1.2536132812499998
0.71220703125
0.13857421875
0.4962890625
0.726708984375
1.02802734375
1.134375
1.184326171875
1.3237060546875
1.3792968749999999
1.496923828125
1.5299560546875
1.5186767578125
1.4687255859375
1.5750732421875
0.34885253906249997
0.0217529296875
0.5986083984375
0.871728515625
1.1400146484375
1.480810546875
1.767626953125
3.0284912109374997
2.947119140625
2.5692626953124997
2.1793212890625
1.9247314453125
1.8151611328125
1.8054931640624998
1.6806152343749998
1.6685302734374998
1.5517089843749998
1.4783935546875
1.5057861328125
1.5154541015624998
1.4953124999999998
1.6000488281249998
3.0236572265625
2.682861328125
2.131787109375
2.012548828125
1.7474853515625
1.27939453125
0.652587890625
0.38107910156249997
0.476953125
0.6638671875
0.887841796875
1.0385009765625
1.2221923828124999
1.30517578125
1.4348876953124998
1.4219970703125
1.4558349609374999
1.4155517578124999
1.5509033203125
1.6781982421875
1.50498046875
0.022558593749999998
0.6171386718749999
0.8161376953124999
1.003857421875
1.3188720703124999
1.7450683593749998
2.8472167968749997
3.02607421875
2.6296874999999997
2.3477050781249997
2.03994140625
1.7579589843749999
1.7942138671874999
1.6395263671875
1.5533203125
1.5186767578125
1.5557373046874998
1.5670166015625
1.6137451171875
1.6000488281249998
1.464697265625
3.027685546875
2.7005859374999996
2.3557617187499997
2.0552490234375
1.740234375
1.4308593749999998
0.6743408203125
0.32951660156249996
0.285205078125
0.53173828125
0.849169921875
1.0803955078125
1.09248046875
1.3784912109374998
1.4735595703125
1.5235107421874998
1.5146484375
1.5573486328125
1.5573486328125
1.561376953125
1.477587890625
0.020947265625
0.29970703125
0.791162109375
0.9273193359374999
1.2342773437499999
1.6588623046875
2.9608154296875
3.021240234375
2.7650390624999996
2.273583984375
2.0576660156249997
1.82724609375
1.7700439453124999
1.7128417968749998
1.714453125
1.5645996093749999
1.5243164062499999
1.4800048828124999
1.5525146484374999
1.5565429687499999
1.445361328125
2.8254638671874996
2.7263671874999997
2.4274658203125
2.135009765625
1.8780029296874998
1.4469726562499998
0.7275146484374999
0.5567138671874999
0.45842285156249996
0.6614501953124999
0.8201660156249999
0.9893554687499999
1.090869140625
1.2568359375
1.3905761718749998
1.397021484375
1.46953125
1.4791992187499998
1.5347900390625
1.5162597656249999
1.5194824218749998
0.022558593749999998
0.22719726562499998
0.6832031249999999
1.0207763671874999
1.2511962890625
1.65
2.1406494140625
3.029296875
2.8093505859374996
2.463720703125
2.0649169921875
1.8465820312499999
1.7490966796874998
1.6266357421875
1.5984375
1.5170654296875
1.496923828125
1.5726562499999999
1.5476806640624998
1.5041748046874999
1.5807128906249999
2.7030029296875
2.9930419921875
2.38154296875
2.11083984375
1.8908935546874999
1.5541259765625
0.8104980468749999
0.507568359375
0.3029296875
0.53173828125
0.7114013671874999
0.9635742187499999
1.0997314453125
1.2955078125
1.3470703124999999
1.4840332031249999
1.5645996093749999
1.5218994140625
1.4228027343749998
1.4953124999999998
1.5476806640624998
0.2876220703125
0.022558593749999998
0.7033447265624999
0.9160400390625
1.1923828125
1.6403320312499998
2.0326904296875
3.0252685546875
2.7892089843749996
2.4951416015624996
2.231689453125
1.8884765625
1.7748779296875
1.6483886718749998
1.6024658203125
1.5944091796875
1.561376953125
1.5670166015625
1.561376953125
1.6040771484374998
1.5380126953125
1.5662109375
2.9833740234375
2.4725830078124997
2.157568359375
1.9118408203125
1.5678222656249998
1.219775390625
0.6413085937499999
0.346435546875
0.45761718749999997
0.708984375
0.9740478515625
1.12470703125
1.1617675781249999
1.3317626953125
1.3470703124999999
1.4332763671875
1.525927734375
1.5621826171875
1.6161621093749998
1.5170654296875
0.436669921875
0.0217529296875
0.5679931640625
0.8854248046875
1.0900634765625
1.3631835937499999
1.6862548828125
3.02607421875
3.0228515624999996
2.624853515625
2.2187988281249997
1.92392578125
1.8071044921875
1.7168701171874998
1.6371093749999999
1.6250244140624999
1.6137451171875
1.5605712890624999
1.5662109375
1.5597656249999998
1.577490234375
1.4606689453125
3.0244628906249997
2.55234375
2.2107421874999997
2.0826416015625
1.8369140625
1.332568359375
0.6098876953125
0.388330078125
0.43022460937499996
0.64453125
0.8346679687499999
1.0417236328125
1.1400146484375
1.3075927734375
1.400244140625
1.5218994140625
1.5275390624999998
1.5645996093749999
1.546875
1.5396240234374998
1.496923828125
0.024169921875
0.580078125
0.82177734375
1.1029541015625
1.3527099609375
1.7257324218749999
2.7062255859374997
3.0244628906249997
2.6860839843749997
2.3138671875
2.012548828125
1.8280517578125
1.7410400390624998
1.641943359375
1.5404296874999999
1.571044921875
1.6024658203125
1.6056884765625
1.6403320312499998
1.5557373046874998
1.53076171875
3.0244628906249997
2.7175048828125
2.3485107421875
2.0560546875
1.8103271484374999
1.4638916015624999
0.5599365234375
0.3907470703125
0.3182373046875
0.6292236328124999
0.8443359374999999
0.9998291015624999
1.003857421875
1.2439453125
1.368017578125
1.4526123046875
1.538818359375
1.4961181640624999
1.5106201171875
1.5315673828124998
1.5323730468749999
0.0217529296875
0.323876953125
0.8499755859375
1.045751953125
1.2673095703125
1.7176757812499999
2.7166992187499996
3.029296875
2.760205078125
2.3195068359374997
2.0423583984375
1.8522216796875
1.8989501953124999
1.7152587890625
1.6636962890625
1.587158203125
1.5283447265624999
1.4848388671875
1.4477783203124999
1.48564453125
1.5090087890625
2.591015625
2.745703125
2.373486328125
2.24619140625
1.869140625
1.5202880859374999
0.9257080078125
0.5841064453125
0.314208984375
0.5647705078124999
0.7774658203125
1.055419921875
1.1271240234375
1.2431396484375
1.33740234375
1.4671142578124998
1.4469726562499998
1.5146484375
1.5412353515625
1.53076171875
1.525927734375
0.0217529296875
0.21672363281249998
0.6703125
0.936181640625
1.1786865234375
1.635498046875
1.9521240234375
3.0244628906249997
2.8464111328125
2.4387451171875
2.0681396484375
1.8280517578125
1.7233154296875
1.6588623046875
1.6040771484374998
1.5799072265624998
1.5364013671874999
1.5597656249999998
1.5541259765625
1.506591796875
1.4767822265625
2.3968505859375
3.01318359375
2.4194091796875
2.1704589843749997
1.9440673828125
1.6411376953124999
1.0385009765625
0.5422119140625
0.2811767578125
0.5180419921875
0.8129150390625
1.1174560546874999
1.10859375
1.2383056640624999
1.3543212890624998
1.4703369140625
1.5275390624999998
1.522705078125
1.482421875
1.4896728515625
1.5114257812499998
0.4954833984375
0.18369140625
0.72509765625
0.928125
1.1408203125
1.6121337890624998
1.9625976562499998
3.027685546875
2.8794433593749997
2.537841796875
2.135009765625
1.84013671875
1.7466796875
1.7088134765624998
1.7039794921875
1.6483886718749998
1.5734619140625
1.5637939453124998
1.5275390624999998
1.5017578125
1.513037109375
1.47275390625
2.9769287109375
2.4564697265624997
2.12373046875
1.92392578125
1.5492919921875
1.2415283203124998
0.5115966796875
0.28359375
0.4189453125
0.7017333984374999
1.0376953125
1.0449462890624999
1.11826171875
1.3744628906249998
1.4356933593749999
1.4687255859375
1.4945068359375
1.5267333984375
1.56943359375
1.5944091796875
0.7637695312499999
0.0201416015625
0.5164306640624999
0.8660888671875
1.1529052734375
1.4219970703125
1.896533203125
3.0268798828124996
3.027685546875
2.640966796875
2.2099365234375
1.9634033203124999
1.85947265625
1.716064453125
1.6725585937499998
1.63388671875
1.4816162109375
1.4671142578124998
1.5106201171875
1.522705078125
1.59521484375
1.47275390625
3.02607421875
2.5112548828124996
2.27197265625
2.1221191406249997
1.6814208984374999
1.3067871093749999
0.5905517578125
0.34160156249999996
0.3520751953125
0.6920654296875
0.9402099609375
1.0852294921874999
1.1698242187499999
1.3559326171875
1.4687255859375
1.5364013671874999
1.5533203125
1.558154296875
1.5073974609374998
1.5670166015625
1.5114257812499998
0.019335937499999997
0.49467773437499996
0.8121093749999999
1.0272216796875
1.3349853515624999
1.6322753906249998
2.6594970703125
3.0204345703124997
2.6522460937499996
2.341259765625
1.98193359375
1.8248291015625
1.7716552734375
1.690283203125
1.6854492187499999
1.5670166015625
1.5380126953125
1.6685302734374998
1.6266357421875
1.5218994140625
1.474365234375
3.0244628906249997
2.8391601562499997
2.3468994140625
2.14306640625
1.87236328125
1.4276367187499999
0.6179443359375
0.3359619140625
0.24492187499999998
0.5349609375
0.8024414062499999
0.984521484375
1.158544921875
1.340625
1.3857421875
1.458251953125
1.5404296874999999
1.546875
1.5476806640624998
1.5428466796875
1.5073974609374998
0.023364257812499997
0.5277099609375
0.742822265625
0.9192626953124999
1.264892578125
1.5968261718749999
2.367041015625
3.0228515624999996
2.8713867187499997
2.3726806640625
2.023828125
1.8780029296874998
1.8062988281249999
1.77890625
1.6153564453125
1.5396240234374998
1.6209960937499999
1.554931640625
1.5138427734375
1.5734619140625
1.4800048828124999
2.5934326171874997
2.9865966796874996
2.513671875
2.2534423828125
1.9198974609375
1.506591796875
1.0175537109375
0.2892333984375
0.08620605468749999
0.281982421875
0.5808837890624999
0.9007324218749999
0.9659912109375
1.1754638671875
1.3583496093749998
1.4518066406249999
1.53720703125
1.5428466796875
1.5758789062499998
1.5678222656249998
1.58232421875
0.0217529296875
0.0652587890625
0.5744384765625
0.9337646484375
1.15048828125
1.587158203125
1.972265625
3.02607421875
3.0236572265625
2.6280761718749996
2.12373046875
1.8949218749999999
1.82724609375
1.7450683593749998
1.6532226562499999
1.611328125
1.5791015625
1.5299560546875
1.5847412109374999
1.5807128906249999
1.4945068359375
2.2389404296874997
3.0252685546875
2.566845703125
2.3275634765624997
2.1245361328125
1.7974365234374998
1.1835205078125
0.5051513671875
0.11279296875
0.252978515625
0.591357421875
0.7790771484375
1.0143310546875
1.19560546875
1.364794921875
1.3768798828125
1.40830078125
1.546875
1.4920898437499999
1.5436523437499998
1.5678222656249998
0.6413085937499999
0.024169921875
0.4447265625
0.6670898437499999
0.9353759765624999
1.5082031249999999
1.8183837890624999
3.021240234375
3.0236572265625
2.7658447265625
2.50400390625
2.1680419921875
2.0334960937499997
1.89169921875
1.6854492187499999
1.5734619140625
1.5533203125
1.5686279296874999
1.5484863281249999
1.4832275390624998
1.5218994140625
2.0391357421875
3.0301025390625
2.8738037109374996
2.5434814453124996
2.333203125
1.869140625
1.4139404296875
0.37705078124999997
0.022558593749999998
0.024169921875
0.2618408203125
0.5518798828125
0.7114013671874999
0.8113037109375
1.2012451171875
1.4195800781249999
1.4381103515625
1.5025634765625
1.5283447265624999
1.5323730468749999
1.5678222656249998
0.91201171875
0.022558593749999998
0.20625
0.5446289062499999
0.6815917968749999
1.0828125
1.7635986328125
3.027685546875
3.0252685546875
3.0228515624999996
2.5628173828125
2.321923828125
2.080224609375
1.989990234375
1.8820312499999998
1.8361083984375
1.72412109375
1.7039794921875
1.5976318359375
1.5251220703125
1.5033691406249998
1.4872558593749998
3.0309082031249996
2.9849853515625
2.6095458984374997
2.4032958984375
1.9746826171874998
1.545263671875
0.6010253906249999
0.12165527343749999
0.019335937499999997
0.201416015625
0.38188476562499996
0.604248046875
0.7025390625
1.0127197265624999
1.3446533203125
1.44052734375
1.490478515625
1.5082031249999999
1.5267333984375
1.56298828125
1.4606689453125
0.023364257812499997
0.153076171875
0.38671875
0.56396484375
0.9345703125
1.4703369140625
2.447607421875
3.0244628906249997
3.02607421875
2.78759765625
2.4065185546875
2.2502197265625
2.1519287109375
1.973876953125
1.7660156249999999
1.7096191406249999
1.6830322265625
1.651611328125
1.5654052734375
1.5146484375
1.4864501953125
3.02607421875
3.0244628906249997
2.848828125
2.5692626953124997
2.3388427734375
1.8377197265624998
0.5277099609375
0.0281982421875
0.024169921875
0.1426025390625
0.28681640625
0.491455078125
0.775048828125
1.0304443359375
1.229443359375
1.2890625
1.3728515625
1.4332763671875
1.5565429687499999
1.5670166015625
1.5323730468749999
0.023364257812499997
0.022558593749999998
0.32145996093749996
0.5180419921875
0.646142578125
1.3253173828125
2.2824462890625
3.0244628906249997
3.02607421875
2.9108642578125
2.6691650390625
2.3404541015625
2.165625
2.0488037109375
1.9150634765624999
1.8167724609375
1.7507080078125
1.6475830078125
1.6081054687499998
1.5637939453124998
1.5678222656249998
2.760205078125
3.0244628906249997
2.96162109375
2.9358398437499997
2.65546875
2.12373046875
1.4389160156249998
0.28037109374999997
0.020947265625
0.0217529296875
0.046728515624999994
0.24814453125
0.3504638671875
0.65419921875
0.8104980468749999
1.116650390625
1.3100097656249998
1.4252197265625
1.4437499999999999
1.4308593749999998
1.4542236328125
0.018530273437499998
0.022558593749999998
0.124072265625
0.15871582031249998
0.362548828125
0.8209716796875
1.5001464843749999
3.02607421875
3.0268798828124996
3.02607421875
2.850439453125
2.6562744140624996
2.5531494140624997
2.3920166015624997
2.20751953125
2.064111328125
1.9456787109375
1.738623046875
1.7362060546875
1.6564453124999998
1.6072998046875
2.4685546874999997
3.0236572265625
3.0244628906249997
3.0252685546875
2.995458984375
2.5160888671875
1.7474853515625
0.2425048828125
0.022558593749999998
0.02578125
0.022558593749999998
0.0322265625
0.104736328125
0.3117919921875
0.5615478515625
0.7484619140625
0.8201660156249999
0.9345703125
1.09892578125
1.2270263671875
1.4010498046875
0.47050781249999996
0.024169921875
0.023364257812499997
0.0217529296875
0.024169921875
0.40605468749999996
1.1738525390624999
3.0236572265625
3.02607421875
3.0244628906249997
3.0309082031249996
3.0147949218749996
2.89716796875
2.705419921875
2.570068359375
2.3718749999999997
2.1615966796875
2.044775390625
1.93359375
1.9005615234375
1.79501953125
1.6935058593749999
3.0220458984375
3.0284912109374997
3.02607421875
3.0252685546875
2.7126708984374996
2.2179931640625
0.98291015625
0.022558593749999998
0.0201416015625
0.01611328125
0.027392578124999997
0.022558593749999998
0.024169921875
0.301318359375
0.607470703125
0.7420166015624999
0.837890625
1.0385009765625
1.345458984375
1.2479736328125
1.345458984375
0.02578125
0.022558593749999998
0.022558593749999998
0.0249755859375
0.19658203124999998
0.5204589843749999
2.0254394531249997
3.0228515624999996
3.0244628906249997
3.02607421875
3.003515625
2.9253662109375
2.9922363281249997
2.8472167968749997
2.55234375
2.408935546875
2.338037109375
2.12373046875
1.9078125
1.832080078125
1.7023681640625
3.0325195312499997
3.0252685546875
3.02607421875
3.0252685546875
3.0244628906249997
2.6683593749999996
0.9885498046875
0.022558593749999998
0.023364257812499997
0.0281982421875
0.023364257812499997
0.0201416015625
0.0281982421875
0.1345458984375
0.3472412109375
0.515625
0.7613525390625
0.8096923828125
0.93779296875
1.0497802734375
1.0594482421875
0.022558593749999998
0.020947265625
0.020947265625
0.024169921875
0.020947265625
0.4713134765625
1.61455078125
3.02607421875
3.0268798828124996
3.0268798828124996
3.0244628906249997
3.0252685546875
2.977734375
2.889111328125
2.78759765625
2.647412109375
2.4943359375
2.3017822265625
2.1487060546875
2.0310791015625
1.957763671875
3.0244628906249997
3.02607421875
3.0188232421874996
3.0244628906249997
3.0301025390625
2.8069335937499997
2.0657226562499997
0.4809814453125
0.022558593749999998
0.0201416015625
0.022558593749999998
0.024169921875
0.020947265625
0.022558593749999998
0.022558593749999998
0.34079589843749997
0.53818359375
0.5905517578125
0.7379882812499999
0.8693115234375
0.9974121093749999
0.027392578124999997
0.020947265625
0.0249755859375
0.022558593749999998
0.0217529296875
0.40524902343749997
0.9168457031249999
3.029296875
3.0220458984375
3.0220458984375
3.0244628906249997
3.02607421875
3.018017578125
2.9640380859374997
2.7916259765625
2.6095458984374997
2.4685546874999997
2.392822265625
2.199462890625
2.01416015625
1.9996582031249999
3.0043212890624997
3.0252685546875
3.02607421875
3.0236572265625
3.0244628906249997
3.0204345703124997
2.544287109375
0.9579345703125
0.023364257812499997
0.018530273437499998
0.026586914062499998
0.022558593749999998
0.022558593749999998
0.022558593749999998
0.042700195312499994
0.16032714843749998
0.252978515625
0.46728515625
0.5446289062499999
0.7323486328125
0.8129150390625
0.022558593749999998
0.023364257812499997
0.018530273437499998
0.0217529296875
0.024169921875
0.027392578124999997
0.31904296875
2.848828125
3.0244628906249997
3.0268798828124996
3.0244628906249997
3.01962890625
3.0236572265625
3.0228515624999996
2.8794433593749997
2.9011962890625
2.7465087890624997
2.592626953125
2.44921875
2.344482421875
2.2067138671874997
2.0778076171874997
3.0228515624999996
3.02607421875
3.029296875
3.0244628906249997
3.02607421875
2.59423828125
1.2455566406249998
0.107958984375
0.018530273437499998
0.022558593749999998
0.022558593749999998
0.0217529296875
0.0201416015625
0.024169921875
0.17080078124999998
0.31662597656249997
0.323876953125
0.4471435546875
0.6268066406249999
0.749267578125
0.8346679687499999
0.027392578124999997
0.024169921875
0.023364257812499997
0.0249755859375
0.023364257812499997
0.223974609375
1.6822265625
3.0220458984375
3.021240234375
3.02607421875
3.0244628906249997
3.0268798828124996
3.02607421875
3.0156005859375
2.898779296875
2.81982421875
2.576513671875
2.4121582031249997
2.2429687499999997
2.1986572265624997
2.141455078125
3.0244628906249997
3.0244628906249997
3.02607421875
3.02607421875
3.0252685546875
2.802099609375
1.9529296875
0.2811767578125
0.0217529296875
0.02578125
0.02578125
0.02900390625
0.024169921875
0.022558593749999998
0.1877197265625
0.12568359375
0.26828613281249997
0.4125
0.5937744140625
0.7057617187499999
0.9603515625
0.022558593749999998
0.024169921875
0.022558593749999998
0.022558593749999998
0.0169189453125
0.31662597656249997
1.4501953125
3.02607421875
3.0236572265625
3.0228515624999996
3.021240234375
3.0252685546875
3.0244628906249997
3.01318359375
2.9326171875
2.9197265624999997
2.8093505859374996
2.6917236328125
2.5797363281249996
2.4484130859374997
2.3372314453125
3.0268798828124996
3.0244628906249997
3.021240234375
3.0228515624999996
3.029296875
3.021240234375
2.956787109375
1.751513671875
0.5309326171875
0.022558593749999998
0.022558593749999998
0.022558593749999998
0.0217529296875
0.018530273437499998
0.0217529296875
0.020947265625
0.024169921875
0.02578125
0.02578125
0.024169921875
0.017724609375
0.017724609375
0.017724609375
0.023364257812499997
0.018530273437499998
0.0217529296875
0.023364257812499997
0.024169921875
0.0217529296875
0.8580322265625
1.7974365234374998
2.15595703125
2.4500244140625
2.7271728515625
2.85205078125
2.9559814453124997
3.0252685546875
2.9253662109375
2.9020019531249996
2.82626953125
2.7271728515625
2.7747070312499997
2.642578125
3.0252685546875
3.0268798828124996
3.0220458984375
3.02607421875
3.0309082031249996
3.0244628906249997
2.2051025390625
0.807275390625
0.069287109375
0.020947265625
0.023364257812499997
0.0217529296875
0.022558593749999998
0.0217529296875
0.0249755859375
0.01611328125
0.0249755859375
0.0346435546875
0.0281982421875
0.0708984375
0.0515625
0.023364257812499997
0.0249755859375
0.024169921875
0.022558593749999998
0.023364257812499997
0.023364257812499997
0.023364257812499997
0.0217529296875
1.1641845703125
1.780517578125
2.2792236328124997
2.5152832031249996
2.7722900390625
3.011572265625
3.0228515624999996
3.027685546875
3.029296875
3.027685546875
3.021240234375
3.0228515624999996
2.9930419921875
3.0252685546875
3.0228515624999996
3.0244628906249997
3.0228515624999996
3.0252685546875
3.0244628906249997
2.2389404296874997
1.2238037109375
0.28359375
0.024169921875
0.02578125
0.024169921875
0.019335937499999997
0.023364257812499997
0.026586914062499998
0.02578125
0.022558593749999998
0.0217529296875
0.0394775390625
0.1877197265625
0.26748046875
0.023364257812499997
0.024169921875
0.019335937499999997
0.022558593749999998
0.017724609375
0.017724609375
0.0249755859375
0.023364257812499997
1.069921875
1.9948242187499998
2.3638183593749997
2.698974609375
2.9455078125
3.0220458984375
3.0236572265625
3.02607421875
3.0252685546875
3.0252685546875
3.0236572265625
2.9342285156249996
2.818212890625
3.0244628906249997
3.0244628906249997
3.0252685546875
3.021240234375
3.0244628906249997
3.021240234375
3.0236572265625
1.896533203125
0.54140625
0.02578125
0.02578125
0.0217529296875
0.023364257812499997
0.0201416015625
0.022558593749999998
0.02578125
0.0249755859375
0.0394775390625
0.10957031249999999
0.0958740234375
0.17724609375
0.0249755859375
0.0169189453125
0.024169921875
0.0298095703125
0.023364257812499997
0.026586914062499998
0.0249755859375
0.0281982421875
0.7935791015625
1.5323730468749999
1.9859619140625
2.4363281249999997
2.745703125
2.8641357421875
3.021240234375
3.0228515624999996
3.01962890625
3.01962890625
3.0244628906249997
2.9382568359374996
2.924560546875
3.0252685546875
3.0244628906249997
3.0252685546875
3.0244628906249997
3.0236572265625
3.0284912109374997
3.01962890625
2.0939208984374997
0.8564208984374999
0.2457275390625
0.022558593749999998
0.023364257812499997
0.0169189453125
0.02578125
0.022558593749999998
0.0201416015625
0.0281982421875
0.08217773437499999
0.0990966796875
0.15791015625
0.223974609375
0.026586914062499998
0.024169921875
0.023364257812499997
0.0217529296875
0.0217529296875
0.022558593749999998
0.022558593749999998
0.0217529296875
0.020947265625
1.2262207031249999
1.9891845703125
2.3275634765624997
2.6562744140624996
2.9583984374999996
3.003515625
3.0252685546875
3.0228515624999996
3.02607421875
3.02607421875
2.972900390625
3.02607421875
3.0099609375
3.0284912109374997
3.0244628906249997
3.027685546875
3.029296875
3.0244628906249997
3.0252685546875
2.2308837890624997
1.152099609375
0.1039306640625
0.0217529296875
0.0281982421875
0.022558593749999998
0.01611328125
0.022558593749999998
0.027392578124999997
0.033837890625
0.1039306640625
0.0515625
0.08217773437499999
0.2118896484375
0.21108398437499998
0.019335937499999997
0.023364257812499997
0.0217529296875
0.023364257812499997
0.0201416015625
0.0217529296875
0.023364257812499997
0.018530273437499998
1.1013427734374999
1.7120361328125
2.03994140625
2.3597900390624997
2.6917236328125
2.763427734375
2.872998046875
3.0123779296874997
3.01962890625
3.0236572265625
3.029296875
3.0220458984375
2.98095703125
3.029296875
3.02607421875
3.0252685546875
3.0228515624999996
3.0252685546875
3.0252685546875
2.8464111328125
1.4316650390624999
0.488232421875
0.018530273437499998
0.022558593749999998
0.022558593749999998
0.024169921875
0.026586914062499998
0.022558593749999998
0.017724609375
0.024169921875
0.072509765625
0.15227050781249998
0.149853515625
0.2425048828125
0.020947265625
0.022558593749999998
0.022558593749999998
0.0201416015625
0.0281982421875
0.018530273437499998
0.020947265625
0.0217529296875
0.7661865234374999
1.48564453125
2.0939208984374997
2.4935302734375
2.824658203125
2.8552734374999997
3.0284912109374997
3.0252685546875
3.0236572265625
3.018017578125
3.0244628906249997
3.0236572265625
3.0244628906249997
3.029296875
3.02607421875
3.0244628906249997
3.02607421875
3.0244628906249997
3.0252685546875
2.9970703125
1.9271484374999999
0.7839111328124999
0.08540039062499999
0.0169189453125
0.017724609375
0.026586914062499998
0.017724609375
0.022558593749999998
0.0217529296875
0.02578125
0.022558593749999998
0.088623046875
0.149853515625
0.24814453125
0.0201416015625
0.0249755859375
0.019335937499999997
0.0201416015625
0.024169921875
0.022558593749999998
0.022558593749999998
0.020947265625
0.214306640625
1.5533203125
2.0778076171874997
2.36220703125
2.5531494140624997
2.8351318359374997
3.0244628906249997
3.0252685546875
3.02607421875
3.027685546875
3.0252685546875
3.0236572265625
3.0236572265625
2.9398681640624997
3.0244628906249997
3.0228515624999996
3.0228515624999996
3.0244628906249997
3.0220458984375
3.0244628906249997
2.3904052734375
1.12470703125
0.0636474609375
0.026586914062499998
0.026586914062499998
0.026586914062499998
0.024169921875
0.02900390625
0.027392578124999997
0.0217529296875
0.019335937499999997
0.11359863281249999
0.18449707031249998
0.265869140625
0.343212890625
0.0201416015625
0.017724609375
0.022558593749999998
0.027392578124999997
0.023364257812499997
0.020947265625
0.023364257812499997
0.023364257812499997
1.2536132812499998
1.819189453125
2.1462890624999997
2.4886962890624997
2.7263671874999997
2.9181152343749996
2.8536621093749996
2.9028076171875
2.9173095703125
2.9479248046874997
2.889111328125
2.882666015625
2.7110595703125
3.0268798828124996
3.02607421875
3.0252685546875
3.029296875
3.0244628906249997
3.027685546875
2.3968505859375
1.2423339843749999
0.41008300781249996
0.023364257812499997
0.018530273437499998
0.020947265625
0.0217529296875
0.0169189453125
0.022558593749999998
0.022558593749999998
0.064453125
0.11279296875
0.17080078124999998
0.25620117187499997
0.301318359375
0.022558593749999998
0.022558593749999998
0.022558593749999998
0.0281982421875
0.0217529296875
0.022558593749999998
0.02578125
0.022558593749999998
0.7178466796874999
1.4268310546874998
2.03671875
2.354150390625
2.6055175781249997
2.785986328125
2.8786376953125
2.9785400390624996
2.89072265625
2.979345703125
2.96162109375
3.0043212890624997
2.9197265624999997
3.0204345703124997
3.02607421875
3.027685546875
3.0204345703124997
3.0268798828124996
3.02607421875
2.62646484375
1.8344970703124999
0.7984130859374999
0.0281982421875
0.0201416015625
0.024169921875
0.019335937499999997
0.022558593749999998
0.0217529296875
0.027392578124999997
0.10957031249999999
0.0797607421875
0.159521484375
0.2425048828125
0.262646484375
0.023364257812499997
0.023364257812499997
0.023364257812499997
0.0217529296875
0.018530273437499998
0.018530273437499998
0.024169921875
0.024169921875
0.3875244140625
1.4558349609374999
1.912646484375
2.1841552734375
2.5797363281249996
2.65546875
2.9664550781249996
3.021240234375
3.0220458984375
3.0228515624999996
3.0268798828124996
3.0244628906249997
3.0236572265625
3.0268798828124996
3.0228515624999996
3.0252685546875
3.02607421875
3.0244628906249997
3.0301025390625
3.0236572265625
2.241357421875
0.862060546875
0.24814453125
0.0217529296875
0.022558593749999998
0.0217529296875
0.0217529296875
0.023364257812499997
0.02578125
0.019335937499999997
0.023364257812499997
0.026586914062499998
0.058813476562499994
0.11923828125
0.024169921875
0.020947265625
0.0201416015625
0.02578125
0.027392578124999997
0.0249755859375
0.0217529296875
0.022558593749999998
0.02578125
1.0884521484375
1.6129394531249999
2.1720703125
2.50400390625
2.7368408203124996
2.8190185546874997
2.9922363281249997
3.0204345703124997
3.0236572265625
2.98095703125
3.0204345703124997
2.9414794921875
2.9519531249999997
3.0268798828124996
3.0236572265625
3.02607421875
3.02607421875
3.0244628906249997
3.0252685546875
2.2550537109374997
1.168212890625
0.3021240234375
0.024169921875
0.022558593749999998
0.022558593749999998
0.020947265625
0.024169921875
0.0217529296875
0.0169189453125
0.024169921875
0.0515625
0.017724609375
0.1039306640625
0.10231933593749999
0.0217529296875
0.022558593749999998
0.024169921875
0.0217529296875
0.02578125
0.023364257812499997
0.020947265625
0.022558593749999998
0.990966796875
1.8667236328124999
2.27197265625
2.4693603515625
2.7884033203125
2.866552734375
2.9575927734375
2.9994873046875
2.9108642578125
2.9124755859375
2.9922363281249997
2.98095703125
2.8915283203124997
3.02607421875
3.0301025390625
3.0228515624999996
3.0252685546875
3.0252685546875
3.0236572265625
2.3581787109375
1.7531249999999998
0.47453613281249996
0.0217529296875
0.022558593749999998
0.0217529296875
0.027392578124999997
0.024169921875
0.022558593749999998
0.0217529296875
0.020947265625
0.042700195312499994
0.104736328125
0.1232666015625
0.16274414062499998
0.026586914062499998
0.027392578124999997
0.018530273437499998
0.02578125
0.022558593749999998
0.023364257812499997
0.018530273437499998
0.022558593749999998
1.0336669921875
1.213330078125
1.8949218749999999
2.1865722656249997
2.6031005859375
2.6885009765624996
2.8705810546875
2.9527587890625
2.9140869140624996
2.9334228515625
2.8979736328124996
2.8552734374999997
2.7642333984375
3.027685546875
3.0284912109374997
3.02607421875
3.0284912109374997
3.02607421875
3.0236572265625
3.0301025390625
1.7120361328125
0.6372802734374999
0.038671874999999994
0.020947265625
0.018530273437499998
0.020947265625
0.023364257812499997
0.022558593749999998
0.0249755859375
0.0217529296875
0.023364257812499997
0.1329345703125
0.1635498046875
0.2425048828125
0.023364257812499997
0.022558593749999998
0.0217529296875
0.0249755859375
0.0201416015625
0.022558593749999998
0.024169921875
0.0217529296875
0.6968994140625
1.2608642578125
1.909423828125
2.167236328125
2.39765625
2.6643310546874996
2.7747070312499997
2.86494140625
2.7811523437499996
2.924560546875
2.8810546875
2.88427734375
2.9261718749999996
3.02607421875
3.027685546875
3.027685546875
3.0228515624999996
3.02607421875
3.0252685546875
3.021240234375
2.31064453125
1.119873046875
0.0708984375
0.022558593749999998
0.02578125
0.0201416015625
0.022558593749999998
0.022558593749999998
0.0217529296875
0.018530273437499998
0.02578125
0.024169921875
0.024169921875
0.14501953125
0.02578125
0.022558593749999998
0.024169921875
0.027392578124999997
0.024169921875
0.024169921875
0.0169189453125
0.0217529296875
0.022558593749999998
1.3067871093749999
1.8731689453125
2.2582763671875
2.5805419921875
2.8528564453125
2.9712890625
3.02607421875
3.0244628906249997
3.0268798828124996
3.0244628906249997
2.9342285156249996
2.9181152343749996
2.7988769531249997
3.027685546875
3.0220458984375
3.0252685546875
3.0236572265625
3.0268798828124996
3.02607421875
2.566845703125
1.16337890625
0.2972900390625
0.0217529296875
0.024169921875
0.0217529296875
0.020947265625
0.020947265625
0.023364257812499997
0.022558593749999998
0.027392578124999997
0.088623046875
0.16435546874999998
0.21269531249999998
0.233642578125
0.023364257812499997
0.023364257812499997
0.0169189453125
0.0249755859375
0.022558593749999998
0.0201416015625
0.027392578124999997
0.026586914062499998
1.05380859375
1.2850341796875
1.9432617187499999
2.3783203125
2.631298828125
2.7803466796875
2.8963623046875
3.0172119140625
2.860107421875
2.8738037109374996
2.9092529296875
2.8077392578125
2.7900146484375
3.02607421875
3.0268798828124996
3.0252685546875
3.0252685546875
3.0252685546875
3.0188232421874996
2.3009765625
1.587158203125
0.554296875
0.023364257812499997
0.026586914062499998
0.022558593749999998
0.0201416015625
0.023364257812499997
0.018530273437499998
0.022558593749999998
0.0217529296875
0.023364257812499997
0.022558593749999998
0.104736328125
0.08942871093749999
0.020947265625
0.017724609375
0.019335937499999997
0.023364257812499997
0.0217529296875
0.0201416015625
0.02900390625
0.0217529296875
0.4358642578125
1.1456542968749999
1.7619873046874999
1.9916015624999999
2.167236328125
2.4041015624999997
2.5193115234374996
2.5837646484374996
2.7239501953125
2.7465087890624997
2.7545654296874997
2.7988769531249997
2.82626953125
3.029296875
3.0244628906249997
3.0172119140625
3.0301025390625
3.021240234375
3.0236572265625
3.029296875
2.1954345703125
0.9603515625
0.0281982421875
0.022558593749999998
0.022558593749999998
0.022558593749999998
0.0249755859375
0.020947265625
0.022558593749999998
0.022558593749999998
0.1329345703125
0.19013671875
0.17644042968749998
0.18288574218749998
0.0249755859375
0.023364257812499997
0.0217529296875
0.022558593749999998
0.018530273437499998
0.023364257812499997
0.027392578124999997
0.023364257812499997
0.027392578124999997
1.4703369140625
1.9754882812499999
2.2469970703124997
2.586181640625
2.7755126953125
2.9914306640625
3.02607421875
3.011572265625
3.0252685546875
3.0252685546875
2.977734375
2.921337890625
2.8206298828125
3.0252685546875
3.0244628906249997
3.0244628906249997
3.0236572265625
3.0244628906249997
3.0252685546875
2.3485107421875
1.0916748046875
0.24733886718749998
0.023364257812499997
0.023364257812499997
0.0249755859375
0.0217529296875
0.022558593749999998
0.023364257812499997
0.023364257812499997
0.0217529296875
0.026586914062499998
0.078955078125
0.1353515625
0.18691406249999998
0.017724609375
0.0249755859375
0.023364257812499997
0.0249755859375
0.0217529296875
0.022558593749999998
0.023364257812499997
0.022558593749999998
1.0916748046875
1.6250244140624999
2.1760986328125
2.3178955078125
2.6925292968749996
2.7320068359375
2.7134765625
2.7368408203124996
2.9656494140625
2.7827636718749997
2.784375
2.6578857421874997
2.618408203125
3.0244628906249997
3.0204345703124997
3.0228515624999996
3.0268798828124996
3.02607421875
3.02607421875
2.2494140625
1.4848388671875
0.4648681640625
0.0249755859375
0.023364257812499997
0.020947265625
0.023364257812499997
0.022558593749999998
0.022558593749999998
0.020947265625
0.023364257812499997
0.0249755859375
0.116015625
0.1329345703125
0.18369140625
0.0249755859375
0.019335937499999997
0.022558593749999998
0.0217529296875
0.024169921875
0.024169921875
0.023364257812499997
0.023364257812499997
0.8346679687499999
1.6685302734374998
2.0689453125
2.32998046875
2.7972656249999996
2.8899169921874996
2.924560546875
2.9656494140625
2.8593017578124997
2.8673583984374997
2.8383544921875
2.7577880859375
2.673193359375
3.0244628906249997
3.02607421875
3.027685546875
3.0236572265625
3.0220458984375
3.02607421875
3.0252685546875
2.035107421875
0.5438232421875
0.0217529296875
0.022558593749999998
0.023364257812499997
0.023364257812499997
0.022558593749999998
0.022558593749999998
0.026586914062499998
0.024169921875
0.0459228515625
0.075732421875
0.153076171875
0.30856933593749997
0.022558593749999998
0.0281982421875
0.019335937499999997
0.0217529296875
0.019335937499999997
0.022558593749999998
0.0217529296875
0.0217529296875
1.15048828125
1.8014648437499998
2.2018798828125
2.582958984375
2.8109619140624997
2.9575927734375
2.9519531249999997
2.985791015625
2.9640380859374997
2.9479248046874997
3.0027099609374996
2.9672607421875
2.82626953125
3.0236572265625
3.0244628906249997
3.0236572265625
3.0236572265625
3.0244628906249997
3.0252685546875
3.0244628906249997
2.0898925781249997
0.9095947265625
0.2296142578125
0.0281982421875
0.023364257812499997
0.0217529296875
0.0217529296875
0.024169921875
0.15468749999999998
0.6098876953125
3.027685546875
3.0244628906249997
3.0244628906249997
3.0252685546875
3.02607421875
3.0236572265625
3.0268798828124996
3.0188232421874996
3.0236572265625
3.0252685546875
3.0268798828124996
3.0244628906249997
3.02607421875
3.0252685546875
3.0252685546875
3.0252685546875
3.0284912109374997
3.021240234375
3.0252685546875
3.0244628906249997
3.0252685546875
3.0252685546875
3.0284912109374997
3.0228515624999996
3.0244628906249997
3.0268798828124996
3.0228515624999996
3.0252685546875
3.0252685546875
3.0220458984375
3.0220458984375
3.0244628906249997
3.0220458984375
3.0236572265625
3.0244628906249997
3.0220458984375
3.0244628906249997
3.0284912109374997
3.0252685546875
3.0268798828124996
3.0252685546875
3.0236572265625
3.027685546875
3.021240234375
3.0252685546875
3.0252685546875
3.0244628906249997
0.4229736328125
0.6832031249999999
1.0328613281249999
1.2858398437499998
1.6056884765625
2.1664306640624997
3.0284912109374997
3.02607421875
3.02607421875
3.01962890625
2.9285888671875
2.7561767578125
2.640966796875
2.2792236328124997
2.118896484375
1.877197265625
1.6862548828125
1.5323730468749999
1.461474609375
1.2528076171875
1.05380859375
3.02607421875
3.0244628906249997
2.7610107421874996
2.47177734375
2.0898925781249997
1.3994384765624999
0.0249755859375
0.024169921875
0.022558593749999998
0.024169921875
0.0201416015625
0.020947265625
0.030615234374999998
0.0958740234375
0.175634765625
0.30615234375
0.4809814453125
0.610693359375
0.6815917968749999
0.781494140625
1.0288330078124999
0.023364257812499997
0.023364257812499997
0.10634765624999999
0.0459228515625
0.21511230468749998
0.5132080078125
1.6048828124999999
3.02607421875
3.0236572265625
2.6063232421875
2.2913085937499997
1.9190917968749999
1.5033691406249998
1.46953125
1.3382080078124998
1.2318603515625
1.1303466796875
1.16015625
1.1174560546874999
1.1287353515625
1.1053710937499999
1.783740234375
3.0244628906249997
2.7948486328124997
2.56845703125
2.15595703125
1.5533203125
0.9498779296875
0.042700195312499994
0.017724609375
0.0201416015625
0.1152099609375
0.28842773437499997
0.4318359375
0.5647705078124999
0.8209716796875
0.994189453125
1.04736328125
1.08603515625
1.14404296875
1.2528076171875
1.2745605468749999
0.022558593749999998
0.023364257812499997
0.2344482421875
0.3053466796875
0.452783203125
0.9490722656249999
1.4147460937499998
3.0220458984375
3.0244628906249997
2.811767578125
2.333203125
1.944873046875
1.7466796875
1.6435546875
1.52109375
1.3784912109374998
1.426025390625
1.3188720703124999
1.316455078125
1.2608642578125
1.2769775390625
1.4896728515625
3.0325195312499997
2.9285888671875
2.60068359375
2.2953369140624997
1.78857421875
1.152099609375
0.2666748046875
0.022558593749999998
0.017724609375
0.24331054687499998
0.298095703125
0.48178710937499997
0.77666015625
1.0884521484375
1.18916015625
1.2479736328125
1.3148437499999999
1.340625
1.4316650390624999
1.4800048828124999
1.139208984375
0.023364257812499997
0.2860107421875
0.43344726562499997
0.5019287109375
1.1061767578125
1.6346923828125
3.02607421875
3.02607421875
2.824658203125
2.5531494140624997
2.2357177734375
1.9924072265625
1.85625
1.6330810546874999
1.546875
1.4598632812499999
1.4389160156249998
1.456640625
1.4759765624999999
1.4945068359375
1.4953124999999998
3.0220458984375
2.9350341796875
2.5853759765624997
2.3074218749999997
1.912646484375
1.46630859375
0.49951171875
0.026586914062499998
0.019335937499999997
0.16435546874999998
0.36979980468749996
0.64453125
0.8572265625
1.0973144531249999
1.351904296875
1.4316650390624999
1.4832275390624998
1.5243164062499999
1.432470703125
1.4638916015624999
1.3704345703124998
0.017724609375
0.20302734374999998
0.594580078125
0.8677001953125
1.1384033203125
1.5654052734375
3.0268798828124996
3.0188232421874996
3.011572265625
2.5402587890625
2.1325927734375
1.9537353515625
1.8280517578125
1.6564453124999998
1.62744140625
1.5009521484375
1.4888671875
1.545263671875
1.38896484375
1.4445556640625
1.4751708984374998
3.027685546875
3.0421875
2.640966796875
2.392822265625
2.1744873046874997
1.5484863281249999
0.6260009765625
0.2513671875
0.018530273437499998
0.19497070312499998
0.46567382812499997
0.7194580078124999
0.9007324218749999
1.18916015625
1.3639892578125
1.513037109375
1.5106201171875
1.5525146484374999
1.51787109375
1.545263671875
1.490478515625
0.023364257812499997
0.11843261718749999
0.5663818359375
0.7412109375
1.090869140625
1.533984375
2.254248046875
3.0244628906249997
3.021240234375
2.6063232421875
2.263916015625
2.00771484375
1.8828369140624999
1.73056640625
1.6443603515624998
1.513037109375
1.554931640625
1.5033691406249998
1.5444580078124999
1.670947265625
1.574267578125
3.02607421875
3.0252685546875
2.6272705078125
2.3315917968749997
2.1060058593749997
1.5984375
0.700927734375
0.30937499999999996
0.022558593749999998
0.095068359375
0.47856445312499996
0.734765625
0.910400390625
1.2826171874999999
1.3986328124999998
1.361572265625
1.4638916015624999
1.4461669921875
1.5073974609374998
1.5001464843749999
1.5041748046874999
0.018530273437499998
0.017724609375
0.549462890625
0.7379882812499999
1.039306640625
1.5919921874999998
2.101171875
3.0244628906249997
3.01962890625
2.631298828125
2.360595703125
2.0874755859375
1.9215087890625
1.7039794921875
1.7047851562499998
1.7458740234374999
1.687060546875
1.5605712890624999
1.5670166015625
1.4864501953125
1.4590576171874998
1.6379150390625
3.02607421875
2.63935546875
2.3694580078125
2.2566650390625
1.6089111328124999
1.148876953125
0.37705078124999997
0.0249755859375
0.088623046875
0.4165283203125
0.6566162109375
0.8789794921874999
1.0336669921875
1.2858398437499998
1.509814453125
1.5927978515624999
1.5662109375
1.5807128906249999
1.5323730468749999
1.4848388671875
0.023364257812499997
0.023364257812499997
0.491455078125
0.7468505859375
1.023193359375
1.4155517578124999
1.7466796875
3.0268798828124996
3.0252685546875
2.776318359375
2.4500244140625
2.0254394531249997
1.8812255859375
1.799853515625
1.6822265625
1.577490234375
1.56298828125
1.522705078125
1.5412353515625
1.5807128906249999
1.5315673828124998
1.49853515625
3.0252685546875
2.8415771484374996
2.3557617187499997
2.1986572265624997
1.7700439453124999
1.2463623046874999
0.36174316406249996
0.02900390625
0.0378662109375
0.39719238281249997
0.7218749999999999
0.966796875
1.1013427734374999
1.2785888671874999
1.4397216796874999
1.4912841796874998
1.4735595703125
1.53076171875
1.6040771484374998
1.5412353515625
1.545263671875
0.022558593749999998
0.5196533203125
0.7154296874999999
0.8950927734374999
1.3462646484374998
1.7668212890625
3.027685546875
3.021240234375
2.6941406249999997
2.3718749999999997
2.1197021484375
1.8820312499999998
1.8763916015625
1.6451660156249999
1.6846435546874998
1.606494140625
1.5428466796875
1.5718505859374998
1.5791015625
1.529150390625
1.6000488281249998
3.02607421875
2.860107421875
2.5716796874999996
2.2711669921874997
1.9223144531249998
1.4711425781249998
0.5502685546875
0.1007080078125
0.1264892578125
0.43828124999999996
0.7097900390624999
0.8741455078125
0.9079833984375
1.2503906249999999
1.3768798828125
1.4767822265625
1.6459716796875
1.62744140625
1.6177734375
1.5073974609374998
1.513037109375
0.0201416015625
0.0684814453125
0.639697265625
0.8628662109374999
1.1279296875
1.538818359375
2.9156982421874997
3.0268798828124996
2.8528564453125
2.4854736328125
2.2236328125
2.0455810546874997
1.8304687499999999
1.654833984375
1.5791015625
1.5895751953125
1.5323730468749999
1.4622802734375
1.59521484375
1.6185791015625
1.5218994140625
3.0083496093749997
3.0188232421874996
2.528173828125
2.2727783203125
1.9795166015624999
1.5533203125
0.8056640625
0.32468261718749997
0.0797607421875
0.3158203125
0.54140625
0.8314453125
0.952294921875
1.2882568359375
1.41796875
1.5347900390625
1.5621826171875
1.5758789062499998
1.5662109375
1.509814453125
1.546875
0.020947265625
0.07734374999999999
0.623583984375
0.84111328125
1.1593505859375
1.6105224609375
2.08828125
3.0236572265625
2.947119140625
2.6417724609374997
2.321923828125
1.9762939453125
1.8304687499999999
1.7015624999999999
1.6765869140624998
1.6524169921874998
1.5919921874999998
1.6024658203125
1.5251220703125
1.4477783203124999
1.509814453125
2.69736328125
3.0220458984375
2.6788330078125
2.2308837890624997
1.9142578124999998
1.6056884765625
1.18916015625
0.3633544921875
0.0717041015625
0.193359375
0.6630615234374999
0.8354736328125
1.042529296875
1.29228515625
1.3897705078125
1.4751708984374998
1.5476806640624998
1.5895751953125
1.6371093749999999
1.5654052734375
1.56298828125
0.1796630859375
0.024169921875
0.5357666015625
0.8386962890624999
1.03125
1.4510009765624998
2.002880859375
3.0236572265625
3.0252685546875
2.5813476562499997
2.2373291015625
1.989990234375
1.7934082031249998
1.7233154296875
1.6943115234375
1.7152587890625
1.5992431640625
1.5686279296874999
1.46630859375
1.4679199218749999
1.4655029296875
1.5323730468749999
3.0204345703124997
2.6272705078125
2.3082275390625
2.23330078125
1.735400390625
1.3639892578125
0.46647949218749996
0.02900390625
0.1377685546875
0.36174316406249996
0.7025390625
0.9031494140624999
1.168212890625
1.3954101562499999
1.4759765624999999
1.5017578125
1.5533203125
1.6814208984374999
1.6330810546874999
1.5460693359375
0.4278076171875
0.042700195312499994
0.36899414062499997
0.6598388671875
1.0328613281249999
1.4381103515625
1.7611816406249998
3.02607421875
3.0252685546875
2.7988769531249997
2.28486328125
2.0391357421875
1.867529296875
1.812744140625
1.6653076171874999
1.6967285156249998
1.533984375
1.609716796875
1.577490234375
1.5670166015625
1.5412353515625
1.5001464843749999
3.021240234375
2.898779296875
2.421826171875
2.144677734375
1.9295654296875
1.3083984375
0.6807861328125
0.0910400390625
0.146630859375
0.43022460937499996
0.742822265625
0.9329589843749999
1.0642822265625
1.3108154296874999
1.4139404296875
1.51787109375
1.51787109375
1.5275390624999998
1.5380126953125
1.5911865234375
1.5476806640624998
0.023364257812499997
0.36416015625
0.662255859375
0.9821044921875
1.397021484375
1.7595703125
2.7569824218749996
3.0301025390625
2.7980712890625
2.4065185546875
2.126953125
1.8038818359375
1.7942138671874999
1.7096191406249999
1.62744140625
1.6604736328124998
1.6411376953124999
1.5509033203125
1.5637939453124998
1.5154541015624998
1.477587890625
3.02607421875
2.9173095703125
2.4548583984375
2.1728759765625
1.915869140625
1.4993408203124998
0.9079833984375
0.2255859375
0.023364257812499997
0.2457275390625
0.758935546875
0.9716308593749999
1.0828125
1.3188720703124999
1.4751708984374998
1.51787109375
1.4953124999999998
1.6314697265625
1.5645996093749999
1.6040771484374998
1.4759765624999999
0.022558593749999998
0.0362548828125
0.6904541015625
0.9160400390625
1.197216796875
1.6161621093749998
2.5692626953124997
3.0244628906249997
2.96484375
2.4532470703125
2.1221191406249997
1.8949218749999999
1.851416015625
1.6346923828125
1.5275390624999998
1.5863525390625
1.50498046875
1.525927734375
1.5492919921875
1.5122314453124999
1.5057861328125
2.5370361328124997
3.005126953125
2.544287109375
2.325146484375
2.0979492187499997
1.61455078125
0.9974121093749999
0.4552001953125
0.0837890625
0.36093749999999997
0.6598388671875
0.9063720703125
0.9724365234375
1.2576416015624998
1.377685546875
1.4630859374999998
1.5347900390625
1.4880615234374999
1.5525146484374999
1.529150390625
1.5436523437499998
0.022558593749999998
0.064453125
0.6509765624999999
0.9240966796875
1.1899658203124999
1.6153564453125
1.9907958984374998
3.02607421875
3.005126953125
2.70703125
2.1019775390624997
1.8925048828125
1.8054931640624998
1.6717529296875
1.5984375
1.4461669921875
1.6653076171874999
1.625830078125
1.571044921875
1.5533203125
1.5122314453124999
2.33642578125
3.027685546875
2.6965576171874996
2.3388427734375
2.0737792968749997
1.6524169921874998
1.0610595703124999
0.4165283203125
0.1039306640625
0.31340332031249996
0.5687988281249999
0.8354736328125
0.9490722656249999
1.15693359375
1.3664062499999998
1.4518066406249999
1.5082031249999999
1.554931640625
1.5347900390625
1.533984375
1.51787109375
0.6211669921874999
0.024169921875
0.60263671875
0.8427246093749999
1.045751953125
1.5517089843749998
1.8868652343749999
3.029296875
3.0268798828124996
2.666748046875
2.3936279296875
2.083447265625
1.8336914062499998
1.735400390625
1.7257324218749999
1.6242187499999998
1.5807128906249999
1.5533203125
1.6765869140624998
1.522705078125
1.4783935546875
1.506591796875
3.0309082031249996
2.6530517578125
2.3839599609374997
2.0761962890625
1.6572509765624999
1.3599609375
0.523681640625
0.11279296875
0.193359375
0.5204589843749999
0.84111328125
0.9958007812499999
1.1819091796874999
1.3494873046875
1.4123291015625
1.426025390625
1.5106201171875
1.546875
1.5847412109374999
1.5331787109375
1.02158203125
0.0217529296875
0.3681884765625
0.760546875
0.93779296875
1.2221923828124999
1.6959228515625
3.0236572265625
3.021240234375
2.834326171875
2.3436767578124997
2.0761962890625
1.8707519531249999
1.76279296875
1.6733642578124999
1.6314697265625
1.56943359375
1.577490234375
1.546875
1.6169677734374999
1.529150390625
1.49853515625
3.021240234375
2.70380859375
2.3936279296875
2.199462890625
1.9078125
1.3575439453125
0.501123046875
0.265869140625
0.20947265625
0.5349609375
0.6985107421875
0.897509765625
1.0626708984375
1.2938964843749998
1.4437499999999999
1.542041015625
1.5678222656249998
1.5911865234375
1.5750732421875
1.5146484375
1.4751708984374998
0.026586914062499998
0.323876953125
0.7242919921875
0.9885498046875
1.30517578125
1.641943359375
2.4613037109375
3.02607421875
2.874609375
2.5652343749999997
2.1164794921875
1.9190917968749999
1.767626953125
1.65966796875
1.6371093749999999
1.5976318359375
1.65
1.554931640625
1.545263671875
1.542041015625
1.574267578125
3.0236572265625
3.0220458984375
2.5007812499999997
2.1664306640624997
1.9553466796874999
1.4638916015624999
0.507568359375
0.3585205078125
0.08056640625
0.5051513671875
0.79921875
0.9232910156249999
1.0159423828125
1.3124267578125
1.464697265625
1.4840332031249999
1.4816162109375
1.558154296875
1.5839355468749998
1.6201904296874998
1.5702392578125
0.023364257812499997
0.037060546874999996
0.7065673828125
0.84111328125
1.09248046875
1.5525146484374999
2.20107421875
3.0284912109374997
3.0099609375
2.4516357421875
2.2357177734375
1.93681640625
1.8328857421875
1.6951171875
1.6346923828125
1.635498046875
1.6411376953124999
1.5525146484374999
1.5509033203125
1.4711425781249998
1.513037109375
2.1100341796874997
3.01962890625
2.5289794921874997
2.3420654296875
2.03671875
1.59521484375
1.184326171875
0.39799804687499996
0.11279296875
0.330322265625
0.5929687499999999
0.8838134765625
1.0272216796875
1.2076904296875
1.3656005859375
1.4953124999999998
1.51787109375
1.4679199218749999
1.5275390624999998
1.490478515625
1.4501953125
0.026586914062499998
0.022558593749999998
0.554296875
0.8386962890624999
0.9724365234375
1.4864501953125
1.8409423828125
3.0252685546875
3.0220458984375
2.5845703125
2.2679443359375
1.9166748046875
1.8344970703124999
1.76279296875
1.7337890624999999
1.6773925781249999
1.5815185546875
1.538818359375
1.49853515625
1.5122314453124999
1.5243164062499999
1.722509765625
3.027685546875
2.5072265624999996
2.2969482421875
2.19140625
1.8489990234375
1.1980224609374999
0.488232421875
0.07734374999999999
0.24089355468749998
0.5647705078124999
0.8435302734375
0.9869384765625
1.1617675781249999
1.3849365234375
1.4800048828124999
1.5944091796875
1.6427490234375
1.6137451171875
1.5597656249999998
1.5202880859374999
1.2906738281249999
0.023364257812499997
0.5196533203125
0.7460449218749999
0.936181640625
1.4195800781249999
1.8022705078124999
2.9761230468749997
3.0244628906249997
2.6611083984375
2.3694580078125
1.9658203125
1.8304687499999999
1.7410400390624998
1.6556396484375
1.622607421875
1.6048828124999999
1.5847412109374999
1.533984375
1.4638916015624999
1.5364013671874999
1.493701171875
3.0228515624999996
2.921337890625
2.495947265625
2.14951171875
1.8232177734375
1.4107177734374998
0.4890380859375
0.019335937499999997
0.233642578125
0.575244140625
0.84111328125
1.071533203125
1.0900634765625
1.3664062499999998
1.4252197265625
1.5122314453124999
1.58232421875
1.5734619140625
1.4848388671875
1.4872558593749998
1.4920898437499999
0.0217529296875
0.298095703125
0.7130126953125
0.889453125
1.16337890625
1.7490966796874998
2.8552734374999997
3.0252685546875
2.7867919921874997
2.4298828125
2.157568359375
1.9891845703125
1.812744140625
1.6959228515625
1.587158203125
1.5766845703124999
1.5114257812499998
1.5597656249999998
1.619384765625
1.6330810546874999
1.5057861328125
3.0244628906249997
2.81015625
2.425048828125
2.1615966796875
1.8336914062499998
1.46953125
0.7404052734375
0.23525390624999998
0.22075195312499998
0.46647949218749996
0.6582275390625
0.8983154296875
0.958740234375
1.3019531249999998
1.4977294921875
1.5275390624999998
1.5017578125
1.546875
1.4880615234374999
1.533984375
1.5355957031249998
0.026586914062499998
0.2578125
0.6904541015625
0.9611572265624999
1.1867431640625
1.6798095703125
2.1180908203124997
3.0252685546875
2.8319091796875
2.4604980468749997
2.0890869140625
1.9005615234375
1.7587646484375
1.6218017578125
1.5283447265624999
1.58232421875
1.5887695312499999
1.6532226562499999
1.63388671875
1.5782958984375
1.533984375
2.9342285156249996
3.0244628906249997
2.5458984375
2.212353515625
2.00771484375
1.670947265625
0.800830078125
0.356103515625
0.11279296875
0.36577148437499996
0.6840087890625
0.8757568359375
1.0546142578125
1.284228515625
1.3728515625
1.4042724609375
1.513037109375
1.496923828125
1.5001464843749999
1.5968261718749999
1.56298828125
0.06606445312499999
0.19094238281249998
0.6405029296875
0.926513671875
1.0932861328124999
1.6427490234375
2.0496093749999997
3.0268798828124996
2.8995849609374997
2.5555664062499996
2.2187988281249997
1.9247314453125
1.8651123046875
1.6733642578124999
1.670947265625
1.603271484375
1.5702392578125
1.5670166015625
1.5895751953125
1.5887695312499999
1.525927734375
2.6458007812499997
3.0244628906249997
2.5031982421874996
2.2888916015625
2.0761962890625
1.5968261718749999
1.173046875
0.420556640625
0.091845703125
0.30051269531249997
0.5293212890625
0.8113037109375
1.06025390625
1.1456542968749999
1.3744628906249998
1.4461669921875
1.5001464843749999
1.590380859375
1.5782958984375
1.4526123046875
1.533984375
0.394775390625
0.024169921875
0.5671875
0.8314453125
1.0803955078125
1.4276367187499999
1.925537109375
3.0252685546875
3.0309082031249996
2.747314453125
2.3396484374999997
2.044775390625
1.8981445312499998
1.7458740234374999
1.7015624999999999
1.6121337890624998
1.5734619140625
1.5331787109375
1.522705078125
1.522705078125
1.5807128906249999
1.5323730468749999
3.0268798828124996
2.582958984375
2.2880859375
2.1438720703125
1.6435546875
1.2511962890625
0.476953125
0.19658203124999998
0.2731201171875
0.59619140625
0.8024414062499999
0.9692138671874999
1.090869140625
1.264892578125
1.4437499999999999
1.4977294921875
1.5662109375
1.5202880859374999
1.5509033203125
1.525927734375
1.5082031249999999
0.023364257812499997
0.46083984375
0.765380859375
0.9974121093749999
1.3510986328124999
1.7297607421874999
2.8093505859374996
3.029296875
2.7585937499999997
2.3694580078125
2.012548828125
1.8183837890624999
1.7450683593749998
1.61455078125
1.6564453124999998
1.651611328125
1.622607421875
1.4437499999999999
1.55009765625
1.5122314453124999
1.5283447265624999
3.02607421875
2.8133789062499996
2.4258544921875
1.96904296875
1.8506103515624999
1.5243164062499999
0.5365722656249999
0.19013671875
0.22478027343749998
0.6211669921874999
0.920068359375
1.0828125
1.0562255859375
1.3309570312499999
1.3921875
1.513037109375
1.482421875
1.46953125
1.442138671875
1.5025634765625
1.5364013671874999
0.022558593749999998
0.165966796875
0.7798828124999999
0.9410156249999999
1.200439453125
1.7249267578124998
2.6594970703125
3.0220458984375
2.731201171875
2.4443847656249997
2.199462890625
1.9279541015625
1.751513671875
1.6556396484375
1.641943359375
1.5815185546875
1.5380126953125
1.5911865234375
1.55009765625
1.51787109375
1.4920898437499999
2.8190185546874997
2.85205078125
2.4774169921875
2.33642578125
1.9787109374999998
1.52109375
0.833056640625
0.21511230468749998
0.11843261718749999
0.43022460937499996
0.7234863281249999
0.9724365234375
1.0812011718749999
1.364794921875
1.493701171875
1.6346923828125
1.4840332031249999
1.6209960937499999
1.585546875
1.5138427734375
1.5194824218749998
0.027392578124999997
0.130517578125
0.6509765624999999
0.91845703125
1.1931884765625
1.611328125
2.4194091796875
3.0268798828124996
2.985791015625
2.6103515625
2.1301757812499997
1.98837890625
1.8546386718749999
1.71123046875
1.60166015625
1.5484863281249999
1.56298828125
1.493701171875
1.50498046875
1.5347900390625
1.5380126953125
2.5958496093749996
3.0228515624999996
2.512060546875
2.1954345703125
2.0069091796875
1.474365234375
0.9627685546875
0.46728515625
0.1780517578125
0.33676757812499997
0.6429199218749999
0.8999267578125
1.058642578125
1.2350830078125
1.377685546875
1.4501953125
1.5082031249999999
1.448583984375
1.5194824218749998
1.5637939453124998
1.53076171875
0.34160156249999996
0.054785156249999994
0.604248046875
0.8588378906249999
1.2012451171875
1.56298828125
1.8844482421875
3.02607421875
3.02607421875
2.6127685546875
2.3315917968749997
1.9070068359374999
1.786962890625
1.7168701171874998
1.65
1.6693359374999999
1.5992431640625
1.5734619140625
1.4920898437499999
1.5919921874999998
1.47275390625
2.2365234375
3.0244628906249997
2.6200195312499996
2.3662353515625
2.1180908203124997
1.5839355468749998
1.2938964843749998
0.5043457031249999
0.0459228515625
0.249755859375
0.64775390625
0.816943359375
1.123095703125
1.2584472656249999
1.4042724609375
1.4638916015624999
1.5170654296875
1.5702392578125
1.5662109375
1.5492919921875
1.474365234375
0.5212646484375
0.023364257812499997
0.468896484375
0.8000244140624999
1.0658935546875
1.3341796874999998
1.9078125
3.027685546875
3.0236572265625
2.6039062499999996
2.3372314453125
1.9956298828124999
1.8465820312499999
1.703173828125
1.6572509765624999
1.609716796875
1.6459716796875
1.603271484375
1.5492919921875
1.464697265625
1.5275390624999998
1.5412353515625
3.02607421875
2.6272705078125
2.3783203125
2.1487060546875
1.6943115234375
1.2745605468749999
0.5478515625
0.2972900390625
0.2747314453125
0.5631591796875
0.7339599609374999
0.968408203125
1.0763671875
1.3083984375
1.3978271484375
1.4888671875
1.5114257812499998
1.5847412109374999
1.533984375
1.4791992187499998
1.4953124999999998
0.023364257812499997
0.48017578125
0.7516845703124999
0.9974121093749999
1.3180664062499998
1.6048828124999999
2.9962646484374997
3.0252685546875
2.70703125
2.34931640625
1.9432617187499999
1.7853515624999998
1.7861572265624999
1.5992431640625
1.6749755859375
1.658056640625
1.5879638671874998
1.641943359375
1.6185791015625
1.5895751953125
1.5202880859374999
3.0252685546875
2.824658203125
2.39443359375
2.125341796875
1.95615234375
1.6266357421875
0.717041015625
0.3069580078125
0.1893310546875
0.5776611328125
0.760546875
0.9708251953125
1.052197265625
1.268115234375
1.3825195312499998
1.4574462890625
1.5001464843749999
1.4896728515625
1.4961181640624999
1.5057861328125
1.6121337890624998
0.022558593749999998
0.1426025390625
0.7001220703125
0.9434326171874999
1.2463623046874999
1.6669189453125
2.7972656249999996
3.0228515624999996
2.866552734375
2.405712890625
2.0117431640625
1.7926025390625
1.7539306640624999
1.6894775390624999
1.690283203125
1.609716796875
1.5976318359375
1.5654052734375
1.574267578125
1.55009765625
1.542041015625
2.5322021484375
2.924560546875
2.454052734375
2.2115478515625
2.0173828124999997
1.5057861328125
1.0223876953125
0.399609375
0.18288574218749998
0.42861328125
0.6098876953125
0.9716308593749999
1.0634765625
1.2753662109375
1.3551269531249999
1.42119140625
1.4751708984374998
1.5492919921875
1.5984375
1.590380859375
1.5251220703125
0.022558593749999998
0.0459228515625
0.5115966796875
0.845947265625
1.15048828125
1.619384765625
1.9593749999999999
3.02607421875
2.9817626953125
2.486279296875
2.14306640625
1.9384277343749998
1.7764892578125
1.6862548828125
1.7217041015624999
1.706396484375
1.5380126953125
1.625830078125
1.5799072265624998
1.5090087890625
1.4848388671875
2.1543457031249997
3.021240234375
2.4911132812499996
2.2953369140624997
2.0761962890625
1.6822265625
1.1899658203124999
0.502734375
0.1941650390625
0.39719238281249997
0.646142578125
0.8854248046875
1.0481689453125
1.19560546875
1.3994384765624999
1.44052734375
1.509814453125
1.5533203125
1.5750732421875
1.52109375
1.4284423828125
0.6735351562499999
0.026586914062499998
0.6372802734374999
0.8548095703124999
1.023193359375
1.554931640625
1.9424560546874998
3.0228515624999996
3.0236572265625
2.5628173828125
2.2083251953125
1.9223144531249998
1.8111328125
1.7700439453124999
1.6040771484374998
1.6612792968749999
1.6048828124999999
1.5621826171875
1.4493896484375
1.4510009765624998
1.4864501953125
1.7748779296875
3.027685546875
2.6885009765624996
2.3952392578125
2.14951171875
1.7635986328125
1.348681640625
0.6131103515624999
0.2344482421875
0.327099609375
0.578466796875
0.8096923828125
0.97646484375
1.0771728515624999
1.4236083984374999
1.4244140625
1.4147460937499998
1.5138427734375
1.554931640625
1.5831298828125
1.542041015625
1.1367919921875
0.027392578124999997
0.378662109375
0.84111328125
1.01513671875
1.2616699218749998
1.7023681640625
3.02607421875
3.0244628906249997
2.7191162109375
2.28486328125
2.00771484375
1.8755859375
1.7571533203124998
1.62744140625
1.5911865234375
1.5621826171875
1.5911865234375
1.5662109375
1.5750732421875
1.55009765625
1.490478515625
3.0268798828124996
2.7336181640625
2.4097412109375
2.099560546875
1.9247314453125
1.5114257812499998
0.646142578125
0.410888671875
0.3311279296875
0.559130859375
0.7452392578125
1.0973144531249999
0.9933837890624999
1.21494140625
1.2818115234374998
1.506591796875
1.5726562499999999
1.4469726562499998
1.4920898437499999
1.51787109375
1.5557373046874998
0.023364257812499997
0.41330566406249997
0.6090820312499999
0.8934814453125
1.316455078125
1.6669189453125
2.3565673828125
3.02607421875
2.827880859375
2.437939453125
2.2163818359375
1.9070068359374999
1.7982421874999999
1.5960205078124998
1.5799072265624998
1.5654052734375
1.65966796875
1.5879638671874998
1.5758789062499998
1.55009765625
1.5412353515625
3.0244628906249997
2.8858886718749996
2.4234375
2.1503173828124997
1.925537109375
1.5525146484374999
0.6912597656249999
0.35368652343749996
0.10231933593749999
0.34079589843749997
0.708984375
0.9385986328125
1.026416015625
1.303564453125
1.3704345703124998
1.5082031249999999
1.5718505859374998
1.5202880859374999
1.5831298828125
1.5412353515625
1.50498046875
0.0217529296875
0.0314208984375
0.7387939453125
0.968408203125
1.198828125
1.6306640625
2.1841552734375
3.029296875
2.9801513671874997
2.51044921875
2.160791015625
1.9053955078125
1.786962890625
1.6540283203125
1.6653076171874999
1.5944091796875
1.5106201171875
1.4928955078125
1.603271484375
1.670947265625
1.5525146484374999
2.0898925781249997
2.8979736328124996
2.4886962890624997
2.1615966796875
1.877197265625
1.477587890625
1.14404296875
0.5583251953125
0.240087890625
0.3714111328125
0.6050537109374999
0.8983154296875
1.08603515625
1.235888671875
1.4058837890625
1.482421875
1.5243164062499999
1.5992431640625
1.5597656249999998
1.52109375
1.5533203125
0.022558593749999998
0.022558593749999998
0.5228759765625
0.8612548828125
1.139208984375
1.5355957031249998
1.87236328125
3.0204345703124997
3.0228515624999996
2.67158203125
2.167236328125
1.8377197265624998
1.7684326171875
1.603271484375
1.690283203125
1.64677734375
1.6048828124999999
1.667724609375
1.5605712890624999
1.4880615234374999
1.5355957031249998
1.7362060546875
3.0252685546875
2.5144775390625
2.2373291015625
2.08505859375
1.7450683593749998
1.1947998046875
0.5534912109375
0.22075195312499998
0.3198486328125
0.6590332031249999
0.8386962890624999
1.147265625
1.1923828125
1.3341796874999998
1.4711425781249998
1.5057861328125
1.53720703125
1.4767822265625
1.5412353515625
1.4896728515625
1.2270263671875
0.023364257812499997
0.546240234375
0.8016357421875
1.0675048828125
1.5154541015624998
1.783740234375
2.9769287109375
3.0228515624999996
2.6288818359375
2.2244384765625
1.9658203125
1.8224121093749999
1.8240234375
1.7410400390624998
1.5911865234375
1.5082031249999999
