1.593603515625
1.5082031249999999
1.5541259765625
1.53720703125
3.0244628906249997
2.7513427734375
2.4121582031249997
2.1309814453125
1.8731689453125
1.46953125
0.7162353515625
0.3158203125
0.3343505859375
0.5260986328125
0.765380859375
0.9385986328125
1.1110107421875
1.3801025390625
1.4058837890625
1.4469726562499998
1.5033691406249998
1.558154296875
1.5645996093749999
1.5541259765625
1.4896728515625
0.0249755859375
0.252978515625
0.630029296875
0.958740234375
1.1899658203124999
1.53720703125
2.6401611328124996
3.027685546875
2.8077392578125
2.415380859375
2.1825439453124997
1.9303710937499998
1.7474853515625
1.654833984375
1.6129394531249999
1.590380859375
1.587158203125
1.6242187499999998
1.5960205078124998
1.6201904296874998
1.5718505859374998
2.808544921875
2.7263671874999997
2.4194091796875
2.183349609375
1.9593749999999999
1.6169677734374999
0.8967041015624999
0.5534912109375
0.35771484374999996
0.50595703125
0.7436279296874999
1.0481689453125
1.095703125
1.252001953125
1.2665039062499999
1.3865478515624998
1.4437499999999999
1.5404296874999999
1.6218017578125
1.5726562499999999
1.5299560546875
0.0201416015625
0.2263916015625
0.6147216796875
0.7742431640624999
1.171435546875
1.56943359375
2.18818359375
3.029296875
2.8472167968749997
2.437939453125
2.0890869140625
1.92392578125
1.8216064453124998
1.7901855468749999
1.63388671875
1.4912841796874998
1.490478515625
1.619384765625
1.603271484375
1.5533203125
1.5355957031249998
2.6723876953124996
2.9640380859374997
2.470166015625
2.2429687499999997
1.920703125
1.6322753906249998
0.82177734375
0.6509765624999999
0.2940673828125
0.46728515625
0.6832031249999999
0.8314453125
0.9869384765625
1.22783203125
1.3744628906249998
1.4961181640624999
1.533984375
1.5839355468749998
1.5678222656249998
1.5243164062499999
1.4872558593749998
0.26103515625
0.0322265625
0.6646728515625
0.8435302734375
1.06025390625
1.590380859375
1.883642578125
3.0252685546875
3.0228515624999996
2.52978515625
2.2453857421875
1.9190917968749999
1.7217041015624999
1.6532226562499999
1.6572509765624999
1.635498046875
1.5412353515625
1.5517089843749998
1.5492919921875
1.4791992187499998
1.5412353515625
1.625830078125
3.0204345703124997
2.6530517578125
2.2590820312499997
1.998046875
1.5944091796875
1.3043701171875
0.630029296875
0.32871093749999997
0.3673828125
0.630029296875
0.9063720703125
1.0401123046875
1.1770751953125
1.3470703124999999
1.4437499999999999
1.506591796875
1.51787109375
1.5162597656249999
1.5758789062499998
1.5492919921875
0.53818359375
0.0217529296875
0.43022460937499996
0.631640625
0.9861328125
1.4091064453125
1.6701416015625
3.0220458984375
3.0252685546875
2.737646484375
2.273583984375
1.9674316406249999
1.8095214843749998
1.7281494140625
1.6822265625
1.683837890625
1.6234130859375
1.561376953125
1.5670166015625
1.603271484375
1.5960205078124998
1.51787109375
3.021240234375
2.657080078125
2.2913085937499997
2.0810302734375
1.869140625
1.348681640625
0.7210693359375
0.47050781249999996
0.5357666015625
0.5873291015625
0.7726318359375
0.961962890625
1.11181640625
1.2914794921875
1.3857421875
1.4977294921875
1.5106201171875
1.477587890625
1.4751708984374998
1.45341796875
1.4928955078125
0.0201416015625
0.46647949218749996
0.7057617187499999
0.9321533203125
1.3422363281249998
1.6475830078125
2.46533203125
3.02607421875
2.727978515625
2.3920166015624997
2.160791015625
1.8618896484374998
1.799853515625
1.6749755859375
1.6072998046875
1.59521484375
1.6177734375
1.59521484375
1.5444580078124999
1.5589599609375
1.56298828125
3.0252685546875
2.7642333984375
2.3823486328125
2.08828125
1.8256347656249998
1.571044921875
0.8967041015624999
0.5115966796875
0.3520751953125
0.5478515625
0.8000244140624999
0.9498779296875
1.0691162109374999
1.3092041015625
1.3768798828125
1.3913818359374999
1.4671142578124998
1.46630859375
1.47275390625
1.4800048828124999
1.5073974609374998
0.0217529296875
0.201416015625
0.6920654296875
0.897509765625
1.152099609375
1.4832275390624998
2.3323974609375
3.02607421875
2.9833740234375
2.4548583984375
2.1261474609374997
1.9569580078125
1.8280517578125
1.7007568359374998
1.5927978515624999
1.5992431640625
1.53720703125
1.5436523437499998
1.4598632812499999
1.5492919921875
1.4606689453125
2.4758056640625
2.8157958984375
2.454052734375
2.2614990234375
1.9698486328125
1.585546875
1.1255126953124999
0.6735351562499999
0.33193359375
0.562353515625
0.797607421875
0.9772705078124999
0.9861328125
1.155322265625
1.3341796874999998
1.4501953125
1.4840332031249999
1.5355957031249998
1.603271484375
1.5911865234375
1.464697265625
0.027392578124999997
0.091845703125
0.62841796875
0.863671875
1.18916015625
1.571044921875
1.9029785156249999
3.02607421875
2.9583984374999996
2.5410644531249997
2.09150390625
1.8989501953124999
1.738623046875
1.6185791015625
1.6379150390625
1.542041015625
1.5202880859374999
1.58232421875
1.609716796875
1.5702392578125
1.490478515625
2.247802734375
3.0164062499999997
2.586181640625
2.281640625
2.0496093749999997
1.7362060546875
1.2777832031249998
0.6791748046874999
0.294873046875
0.46245117187499996
0.6590332031249999
0.8693115234375
0.9498779296875
1.184326171875
1.3309570312499999
1.4510009765624998
1.5122314453124999
1.522705078125
1.5001464843749999
1.4703369140625
1.4816162109375
0.7790771484375
0.02578125
0.5776611328125
0.807275390625
1.09248046875
1.52109375
1.780517578125
2.9527587890625
3.0244628906249997
2.6014892578124997
2.286474609375
2.0439697265625
1.8336914062499998
1.732177734375
1.719287109375
1.5847412109374999
1.5589599609375
1.5662109375
1.5726562499999999
1.5057861328125
1.45341796875
1.493701171875
3.0228515624999996
2.6272705078125
2.280029296875
2.02705078125
1.674169921875
1.4203857421875
0.7565185546875
0.36174316406249996
0.36577148437499996
0.5873291015625
0.9031494140624999
1.0014404296875
1.106982421875
1.3124267578125
1.4171630859375
1.493701171875
1.545263671875
1.4912841796874998
1.5033691406249998
1.4953124999999998
1.0239990234375
0.023364257812499997
0.436669921875
0.7412109375
1.0046630859374999
1.2769775390625
1.6048828124999999
2.8270751953124997
3.02607421875
2.8045166015625
2.333203125
2.0069091796875
1.8602783203125
1.7901855468749999
1.7217041015624999
1.6910888671875
1.6121337890624998
1.5138427734375
1.46953125
1.4872558593749998
1.529150390625
1.464697265625
3.0083496093749997
2.6965576171874996
2.49755859375
2.247802734375
2.0334960937499997
1.4461669921875
0.6292236328124999
0.44230957031249996
0.3907470703125
0.5599365234375
0.7758544921874999
1.0014404296875
1.1061767578125
1.2979248046874998
1.4381103515625
1.5347900390625
1.4888671875
1.4389160156249998
1.4268310546874998
1.46953125
1.4630859374999998
0.023364257812499997
0.44553222656249997
0.72509765625
0.8918701171875
1.2777832031249998
1.53720703125
2.2647216796875
3.0252685546875
2.7585937499999997
2.4604980468749997
2.006103515625
1.799853515625
1.7716552734375
1.7128417968749998
1.638720703125
1.64677734375
1.55009765625
1.6379150390625
1.5879638671874998
1.5404296874999999
1.5186767578125
2.92294921875
2.78759765625
2.3920166015624997
2.1599853515625
1.9360107421875
1.5662109375
0.8113037109375
0.4922607421875
0.3359619140625
0.68642578125
0.7879394531249999
0.9514892578124999
1.061865234375
1.2374999999999998
1.3269287109374999
1.3382080078124998
1.400244140625
1.4864501953125
1.4558349609374999
1.5347900390625
1.509814453125
0.023364257812499997
0.09748535156249999
0.7057617187499999
0.87333984375
1.1367919921875
1.5670166015625
2.047998046875
3.0252685546875
2.9100585937499996
2.5305908203125
2.135009765625
1.9400390625
1.8957275390625
1.6910888671875
1.5831298828125
1.6282470703124998
1.5186767578125
1.5033691406249998
1.5573486328125
1.5001464843749999
1.5146484375
2.0504150390625
2.9261718749999996
2.4685546874999997
2.2969482421875
1.964208984375
1.61455078125
1.2616699218749998
0.6018310546875
0.36174316406249996
0.5196533203125
0.7420166015624999
0.9474609374999999
1.0658935546875
1.235888671875
1.34384765625
1.4574462890625
1.5355957031249998
1.448583984375
1.44052734375
1.4373046875
1.4751708984374998
0.08701171875
0.042700195312499994
0.6308349609374999
0.90234375
1.1577392578124999
1.4953124999999998
1.93359375
3.02607421875
2.9769287109375
2.650634765625
2.209130859375
1.9956298828124999
1.877197265625
1.6282470703124998
1.62744140625
1.5839355468749998
1.5041748046874999
1.533984375
1.5533203125
1.5557373046874998
1.542041015625
1.674169921875
3.01318359375
2.4524414062499997
2.26552734375
2.0906982421875
1.6322753906249998
1.303564453125
0.6670898437499999
0.37705078124999997
0.4036376953125
0.6993164062499999
0.7581298828124999
1.0119140625
1.147265625
1.2528076171875
1.4630859374999998
1.4945068359375
1.429248046875
1.4759765624999999
1.4687255859375
1.5001464843749999
1.348681640625
0.069287109375
0.56396484375
0.7597412109374999
1.0634765625
1.43408203125
1.7507080078125
2.760205078125
3.0252685546875
2.6836669921875
2.3557617187499997
2.0109375
1.8715576171875
1.7974365234374998
1.6306640625
1.6072998046875
1.619384765625
1.6403320312499998
1.5944091796875
1.5251220703125
1.4993408203124998
1.47275390625
3.001904296875
2.5966552734375
2.2550537109374997
2.1535400390625
1.8143554687499999
1.5082031249999999
0.636474609375
0.34562988281249996
0.3681884765625
0.662255859375
0.9015380859375
1.074755859375
1.1432373046875
1.2890625
1.316455078125
1.4195800781249999
1.482421875
1.5315673828124998
1.4864501953125
1.5122314453124999
1.4687255859375
0.024169921875
0.488232421875
0.7460449218749999
0.929736328125
1.2374999999999998
1.6814208984374999
2.5555664062499996
3.0236572265625
2.7013916015625
2.3549560546875
2.0197998046875
1.7974365234374998
1.7208984374999998
1.6886718749999998
1.7531249999999998
1.533984375
1.6024658203125
1.6129394531249999
1.5645996093749999
1.5839355468749998
1.585546875
3.0244628906249997
2.6860839843749997
2.3662353515625
2.1422607421874997
1.867529296875
1.5170654296875
0.9329589843749999
0.40927734374999997
0.3182373046875
0.5728271484374999
0.8346679687499999
0.9635742187499999
1.0739501953125
1.3108154296874999
1.42119140625
1.43408203125
1.5106201171875
1.4711425781249998
1.5162597656249999
1.5267333984375
1.4461669921875
0.0217529296875
0.291650390625
0.6630615234374999
0.9345703125
1.181103515625
1.509814453125
2.3718749999999997
3.0228515624999996
2.856884765625
2.4532470703125
2.141455078125
1.9343994140624998
1.751513671875
1.7249267578124998
1.6935058593749999
1.6266357421875
1.6040771484374998
1.5911865234375
1.5525146484374999
1.5162597656249999
1.513037109375
2.634521484375
2.8939453124999996
2.410546875
2.2437744140625
2.0020751953125
1.5847412109374999
1.0739501953125
0.6493652343749999
0.31340332031249996
0.53173828125
0.6985107421875
0.929736328125
1.042529296875
1.2890625
1.2906738281249999
1.4542236328125
1.4437499999999999
1.477587890625
1.480810546875
1.525927734375
1.6177734375
0.31340332031249996
0.20705566406249998
0.62197265625
0.8910644531249999
1.2141357421874999
1.6089111328124999
1.8780029296874998
3.0268798828124996
2.9020019531249996
2.578125
2.1906005859374997
1.9037841796875
1.783740234375
1.6765869140624998
1.65
1.67578125
1.60166015625
1.5758789062499998
1.5380126953125
1.5702392578125
1.5355957031249998
2.43310546875
2.905224609375
2.4451904296875
2.199462890625
2.006103515625
1.6040771484374998
1.168212890625
0.5865234375
0.3391845703125
0.36899414062499997
0.7379882812499999
0.95068359375
1.0449462890624999
1.216552734375
1.37607421875
1.4091064453125
1.4719482421874999
1.5057861328125
1.5976318359375
1.5919921874999998
1.5025634765625
0.42216796874999996
0.02578125
0.64453125
0.8129150390625
0.9982177734375
1.4896728515625
1.8369140625
2.953564453125
3.021240234375
2.5885986328125
2.2598876953125
1.85947265625
1.7595703125
1.65966796875
1.5919921874999998
1.6508056640625
1.5573486328125
1.574267578125
1.558154296875
1.5758789062499998
1.5315673828124998
1.40185546875
2.94873046875
2.550732421875
2.34931640625
2.0012695312499997
1.6282470703124998
1.405078125
0.6662841796875
0.372216796875
0.46647949218749996
0.6751464843749999
0.88623046875
1.0900634765625
1.147265625
1.3446533203125
1.4058837890625
1.43408203125
1.4066894531249998
1.4945068359375
1.4767822265625
1.5267333984375
0.8290283203125
0.022558593749999998
0.42941894531249997
0.8201660156249999
1.074755859375
1.3551269531249999
1.6201904296874998
2.8697753906249996
3.0236572265625
2.73603515625
2.2776123046875
2.0778076171874997
1.8240234375
1.6620849609375
1.59521484375
1.611328125
1.6822265625
1.5782958984375
1.5492919921875
1.5557373046874998
1.6129394531249999
1.5243164062499999
3.0244628906249997
2.5757080078124996
2.3017822265625
2.164013671875
1.8361083984375
1.4155517578124999
0.71220703125
0.48017578125
0.3504638671875
0.578466796875
0.8644775390624999
1.0272216796875
1.1142333984375
1.27294921875
1.329345703125
1.4679199218749999
1.5283447265624999
1.5484863281249999
1.6185791015625
1.5791015625
1.529150390625
0.0217529296875
0.3391845703125
0.6493652343749999
0.9079833984375
1.30517578125
1.6121337890624998
2.24619140625
3.027685546875
2.7996826171875
2.425048828125
2.08505859375
1.9190917968749999
1.79501953125
1.6959228515625
1.611328125
1.5791015625
1.5750732421875
1.5484863281249999
1.5251220703125
1.5017578125
1.5589599609375
3.011572265625
2.7755126953125
2.4363281249999997
2.1503173828124997
1.880419921875
1.5017578125
0.639697265625
0.40524902343749997
0.27392578125
0.6453369140624999
0.8668945312499999
0.958740234375
0.9998291015624999
1.2157470703125
1.3341796874999998
1.4373046875
1.513037109375
1.5355957031249998
1.585546875
1.5114257812499998
1.4518066406249999
0.022558593749999998
0.1893310546875
0.71865234375
0.9071777343749999
1.1537109374999999
1.5807128906249999
2.08828125
3.02607421875
2.940673828125
2.5636230468749996
2.241357421875
1.98193359375
1.791796875
1.6878662109375
1.670947265625
1.5984375
1.5645996093749999
1.5283447265624999
1.5758789062499998
1.6161621093749998
1.5186767578125
2.255859375
2.8174072265624996
2.3823486328125
2.128564453125
1.9215087890625
1.5492919921875
1.1561279296875
0.7162353515625
0.3544921875
0.4962890625
0.6832031249999999
0.961962890625
1.1093994140624999
1.3148437499999999
1.303564453125
1.41796875
1.5275390624999998
1.4840332031249999
1.4872558593749998
1.4767822265625
1.4558349609374999
0.0515625
0.16274414062499998
0.581689453125
0.85400390625
1.0771728515624999
1.5146484375
1.8763916015625
3.0268798828124996
2.9390625
2.602294921875
2.1970458984375
2.0165771484375
1.9062011718749998
1.8361083984375
1.63388671875
1.5734619140625
1.4759765624999999
1.4896728515625
1.506591796875
1.5436523437499998
1.5404296874999999
2.0262451171875
3.0220458984375
2.6522460937499996
2.1543457031249997
2.0407470703125
1.6991455078125
1.2624755859374999
0.6429199218749999
0.3343505859375
0.41733398437499997
0.639697265625
0.8870361328124999
1.1214843749999999
1.164990234375
1.3929931640625
1.458251953125
1.4888671875
1.4671142578124998
1.525927734375
1.5654052734375
1.5154541015624998
1.0046630859374999
0.0201416015625
0.5953857421875
0.813720703125
1.0111083984375
1.400244140625
1.783740234375
2.85205078125
3.0027099609374996
2.5563720703125
2.2405517578125
1.9601806640625
1.8731689453125
1.7861572265624999
1.7410400390624998
1.5919921874999998
1.5275390624999998
1.4332763671875
1.5275390624999998
1.5025634765625
1.4961181640624999
1.577490234375
2.9841796874999997
2.576513671875
2.34609375
2.12373046875
1.8038818359375
1.5025634765625
0.6952880859374999
0.36577148437499996
0.4116943359375
0.5776611328125
0.8507812499999999
1.0771728515624999
1.1255126953124999
1.3736572265625
1.3736572265625
1.4316650390624999
1.4993408203124998
1.4896728515625
1.5404296874999999
1.5621826171875
1.4381103515625
0.023364257812499997
0.3311279296875
0.791162109375
1.0409179687499999
1.2987304687499999
1.7490966796874998
2.6764160156249996
3.0252685546875
2.769873046875
2.354150390625
2.0254394531249997
1.88525390625
1.770849609375
1.6443603515624998
1.6371093749999999
1.6048828124999999
1.5404296874999999
1.5138427734375
1.525927734375
1.53076171875
1.5170654296875
2.9326171875
2.657080078125
2.3404541015625
2.1325927734375
1.8119384765625
1.5001464843749999
0.8443359374999999
0.5994140625
0.35126953125
0.6268066406249999
0.78310546875
1.0078857421875
1.0409179687499999
1.17626953125
1.4381103515625
1.3978271484375
1.4711425781249998
1.5082031249999999
1.5041748046874999
1.456640625
1.3897705078125
0.026586914062499998
0.38510742187499997
0.78310546875
0.9490722656249999
1.2882568359375
1.6185791015625
2.0254394531249997
3.0252685546875
2.784375
2.4677490234375
2.01416015625
1.7724609375
1.7217041015624999
1.6910888671875
1.662890625
1.6218017578125
1.5686279296874999
1.5831298828125
1.5573486328125
1.5605712890624999
1.5984375
2.8012939453124996
2.8544677734375
2.454052734375
2.1422607421874997
1.9464843749999998
1.5895751953125
0.9861328125
0.5937744140625
0.42941894531249997
0.439892578125
0.69287109375
0.855615234375
1.0489746093749999
1.2834228515625
1.3261230468749998
1.4429443359374998
1.571044921875
1.4928955078125
1.4848388671875
1.5017578125
1.4542236328125
0.1353515625
0.038671874999999994
0.7283203125
0.9249023437499999
1.1674072265625
1.561376953125
2.0197998046875
3.027685546875
3.0172119140625
2.5475097656249996
2.27841796875
2.07216796875
1.7345947265625
1.5968261718749999
1.6475830078125
1.6177734375
1.5589599609375
1.5476806640624998
1.482421875
1.482421875
1.5082031249999999
1.6830322265625
2.89072265625
2.4363281249999997
2.204296875
1.9625976562499998
1.603271484375
1.287451171875
0.64775390625
0.35690917968749997
0.47775878906249997
0.6904541015625
0.9490722656249999
0.9990234375
1.2270263671875
1.2858398437499998
1.4228027343749998
1.4751708984374998
1.5750732421875
1.5605712890624999
1.5090087890625
1.5186767578125
0.298095703125
0.020947265625
0.578466796875
0.84755859375
1.1706298828125
1.4622802734375
1.7458740234374999
2.9986816406249996
2.969677734375
2.6788330078125
2.2913085937499997
2.0415527343749997
1.867529296875
1.6822265625
1.6910888671875
1.546875
1.5911865234375
1.5396240234374998
1.542041015625
1.5082031249999999
1.5001464843749999
1.5662109375
3.0220458984375
2.5475097656249996
2.26875
2.086669921875
1.8304687499999999
1.313232421875
0.604248046875
0.3343505859375
0.4245849609375
0.61552734375
0.7943847656249999
1.0505859375
1.1464599609375
1.2938964843749998
1.4848388671875
1.429248046875
1.5243164062499999
1.496923828125
1.6000488281249998
1.5718505859374998
1.4993408203124998
0.024169921875
0.4954833984375
0.7581298828124999
0.9611572265624999
1.4356933593749999
1.641943359375
2.6240478515624996
3.0268798828124996
2.7626220703124997
2.4419677734375
1.9843505859375
1.7990478515625
1.7531249999999998
1.651611328125
1.5654052734375
1.5927978515624999
1.5847412109374999
1.5436523437499998
1.5492919921875
1.5919921874999998
1.5460693359375
3.021240234375
2.7610107421874996
2.4435791015625
2.1986572265624997
1.8828369140624999
1.522705078125
0.6501708984375
0.3746337890625
0.275537109375
0.5865234375
0.7468505859375
1.0256103515625
1.071533203125
1.2689208984375
1.3801025390625
1.4195800781249999
1.4888671875
1.4977294921875
1.5597656249999998
1.58232421875
1.5235107421874998
0.0249755859375
0.3311279296875
0.7049560546875
0.8854248046875
1.2093017578125
1.6725585937499998
2.49755859375
3.0252685546875
2.8053222656249996
2.4604980468749997
2.1438720703125
2.0230224609375
1.8626953124999999
1.7660156249999999
1.6910888671875
1.5799072265624998
1.5573486328125
1.5331787109375
1.4800048828124999
1.5992431640625
1.5162597656249999
2.7577880859375
2.7569824218749996
2.2969482421875
2.1728759765625
1.9658203125
1.6250244140624999
1.069921875
0.31259765624999997
0.23686523437499998
0.339990234375
0.6243896484375
1.039306640625
1.0086914062499999
1.206884765625
1.3333740234375
1.3825195312499998
1.4244140625
1.5323730468749999
1.53720703125
1.5428466796875
1.456640625
0.0217529296875
0.143408203125
0.60263671875
0.8064697265624999
1.132763671875
1.53720703125
2.2590820312499997
3.0204345703124997
3.0244628906249997
2.6925292968749996
2.255859375
2.023828125
1.8626953124999999
1.6894775390624999
1.6773925781249999
1.6451660156249999
1.5106201171875
1.5122314453124999
1.5275390624999998
1.53076171875
1.5114257812499998
2.5579833984375
3.0228515624999996
2.5048095703124997
2.3581787109375
2.13662109375
1.6636962890625
1.1851318359375
0.6147216796875
0.21108398437499998
0.33837890625
0.5003173828124999
0.7476562499999999
0.9531005859374999
1.1666015625
1.327734375
1.4195800781249999
1.4252197265625
1.4840332031249999
1.52109375
1.5186767578125
1.477587890625
0.4640625
0.022558593749999998
0.2989013671875
0.5768554687499999
0.897509765625
1.3365966796875
1.6967285156249998
3.0301025390625
3.029296875
2.8496337890624996
2.5547607421875
2.1140624999999997
1.867529296875
1.7539306640624999
1.8095214843749998
1.6604736328124998
1.5517089843749998
1.6121337890624998
1.6266357421875
1.619384765625
1.66611328125
2.447607421875
3.0309082031249996
2.7690673828124996
2.6127685546875
2.4000732421874997
1.977099609375
1.5517089843749998
0.4471435546875
0.0668701171875
0.022558593749999998
0.22880859374999998
0.3472412109375
0.5712158203125
0.8032470703125
1.1609619140625
1.284228515625
1.3309570312499999
1.393798828125
1.4091064453125
1.4236083984374999
1.4493896484375
0.475341796875
0.022558593749999998
0.133740234375
0.16032714843749998
0.3762451171875
0.8846191406249999
1.545263671875
3.0244628906249997
3.0268798828124996
3.0309082031249996
2.8464111328125
2.5805419921875
2.43310546875
2.25263671875
2.0906982421875
1.899755859375
1.754736328125
1.69833984375
1.690283203125
1.6298583984375
1.5001464843749999
1.58232421875
3.0244628906249997
2.9962646484374997
2.8560791015625
2.8294921874999996
2.4032958984375
1.8780029296874998
0.8709228515624999
0.18046874999999998
0.0298095703125
0.062841796875
0.1861083984375
0.37785644531249996
0.46970214843749997
0.6147216796875
0.94423828125
1.1915771484375
1.2689208984375
1.37607421875
1.496923828125
1.482421875
1.490478515625
0.0217529296875
0.022558593749999998
0.0684814453125
0.182080078125
0.6340576171875
0.9901611328125
2.5877929687499996
3.027685546875
3.0252685546875
3.0228515624999996
2.7787353515624997
2.60068359375
2.454052734375
2.4363281249999997
2.2163818359375
2.0552490234375
1.9142578124999998
1.8103271484374999
1.812744140625
1.6765869140624998
1.6306640625
3.0252685546875
3.02607421875
3.0236572265625
3.0252685546875
3.0228515624999996
2.8311035156249997
1.3607666015625
0.44956054687499997
0.020947265625
0.022558593749999998
0.023364257812499997
0.026586914062499998
0.0217529296875
0.023364257812499997
0.022558593749999998
0.023364257812499997
0.022558593749999998
0.0249755859375
0.1297119140625
0.1998046875
0.233642578125
0.023364257812499997
0.020947265625
0.02578125
0.0217529296875
0.023364257812499997
0.0249755859375
0.019335937499999997
1.2455566406249998
2.0697509765624997
2.5628173828125
2.8214355468749996
2.8794433593749997
3.0220458984375
3.0236572265625
2.9559814453124997
2.963232421875
2.92939453125
2.9342285156249996
2.8979736328124996
2.6933349609375
2.70703125
3.027685546875
3.0244628906249997
3.029296875
3.0252685546875
3.0301025390625
3.0236572265625
3.02607421875
1.9867675781249998
0.7097900390624999
0.20061035156249998
0.027392578124999997
0.018530273437499998
0.023364257812499997
0.0217529296875
0.024169921875
0.020947265625
0.026586914062499998
0.0201416015625
0.023364257812499997
0.023364257812499997
0.0443115234375
0.026586914062499998
0.018530273437499998
0.0249755859375
0.022558593749999998
0.026586914062499998
0.022558593749999998
0.023364257812499997
0.018530273437499998
1.8280517578125
2.3775146484375
2.695751953125
2.9479248046874997
3.0228515624999996
3.0228515624999996
3.0309082031249996
3.0236572265625
3.0244628906249997
3.0284912109374997
3.0010986328125
2.8109619140624997
2.7489257812499996
3.0244628906249997
3.0228515624999996
3.027685546875
3.0236572265625
3.0244628906249997
3.0268798828124996
3.0268798828124996
2.1140624999999997
1.134375
0.45439453124999996
0.07734374999999999
0.02578125
0.019335937499999997
0.023364257812499997
0.020947265625
0.024169921875
0.022558593749999998
0.043505859375
0.0733154296875
0.0797607421875
0.0298095703125
0.022558593749999998
0.020947265625
0.020947265625
0.023364257812499997
0.024169921875
0.0201416015625
0.022558593749999998
0.02578125
1.4896728515625
2.1261474609374997
2.6530517578125
2.8593017578124997
2.98095703125
3.0252685546875
3.0268798828124996
3.027685546875
2.96484375
2.8721923828125
2.8190185546874997
2.89716796875
2.8166015625
2.6538574218749997
3.02607421875
3.0244628906249997
3.0268798828124996
3.02607421875
3.029296875
3.0317138671875
2.29453125
1.5275390624999998
0.6678955078125
0.078955078125
0.022558593749999998
0.022558593749999998
0.018530273437499998
0.0217529296875
0.022558593749999998
0.027392578124999997
0.023364257812499997
0.027392578124999997
0.03544921875
0.038671874999999994
0.027392578124999997
0.0249755859375
0.022558593749999998
0.020947265625
0.0249755859375
0.022558593749999998
0.017724609375
0.022558593749999998
1.1222900390625
1.6967285156249998
2.4041015624999997
2.6538574218749997
2.6699707031249997
2.889111328125
3.0244628906249997
3.0268798828124996
2.98095703125
2.9028076171875
2.7730957031249996
2.792431640625
2.4113525390625
2.51044921875
3.0244628906249997
3.0228515624999996
3.0244628906249997
3.0228515624999996
3.0228515624999996
3.0228515624999996
3.0301025390625
1.77890625
0.8991210937499999
0.3311279296875
0.023364257812499997
0.0249755859375
0.018530273437499998
0.027392578124999997
0.022558593749999998
0.0217529296875
0.023364257812499997
0.027392578124999997
0.0829833984375
0.1611328125
0.149853515625
0.023364257812499997
0.022558593749999998
0.0217529296875
0.0217529296875
0.022558593749999998
0.020947265625
0.017724609375
1.1279296875
1.7861572265624999
2.3050048828125
2.650634765625
2.8834716796874997
3.0252685546875
3.02607421875
3.0236572265625
3.0284912109374997
3.02607421875
2.953564453125
3.0284912109374997
2.8883056640625
2.8874999999999997
3.0244628906249997
3.02607421875
3.0284912109374997
3.0228515624999996
3.0220458984375
3.0228515624999996
3.0244628906249997
2.18818359375
1.1666015625
0.4970947265625
0.022558593749999998
0.023364257812499997
0.026586914062499998
0.02578125
0.0217529296875
0.023364257812499997
0.024169921875
0.15791015625
0.1039306640625
0.2376708984375
0.21672363281249998
0.023364257812499997
0.026586914062499998
0.027392578124999997
0.024169921875
0.0217529296875
0.0217529296875
0.02578125
0.027392578124999997
1.2834228515625
2.0737792968749997
2.3694580078125
2.6103515625
2.7666503906249997
2.818212890625
2.931005859375
3.0228515624999996
3.02607421875
2.9906249999999996
2.9898193359375
3.0099609375
2.9205322265625
2.8359375
3.0236572265625
3.027685546875
3.0244628906249997
3.0268798828124996
3.02607421875
3.0268798828124996
2.450830078125
1.3639892578125
0.6638671875
0.17724609375
0.0217529296875
0.0217529296875
0.023364257812499997
0.022558593749999998
0.022558593749999998
0.022558593749999998
0.024169921875
0.0217529296875
0.12568359375
0.12165527343749999
0.1087646484375
0.024169921875
0.024169921875
0.017724609375
0.0217529296875
0.0217529296875
0.023364257812499997
0.022558593749999998
0.9958007812499999
1.7329833984374998
2.1728759765625
2.479833984375
2.679638671875
2.848828125
2.8593017578124997
2.931005859375
2.9342285156249996
2.921337890625
2.9124755859375
2.8641357421875
2.8045166015625
2.9833740234375
3.0301025390625
3.02607421875
3.021240234375
3.02607421875
3.027685546875
3.0244628906249997
2.3525390625
1.7499023437499999
0.845947265625
0.3585205078125
0.027392578124999997
0.022558593749999998
0.023364257812499997
0.0217529296875
0.0201416015625
0.0169189453125
0.0281982421875
0.024169921875
0.030615234374999998
0.022558593749999998
0.0708984375
0.027392578124999997
0.024169921875
0.023364257812499997
0.027392578124999997
0.022558593749999998
0.0201416015625
0.02578125
0.5744384765625
1.5033691406249998
2.2051025390625
2.5072265624999996
2.6675537109375
2.784375
3.0075439453125
3.0244628906249997
3.027685546875
2.94873046875
2.818212890625
2.8375488281249996
2.8850830078125
2.7561767578125
3.0252685546875
3.02607421875
3.027685546875
3.0284912109374997
3.0252685546875
3.0252685546875
3.021240234375
2.0955322265625
0.8548095703124999
0.278759765625
0.0249755859375
0.022558593749999998
0.0249755859375
0.022558593749999998
0.023364257812499997
0.024169921875
0.022558593749999998
0.017724609375
0.019335937499999997
0.0837890625
0.1232666015625
0.024169921875
0.023364257812499997
0.02578125
0.022558593749999998
0.022558593749999998
0.022558593749999998
0.0249755859375
0.0298095703125
1.5041748046874999
2.0504150390625
2.27841796875
2.4967529296874997
2.7561767578125
2.827880859375
2.840771484375
3.0268798828124996
2.8995849609374997
2.9438964843749997
2.8496337890624996
2.7916259765625
2.760205078125
2.6458007812499997
3.02607421875
3.0220458984375
3.0252685546875
3.0284912109374997
3.02607421875
3.027685546875
2.173681640625
1.2528076171875
0.652587890625
0.17080078124999998
0.024169921875
0.023364257812499997
0.02900390625
0.022558593749999998
0.0249755859375
0.023364257812499997
0.022558593749999998
0.08540039062499999
0.146630859375
0.14421386718749998
0.024169921875
0.023364257812499997
0.020947265625
0.022558593749999998
0.020947265625
0.0217529296875
0.027392578124999997
0.022558593749999998
0.9990234375
1.7104248046875
2.1148681640625
2.3839599609374997
2.6119628906249996
2.8166015625
2.8939453124999996
2.953564453125
2.9036132812499997
2.8778320312499996
2.9076416015624997
2.82626953125
2.69091796875
2.6095458984374997
3.0309082031249996
3.0244628906249997
3.0236572265625
3.0204345703124997
3.0244628906249997
3.0244628906249997
2.3630126953125
1.6669189453125
0.7742431640624999
0.1740234375
0.022558593749999998
0.0217529296875
0.0169189453125
0.022558593749999998
0.018530273437499998
0.022558593749999998
0.033032226562499996
0.0394775390625
0.16032714843749998
0.14018554687499998
0.1490478515625
0.024169921875
0.0217529296875
0.019335937499999997
0.023364257812499997
0.023364257812499997
0.024169921875
0.0281982421875
0.7395996093749999
1.5082031249999999
2.1728759765625
2.4596923828125
2.5845703125
2.86494140625
2.9382568359374996
2.9978759765625
3.0010986328125
2.985791015625
2.9116699218749997
2.8294921874999996
2.715087890625
2.6449951171875
3.0204345703124997
3.0244628906249997
3.0252685546875
3.0252685546875
3.0252685546875
3.02607421875
3.029296875
2.067333984375
0.7549072265625
0.32951660156249996
0.0169189453125
0.023364257812499997
0.023364257812499997
0.02578125
0.020947265625
0.0217529296875
0.0217529296875
0.0733154296875
0.0837890625
0.175634765625
0.107958984375
0.024169921875
0.023364257812499997
0.0217529296875
0.017724609375
0.018530273437499998
0.022558593749999998
0.027392578124999997
0.02578125
1.5533203125
2.0415527343749997
2.3742919921875
2.578125
2.7867919921874997
2.8552734374999997
2.98095703125
2.8754150390624997
2.8810546875
2.8657470703124996
2.8109619140624997
2.618408203125
2.65546875
3.0220458984375
3.0204345703124997
3.0244628906249997
3.0284912109374997
3.029296875
3.0244628906249997
3.0244628906249997
2.160791015625
1.1859374999999999
0.44956054687499997
0.022558593749999998
0.022558593749999998
0.023364257812499997
0.027392578124999997
0.022558593749999998
0.0281982421875
0.022558593749999998
0.1039306640625
0.0990966796875
0.1474365234375
0.2215576171875
0.0217529296875
0.023364257812499997
0.0249755859375
0.023364257812499997
0.022558593749999998
0.026586914062499998
0.0281982421875
0.024169921875
1.2495849609374998
1.877197265625
2.3420654296875
2.53623046875
2.6256591796874997
2.8899169921874996
2.98740234375
2.9559814453124997
2.921337890625
2.8230468749999997
2.834326171875
2.7827636718749997
2.711865234375
2.5950439453125
3.0204345703124997
3.0244628906249997
3.0244628906249997
3.0252685546875
3.02607421875
3.02607421875
2.36220703125
1.6435546875
0.6815917968749999
0.17080078124999998
0.023364257812499997
0.0201416015625
0.022558593749999998
0.02578125
0.0249755859375
0.01611328125
0.022558593749999998
0.13212890624999998
0.018530273437499998
0.3101806640625
0.3029296875
0.023364257812499997
0.023364257812499997
0.022558593749999998
0.027392578124999997
0.027392578124999997
0.023364257812499997
0.020947265625
1.132763671875
1.9190917968749999
2.338037109375
2.6039062499999996
2.779541015625
2.92939453125
2.9994873046875
2.956787109375
2.8810546875
2.8141845703125
2.8206298828125
2.7867919921874997
2.79404296875
2.6836669921875
3.0252685546875
3.027685546875
3.0268798828124996
3.029296875
3.0309082031249996
3.02607421875
3.027685546875
1.6733642578124999
0.7984130859374999
0.30454101562499997
0.0217529296875
0.0217529296875
0.019335937499999997
0.023364257812499997
0.023364257812499997
0.022558593749999998
0.022558593749999998
0.0201416015625
0.0217529296875
0.02900390625
0.022558593749999998
0.027392578124999997
0.024169921875
0.024169921875
0.023364257812499997
0.022558593749999998
0.0217529296875
0.022558593749999998
1.0239990234375
1.6653076171874999
2.173681640625
2.4419677734375
2.6240478515624996
2.7908203124999997
2.8560791015625
2.8818603515624996
2.8633300781249997
2.924560546875
2.811767578125
2.7851806640624996
2.6321044921874996
2.470166015625
3.0252685546875
3.0268798828124996
3.0325195312499997
3.0252685546875
3.0204345703124997
3.0244628906249997
3.0236572265625
2.0278564453125
0.9708251953125
0.2135009765625
0.027392578124999997
0.0249755859375
0.022558593749999998
0.024169921875
0.022558593749999998
0.023364257812499997
0.022558593749999998
0.022558593749999998
0.043505859375
0.10957031249999999
0.1699951171875
0.024169921875
0.022558593749999998
0.018530273437499998
0.0217529296875
0.022558593749999998
0.023364257812499997
0.0281982421875
0.022558593749999998
1.1899658203124999
2.012548828125
2.373486328125
2.6441894531249996
2.771484375
2.9712890625
2.9720947265624997
2.9720947265624997
2.96162109375
2.9455078125
2.9269775390625
2.8037109375
2.7577880859375
2.6619140624999997
3.0252685546875
3.0228515624999996
3.0252685546875
3.0236572265625
3.02607421875
3.0284912109374997
2.328369140625
1.0642822265625
0.43828124999999996
0.0298095703125
0.023364257812499997
0.023364257812499997
0.0249755859375
0.022558593749999998
0.022558593749999998
0.023364257812499997
0.02578125
0.030615234374999998
0.04833984375
0.2118896484375
0.13857421875
0.022558593749999998
0.022558593749999998
0.022558593749999998
0.01611328125
0.023364257812499997
0.022558593749999998
0.0217529296875
1.173046875
1.93681640625
2.3646240234375
2.4556640625
2.7585937499999997
2.98095703125
2.9656494140625
3.0244628906249997
2.9994873046875
3.02607421875
2.9712890625
2.8617187499999996
2.7424804687499997
2.5531494140624997
3.027685546875
3.027685546875
3.0236572265625
3.0252685546875
3.0220458984375
3.0236572265625
2.4000732421874997
1.585546875
0.8241943359374999
0.32468261718749997
0.026586914062499998
0.023364257812499997
0.023364257812499997
0.017724609375
0.02578125
0.0281982421875
0.0217529296875
0.022558593749999998
0.0249755859375
0.0668701171875
0.0515625
0.023364257812499997
0.022558593749999998
0.0217529296875
0.022558593749999998
0.017724609375
0.026586914062499998
0.024169921875
0.829833984375
1.4953124999999998
1.9682373046875
2.41376953125
2.5458984375
2.7577880859375
2.7344238281249997
2.7674560546875
2.7900146484375
2.7835693359375
2.7481201171875
2.6917236328125
2.6756103515625
2.5652343749999997
3.0228515624999996
3.0220458984375
3.02607421875
3.02607421875
3.021240234375
3.0244628906249997
3.0252685546875
2.0955322265625
1.1045654296875
0.2425048828125
0.0217529296875
0.023364257812499997
0.023364257812499997
0.023364257812499997
0.022558593749999998
0.023364257812499997
0.023364257812499997
0.026586914062499998
0.027392578124999997
0.11359863281249999
0.1071533203125
0.022558593749999998
0.023364257812499997
0.023364257812499997
0.022558593749999998
0.02900390625
0.0201416015625
0.023364257812499997
0.020947265625
1.2109130859375
1.98515625
2.334814453125
2.4339111328125
2.624853515625
2.7408691406249996
2.7908203124999997
2.8077392578125
2.7368408203124996
2.6836669921875
2.6482177734374996
2.566845703125
2.5330078124999997
2.5096435546875
3.029296875
3.0236572265625
3.029296875
3.0244628906249997
3.0220458984375
3.0252685546875
2.3098388671875
1.1045654296875
0.38994140624999996
0.022558593749999998
0.024169921875
0.019335937499999997
0.0249755859375
0.020947265625
0.023364257812499997
0.024169921875
0.023364257812499997
0.0281982421875
0.0829833984375
0.11279296875
0.143408203125
0.022558593749999998
0.022558593749999998
0.023364257812499997
0.0201416015625
0.022558593749999998
0.023364257812499997
0.024169921875
1.3462646484374998
1.960986328125
2.33642578125
2.544287109375
2.7593994140625
2.889111328125
2.9390625
2.9608154296875
2.9688720703125
2.91328125
2.9688720703125
2.6377441406249997
2.5732910156249997
2.5595947265624996
3.0252685546875
3.0252685546875
3.0244628906249997
3.0236572265625
3.0236572265625
3.0244628906249997
2.3315917968749997
1.4888671875
0.572021484375
0.023364257812499997
0.023364257812499997
0.02578125
0.0217529296875
0.022558593749999998
0.022558593749999998
0.023364257812499997
0.023364257812499997
0.024169921875
0.059619140625
0.0668701171875
0.027392578124999997
0.018530273437499998
0.026586914062499998
0.023364257812499997
0.022558593749999998
0.023364257812499997
0.023364257812499997
0.0217529296875
0.6211669921874999
1.3502929687499998
1.948095703125
2.180126953125
2.383154296875
2.6031005859375
2.6441894531249996
2.6756103515625
2.7610107421874996
2.8254638671874996
2.7642333984375
2.711865234375
2.7126708984374996
2.5998779296874996
3.021240234375
3.0236572265625
3.02607421875
3.0268798828124996
3.0268798828124996
3.0252685546875
3.0083496093749997
1.9352050781249999
0.726708984375
0.278759765625
0.022558593749999998
0.022558593749999998
0.0169189453125
0.023364257812499997
0.026586914062499998
0.027392578124999997
0.023364257812499997
0.0249755859375
0.07412109374999999
0.11762695312499999
0.2280029296875
0.023364257812499997
0.023364257812499997
0.022558593749999998
0.020947265625
0.022558593749999998
0.020947265625
0.022558593749999998
0.022558593749999998
1.7047851562499998
2.1342041015624997
2.40732421875
2.5716796874999996
2.7400634765625
2.7658447265625
2.8133789062499996
2.7666503906249997
2.7505371093749997
2.6868896484375
2.6176025390624997
2.5821533203125
2.550732421875
3.0268798828124996
3.0252685546875
3.02607421875
3.0252685546875
3.029296875
3.02607421875
3.0244628906249997
2.0044921875
1.0433349609375
0.4809814453125
0.0217529296875
0.023364257812499997
0.023364257812499997
0.022558593749999998
0.0249755859375
0.022558593749999998
0.023364257812499997
0.023364257812499997
0.020947265625
0.0990966796875
0.10634765624999999
0.023364257812499997
0.023364257812499997
0.023364257812499997
0.022558593749999998
0.024169921875
0.023364257812499997
0.0281982421875
0.0249755859375
1.0449462890624999
1.69189453125
2.360595703125
2.560400390625
2.59423828125
2.72314453125
2.7779296875
2.7521484375
2.7892089843749996
2.8593017578124997
2.7497314453125
2.7223388671874997
2.5998779296874996
2.6079345703124996
3.0244628906249997
3.0236572265625
3.0284912109374997
3.02607421875
3.0252685546875
3.02607421875
2.2880859375
1.3414306640625
0.28037109374999997
0.022558593749999998
0.022558593749999998
0.022558593749999998
0.023364257812499997
0.0201416015625
0.022558593749999998
0.027392578124999997
0.022558593749999998
0.017724609375
0.024169921875
0.11359863281249999
0.12165527343749999
0.0249755859375
0.017724609375
0.0217529296875
0.024169921875
0.0217529296875
0.024169921875
0.0249755859375
0.9087890624999999
1.770849609375
2.1342041015624997
2.3855712890625
2.5724853515625
2.8415771484374996
2.8270751953124997
2.8214355468749996
2.8270751953124997
2.7408691406249996
2.771484375
2.68125
2.67158203125
2.60712890625
3.0228515624999996
3.0244628906249997
3.0252685546875
3.0268798828124996
3.01962890625
3.0252685546875
2.866552734375
1.5315673828124998
0.704150390625
0.169189453125
0.0217529296875
0.0217529296875
0.022558593749999998
0.019335937499999997
0.023364257812499997
0.020947265625
0.024169921875
0.023364257812499997
0.023364257812499997
0.064453125
0.0910400390625
0.027392578124999997
0.024169921875
0.023364257812499997
0.0249755859375
0.024169921875
0.0217529296875
0.023364257812499997
0.8846191406249999
1.6056884765625
2.083447265625
2.4613037109375
2.5410644531249997
2.7867919921874997
2.769873046875
2.8899169921874996
2.8480224609375
2.784375
2.6949462890625
2.6377441406249997
2.5724853515625
2.354150390625
3.0244628906249997
3.02607421875
3.02607421875
3.0220458984375
3.02607421875
3.0252685546875
3.0244628906249997
2.0254394531249997
1.00224609375
0.2263916015625
0.020947265625
0.023364257812499997
0.022558593749999998
0.022558593749999998
0.023364257812499997
0.0201416015625
0.0322265625
0.043505859375
0.08137207031249999
0.0249755859375
0.0249755859375
0.022558593749999998
0.019335937499999997
0.0217529296875
0.0217529296875
0.024169921875
0.022558593749999998
0.023364257812499997
0.024169921875
1.3019531249999998
1.9569580078125
2.260693359375
2.410546875
2.4306884765625
2.5491210937499997
2.5958496093749996
2.528173828125
2.63935546875
2.6176025390624997
2.615185546875
2.666748046875
2.5660400390625
2.479833984375
3.0236572265625
3.0244628906249997
3.0252685546875
3.029296875
3.027685546875
3.0236572265625
2.2832519531249997
0.98291015625
0.3053466796875
0.02578125
0.022558593749999998
0.024169921875
0.019335937499999997
0.024169921875
0.017724609375
0.022558593749999998
0.023364257812499997
0.023364257812499997
0.08540039062499999
0.09748535156249999
0.1393798828125
0.022558593749999998
0.0249755859375
0.02578125
0.027392578124999997
0.027392578124999997
0.017724609375
0.0217529296875
1.2592529296875
1.8409423828125
2.255859375
2.5330078124999997
2.7585937499999997
2.9608154296875
2.898779296875
2.9068359375
2.866552734375
2.8866943359375
2.776318359375
2.6780273437499997
2.528173828125
2.357373046875
3.02607421875
3.0268798828124996
3.0252685546875
3.027685546875
3.0252685546875
3.0236572265625
2.2179931640625
1.2826171874999999
0.4390869140625
0.024169921875
0.023364257812499997
0.020947265625
0.018530273437499998
0.0281982421875
0.026586914062499998
0.023364257812499997
0.0249755859375
0.026586914062499998
0.020947265625
0.0378662109375
0.0249755859375
0.024169921875
0.018530273437499998
0.018530273437499998
0.0201416015625
0.0281982421875
0.023364257812499997
0.024169921875
1.0352783203125
1.654833984375
2.2196044921875
2.4838623046875
2.5644287109375
2.5732910156249997
2.5088378906249997
2.6699707031249997
2.666748046875
2.6514404296875
2.57490234375
2.4790283203124996
2.4339111328125
2.4194091796875
3.0252685546875
3.02607421875
3.0244628906249997
3.0301025390625
3.0236572265625
3.0244628906249997
2.9447021484375
1.77890625
0.6276123046875
0.0314208984375
0.026586914062499998
0.0217529296875
0.023364257812499997
0.022558593749999998
0.022558593749999998
0.02578125
0.023364257812499997
0.022558593749999998
0.018530273437499998
0.02900390625
0.023364257812499997
0.017724609375
0.022558593749999998
0.022558593749999998
0.024169921875
0.019335937499999997
0.018530273437499998
0.017724609375
0.023364257812499997
1.4276367187499999
2.1857666015625
2.489501953125
2.5974609374999997
2.8125732421875
2.8681640625
2.8657470703124996
2.8947509765625
2.80048828125
2.7094482421875
2.6941406249999997
2.5080322265625
2.4991699218749996
2.4113525390625
3.0220458984375
3.02607421875
3.0244628906249997
3.0236572265625
3.027685546875
3.02607421875
2.167236328125
0.8580322265625
0.3198486328125
0.026586914062499998
0.02578125
0.022558593749999998
0.024169921875
0.026586914062499998
0.017724609375
0.023364257812499997
0.024169921875
0.023364257812499997
0.058813476562499994
0.049145507812499996
0.023364257812499997
0.0169189453125
0.0201416015625
0.0169189453125
0.0169189453125
0.018530273437499998
0.022558593749999998
0.026586914062499998
1.2310546875
1.82080078125
2.2276611328125
2.4943359375
2.5692626953124997
2.7593994140625
2.6748046875
2.6530517578125
2.7046142578124996
2.7005859374999996
2.745703125
2.6603027343749996
2.5740966796875
2.486279296875
3.0244628906249997
3.0284912109374997
3.0268798828124996
3.02607421875
3.0252685546875
3.0220458984375
2.33642578125
1.4364990234375
0.6251953124999999
0.015307617187499999
0.024169921875
0.024169921875
0.0281982421875
0.022558593749999998
0.023364257812499997
0.024169921875
0.0249755859375
0.033032226562499996
0.09990234375
0.095068359375
0.020947265625
0.0169189453125
0.023364257812499997
0.027392578124999997
0.023364257812499997
0.0217529296875
0.0217529296875
0.023364257812499997
1.0650878906249999
1.7289550781249998
2.34931640625
2.49755859375
2.6788330078125
2.85205078125
2.8238525390625
3.021240234375
2.856884765625
2.818212890625
2.6449951171875
2.6466064453125
2.5595947265624996
2.59423828125
3.01962890625
3.02607421875
3.021240234375
3.0244628906249997
3.0252685546875
3.0244628906249997
2.7134765625
1.8465820312499999
0.7073730468749999
0.23122558593749998
0.0217529296875
0.020947265625
0.023364257812499997
0.023364257812499997
0.024169921875
0.020947265625
0.0217529296875
0.019335937499999997
0.0249755859375
0.0555908203125
0.024169921875
0.026586914062499998
0.017724609375
0.0201416015625
0.0217529296875
0.0217529296875
0.023364257812499997
0.019335937499999997
0.022558593749999998
1.4477783203124999
1.8369140625
2.13662109375
2.34931640625
2.489501953125
2.4306884765625
2.69736328125
2.6417724609374997
2.487890625
2.50400390625
2.4282714843749997
2.4790283203124996
2.4419677734375
3.02607421875
3.0252685546875
3.029296875
3.021240234375
3.0284912109374997
3.02607421875
3.021240234375
1.8900878906249998
0.9313476562499999
0.31259765624999997
0.022558593749999998
0.0169189453125
0.023364257812499997
0.022558593749999998
0.0281982421875
0.023364257812499997
0.026586914062499998
0.023364257812499997
0.0733154296875
0.0322265625
0.01611328125
0.0201416015625
0.0169189453125
0.020947265625
0.018530273437499998
0.022558593749999998
0.026586914062499998
0.019335937499999997
0.0378662109375
1.353515625
1.9392333984374999
2.3267578125
2.4580810546875
2.550732421875
2.779541015625
2.8045166015625
2.7497314453125
2.68125
2.6538574218749997
2.634521484375
2.5934326171874997
2.40732421875
2.2792236328124997
3.02607421875
3.029296875
3.0252685546875
3.0252685546875
3.0268798828124996
3.0244628906249997
2.1938232421875
1.3019531249999998
0.32468261718749997
0.020947265625
0.022558593749999998
0.023364257812499997
0.022558593749999998
0.023364257812499997
0.020947265625
0.0249755859375
0.019335937499999997
0.02900390625
0.0620361328125
0.02578125
0.078955078125
0.022558593749999998
0.020947265625
0.02578125
0.0217529296875
0.023364257812499997
0.0314208984375
0.0966796875
1.74345703125
2.534619140625
2.8069335937499997
3.029296875
3.0228515624999996
3.0252685546875
2.9422851562499996
2.9624267578124996
2.8367431640625
2.7569824218749996
2.60068359375
2.5080322265625
2.3323974609375
2.2365234375
3.0236572265625
3.0244628906249997
3.018017578125
3.0220458984375
3.0268798828124996
3.0268798828124996
2.618408203125
1.3712402343749999
0.4640625
0.023364257812499997
0.027392578124999997
0.023364257812499997
0.0217529296875
0.024169921875
0.022558593749999998
0.023364257812499997
0.027392578124999997
0.022558593749999998
0.020947265625
0.022558593749999998
0.0249755859375
0.0217529296875
0.023364257812499997
0.0169189453125
0.026586914062499998
0.0217529296875
0.0201416015625
0.0249755859375
1.920703125
2.6240478515624996
2.9712890625
3.0244628906249997
3.0220458984375
3.029296875
2.8810546875
2.924560546875
2.9390625
2.8883056640625
2.7030029296875
2.6135742187499997
2.4999755859375
2.263916015625
3.02607421875
3.0228515624999996
3.0204345703124997
3.021240234375
3.0236572265625
3.0284912109374997
2.7819580078125
1.6886718749999998
0.630029296875
0.023364257812499997
0.022558593749999998
0.023364257812499997
0.023364257812499997
0.022558593749999998
0.01611328125
0.0217529296875
0.023364257812499997
0.026586914062499998
0.017724609375
0.024169921875
0.023364257812499997
0.022558593749999998
0.023364257812499997
0.023364257812499997
0.018530273437499998
0.0217529296875
0.024169921875
0.024169921875
1.4848388671875
2.425048828125
2.9914306640625
2.9438964843749997
3.02607421875
3.0252685546875
3.021240234375
2.953564453125
2.905224609375
2.7424804687499997
2.5813476562499997
2.3912109375
2.3017822265625
2.1793212890625
2.093115234375
3.0228515624999996
3.0220458984375
3.029296875
3.02607421875
3.0244628906249997
3.0244628906249997
2.0818359374999997
0.82177734375
0.0523681640625
0.023364257812499997
0.0281982421875
0.022558593749999998
0.023364257812499997
0.022558593749999998
0.022558593749999998
0.0169189453125
0.023364257812499997
0.0217529296875
0.023364257812499997
0.022558593749999998
0.0217529296875
0.026586914062499998
0.017724609375
0.0249755859375
0.02900390625
0.023364257812499997
0.0217529296875
0.9257080078125
2.4749999999999996
3.001904296875
3.01962890625
3.0228515624999996
3.0228515624999996
3.0268798828124996
2.9922363281249997
2.8447998046875
2.698974609375
2.5330078124999997
2.4097412109375
2.3178955078125
2.2131591796875
2.0794189453125
3.0236572265625
3.0252685546875
3.0244628906249997
3.0268798828124996
3.0268798828124996
3.0244628906249997
1.92392578125
1.103759765625
0.2376708984375
0.024169921875
0.02578125
0.018530273437499998
0.0169189453125
0.022558593749999998
0.024169921875
0.024169921875
0.024169921875
0.018530273437499998
0.019335937499999997
0.0201416015625
0.024169921875
0.022558593749999998
0.024169921875
0.023364257812499997
0.026586914062499998
0.022558593749999998
0.022558593749999998
0.22880859374999998
2.151123046875
2.7755126953125
3.0236572265625
3.02607421875
3.0252685546875
3.0220458984375
2.9761230468749997
2.874609375
2.745703125
2.6377441406249997
2.5305908203125
2.4685546874999997
2.3597900390624997
2.20751953125
3.02607421875
3.0244628906249997
3.021240234375
3.0252685546875
3.0236572265625
3.0301025390625
2.7207275390624996
1.7692382812499998
0.515625
0.022558593749999998
0.027392578124999997
0.0281982421875
0.02578125
0.018530273437499998
0.027392578124999997
0.0217529296875
0.023364257812499997
0.022558593749999998
0.023364257812499997
0.026586914062499998
0.023364257812499997
0.030615234374999998
0.022558593749999998
0.022558593749999998
0.0217529296875
0.022558593749999998
0.024169921875
0.02578125
1.7136474609374999
2.5708740234375
3.0252685546875
3.0236572265625
3.021240234375
3.029296875
2.9801513671874997
2.8818603515624996
2.6876953125
2.4709716796875
2.4282714843749997
2.2792236328124997
2.2518310546875
2.0729736328125
1.98837890625
3.0252685546875
3.0252685546875
3.0244628906249997
3.0252685546875
3.02607421875
3.0220458984375
2.006103515625
0.6823974609375
0.0515625
0.022558593749999998
0.0217529296875
0.0249755859375
0.0217529296875
0.023364257812499997
0.023364257812499997
0.0217529296875
0.0249755859375
0.019335937499999997
0.027392578124999997
0.058813476562499994
0.0249755859375
0.0217529296875
0.026586914062499998
0.0249755859375
0.023364257812499997
0.0281982421875
0.023364257812499997
1.0385009765625
2.5338134765625
2.9592041015625
3.0244628906249997
3.0268798828124996
3.0027099609374996
3.0252685546875
2.9543701171874996
2.85849609375
2.7368408203124996
2.647412109375
2.437939453125
2.4500244140625
2.33642578125
2.0842529296875
3.0228515624999996
3.0228515624999996
3.0252685546875
3.0228515624999996
3.021240234375
3.0284912109374997
2.1205078125
1.2125244140625
0.31662597656249997
0.0169189453125
0.020947265625
0.018530273437499998
0.026586914062499998
0.020947265625
0.023364257812499997
0.023364257812499997
0.022558593749999998
0.023364257812499997
0.0217529296875
0.027392578124999997
0.0217529296875
0.022558593749999998
0.026586914062499998
0.02900390625
0.0217529296875
0.024169921875
0.022558593749999998
0.646142578125
2.18818359375
2.85205078125
3.0268798828124996
3.0204345703124997
3.0309082031249996
3.0244628906249997
2.9753173828125
2.9092529296875
2.8053222656249996
2.6304931640625
2.5257568359375
2.4604980468749997
2.358984375
2.14951171875
3.0252685546875
3.02607421875
3.0244628906249997
3.0244628906249997
3.02607421875
3.0252685546875
2.586181640625
1.6282470703124998
0.4245849609375
0.02578125
0.0281982421875
0.0249755859375
0.022558593749999998
0.023364257812499997
0.0201416015625
0.023364257812499997
0.020947265625
0.022558593749999998
0.023364257812499997
0.022558593749999998
0.0217529296875
0.022558593749999998
0.022558593749999998
0.020947265625
0.018530273437499998
0.023364257812499997
0.022558593749999998
0.023364257812499997
1.6935058593749999
2.8141845703125
3.0236572265625
3.0252685546875
3.0309082031249996
2.9906249999999996
2.8351318359374997
2.9044189453125
2.818212890625
2.6723876953124996
2.8472167968749997
2.5273681640624996
2.4194091796875
2.204296875
3.0220458984375
3.027685546875
3.02607421875
3.0309082031249996
3.0301025390625
3.02607421875
3.0220458984375
1.7096191406249999
0.678369140625
0.022558593749999998
0.020947265625
0.027392578124999997
0.022558593749999998
0.022558593749999998
0.022558593749999998
0.022558593749999998
0.0217529296875
0.018530273437499998
0.0169189453125
0.019335937499999997
0.026586914062499998
0.022558593749999998
0.0201416015625
0.02578125
0.022558593749999998
0.027392578124999997
0.020947265625
0.0217529296875
1.5621826171875
2.5394531249999996
3.0284912109374997
3.021240234375
3.0284912109374997
3.0236572265625
3.0268798828124996
2.947119140625
2.8625244140625
2.7521484375
2.6095458984374997
2.4854736328125
2.3879882812499997
2.2534423828125
2.157568359375
3.02607421875
3.021240234375
3.0244628906249997
3.027685546875
3.02607421875
3.0284912109374997
2.0407470703125
1.1239013671875
0.15629882812499998
0.020947265625
0.023364257812499997
0.023364257812499997
0.024169921875
0.022558593749999998
0.017724609375
0.023364257812499997
0.026586914062499998
0.023364257812499997
0.0169189453125
0.024169921875
0.0217529296875
0.023364257812499997
0.0249755859375
0.022558593749999998
0.023364257812499997
0.023364257812499997
0.026586914062499998
0.878173828125
2.1809326171875
2.9068359375
3.027685546875
3.0252685546875
3.0268798828124996
3.0309082031249996
2.9261718749999996
2.900390625
2.8166015625
2.6699707031249997
2.4886962890624997
2.3477050781249997
2.2179931640625
2.1019775390624997
3.027685546875
3.0244628906249997
3.0252685546875
3.02607421875
3.0244628906249997
3.0236572265625
2.5587890625
1.3059814453124998
0.410888671875
0.023364257812499997
0.024169921875
0.027392578124999997
0.0281982421875
0.023364257812499997
0.024169921875
0.024169921875
0.024169921875
0.0217529296875
0.059619140625
0.024169921875
0.0708984375
0.0217529296875
0.022558593749999998
0.026586914062499998
0.024169921875
0.024169921875
0.026586914062499998
0.0249755859375
2.8302978515625
3.0244628906249997
3.0244628906249997
3.0252685546875
3.0244628906249997
3.0236572265625
3.0252685546875
3.02607421875
3.02607421875
3.0268798828124996
3.02607421875
3.027685546875
3.0228515624999996
3.02607421875
3.02607421875
3.0244628906249997
3.0244628906249997
3.0228515624999996
3.0268798828124996
3.02607421875
3.0252685546875
3.021240234375
3.02607421875
3.0236572265625
3.0252685546875
3.0301025390625
3.027685546875
3.021240234375
3.0252685546875
3.021240234375
3.0244628906249997
3.02607421875
3.0252685546875
3.0244628906249997
3.0268798828124996
3.0252685546875
3.0252685546875
3.02607421875
3.02607421875
3.02607421875
3.0268798828124996
3.0244628906249997
3.021240234375
3.0236572265625
3.0228515624999996
3.0244628906249997
3.0236572265625
3.0309082031249996
3.0244628906249997
3.0220458984375
3.0268798828124996
3.0268798828124996
3.0268798828124996
3.0236572265625
3.027685546875
3.0309082031249996
3.0244628906249997
3.029296875
3.0244628906249997
3.02607421875
3.0252685546875
3.0252685546875
2.7577880859375
1.735400390625
0.9015380859375
0.581689453125
0.55751953125
0.5760498046875
0.6823974609375
0.7621582031249999
0.9144287109375
1.0626708984375
1.126318359375
1.1295410156249999
1.0755615234375
1.0465576171875
0.990966796875
0.0443115234375
0.023364257812499997
0.020947265625
0.023364257812499997
0.11843261718749999
0.5365722656249999
1.007080078125
2.8302978515625
3.0252685546875
3.0228515624999996
2.5716796874999996
2.2228271484374997
1.8989501953124999
1.5380126953125
1.4042724609375
1.2374999999999998
1.0973144531249999
0.93779296875
0.833056640625
0.8225830078124999
0.8201660156249999
0.7532958984375
2.7352294921875
2.6433837890625
2.34609375
2.1462890624999997
1.8248291015625
1.0731445312499999
0.057202148437499996
0.022558593749999998
0.0201416015625
0.027392578124999997
0.019335937499999997
0.15791015625
0.19899902343749998
0.34160156249999996
0.5196533203125
0.662255859375
0.7557128906249999
0.7694091796875
0.8580322265625
0.9305419921875
0.871728515625
0.023364257812499997
0.0249755859375
0.0829833984375
0.21914062499999998
0.301318359375
0.8580322265625
1.8546386718749999
3.0244628906249997
2.9261718749999996
2.592626953125
2.2510253906249997
1.8626953124999999
1.6685302734374998
1.45341796875
1.2963134765625
1.20849609375
1.1206787109375
1.1617675781249999
1.1625732421875
1.1029541015625
1.126318359375
2.843994140625
2.9092529296875
2.673193359375
2.5974609374999997
1.9706542968749998
1.5122314453124999
0.8113037109375
0.027392578124999997
0.022558593749999998
0.022558593749999998
0.246533203125
0.48178710937499997
0.48581542968749997
0.7275146484374999
0.94423828125
1.0658935546875
1.148876953125
1.255224609375
1.303564453125
1.3204833984375
1.3792968749999999
0.02578125
0.0249755859375
0.2537841796875
0.4125
0.6598388671875
1.1939941406249999
2.038330078125
3.0228515624999996
3.0268798828124996
2.7892089843749996
2.37509765625
2.080224609375
1.799853515625
1.6395263671875
1.5557373046874998
1.4574462890625
1.3720458984375
1.3825195312499998
1.429248046875
1.461474609375
1.429248046875
2.489501953125
3.02607421875
2.631298828125
2.4403564453124997
2.1382324218749997
1.6330810546874999
1.1657958984374999
0.38107910156249997
0.022558593749999998
0.11923828125
0.36496582031249997
0.55107421875
0.67998046875
0.9273193359374999
1.1190673828125
1.2560302734375
1.3341796874999998
1.426025390625
1.5428466796875
1.43408203125
1.4413330078125
0.4487548828125
0.022558593749999998
0.2779541015625
0.475341796875
0.7621582031249999
1.3317626953125
1.6733642578124999
3.02607421875
3.0268798828124996
2.802099609375
2.4790283203124996
2.1116455078125
1.8111328125
1.7829345703125
1.6330810546874999
1.4800048828124999
1.4880615234374999
1.5702392578125
1.5412353515625
1.5396240234374998
1.5621826171875
1.5380126953125
3.0244628906249997
2.8149902343749997
2.5571777343749997
2.2856689453125
1.8264404296874999
1.40830078125
0.5325439453124999
0.0926513671875
0.06767578125
0.3198486328125
0.6340576171875
0.8209716796875
1.055419921875
1.276171875
1.3059814453124998
1.456640625
1.5605712890624999
1.4888671875
1.5251220703125
1.4832275390624998
0.84111328125
0.020947265625
0.2779541015625
0.7218749999999999
0.9168457031249999
1.206884765625
1.5766845703124999
2.9269775390625
3.0252685546875
2.979345703125
2.4814453125
2.125341796875
1.8949218749999999
1.7668212890625
1.7039794921875
1.63388671875
1.58232421875
1.554931640625
1.5428466796875
1.5154541015624998
1.5251220703125
1.4751708984374998
3.0252685546875
2.779541015625
2.5805419921875
2.3718749999999997
2.0625
1.506591796875
0.6131103515624999
0.249755859375
0.1248779296875
0.34482421874999997
0.6163330078125
0.8032470703125
0.9176513671875
1.16337890625
1.3446533203125
1.477587890625
1.4671142578124998
1.4671142578124998
1.5460693359375
1.5275390624999998
1.5436523437499998
0.022558593749999998
0.31904296875
0.64775390625
0.7855224609375
1.1698242187499999
1.5509033203125
2.1277587890625
3.027685546875
2.96162109375
2.599072265625
2.2953369140624997
1.9464843749999998
1.8626953124999999
1.6556396484375
1.6024658203125
1.5927978515624999
1.58232421875
1.5839355468749998
1.480810546875
1.506591796875
1.5404296874999999
3.0236572265625
2.924560546875
2.5805419921875
2.3138671875
2.0455810546874997
1.6765869140624998
0.765380859375
0.36496582031249997
0.08217773437499999
0.2747314453125
0.6356689453125
0.8507812499999999
0.952294921875
1.1770751953125
1.384130859375
1.4389160156249998
1.4791992187499998
1.4800048828124999
1.5194824218749998
1.5057861328125
1.4759765624999999
0.023364257812499997
0.023364257812499997
0.6485595703125
0.7943847656249999
1.0449462890624999
1.4880615234374999
1.9948242187499998
3.02607421875
3.0204345703124997
2.6296874999999997
2.222021484375
1.960986328125
1.8264404296874999
1.7208984374999998
1.6508056640625
1.6403320312499998
1.5807128906249999
1.6330810546874999
1.6435546875
1.529150390625
1.62744140625
2.2671386718749997
3.0236572265625
2.5386474609375
2.238134765625
2.1301757812499997
1.513037109375
1.239111328125
0.5486572265624999
0.116015625
0.249755859375
0.4568115234375
0.8338623046875
0.974853515625
1.164990234375
1.3728515625
1.4961181640624999
1.525927734375
1.5436523437499998
1.5315673828124998
1.546875
1.4679199218749999
0.0362548828125
0.020947265625
0.5196533203125
0.720263671875
0.9958007812499999
1.496923828125
1.8747802734374999
3.0252685546875
3.02607421875
2.7803466796875
2.2743896484375
2.0334960937499997
1.867529296875
1.8014648437499998
1.6411376953124999
1.5492919921875
1.5589599609375
1.6218017578125
1.6161621093749998
1.6137451171875
1.5525146484374999
1.799853515625
3.0228515624999996
2.7303955078124997
2.3017822265625
2.1422607421874997
1.72412109375
1.2125244140625
0.5607421874999999
0.2634521484375
0.22316894531249998
0.581689453125
0.726708984375
0.8846191406249999
1.1158447265625
1.3494873046875
1.3897705078125
1.5033691406249998
1.6935058593749999
1.5533203125
1.5355957031249998
1.5444580078124999
1.2479736328125
0.023364257812499997
0.3843017578125
0.671923828125
0.8668945312499999
1.3825195312499998
1.8006591796875
2.8633300781249997
3.0204345703124997
2.7223388671874997
2.4169921875
2.08505859375
1.8957275390625
1.7426513671875
1.6967285156249998
1.6669189453125
1.56943359375
1.5114257812499998
1.5944091796875
1.5073974609374998
1.4961181640624999
1.4091064453125
3.027685546875
2.7465087890624997
2.4032958984375
2.1454833984375
1.82724609375
1.4977294921875
0.7541015624999999
0.32871093749999997
0.3117919921875
0.50595703125
0.678369140625
0.9305419921875
0.984521484375
1.2705322265624999
1.3792968749999999
1.456640625
1.4945068359375
1.525927734375
1.5331787109375
1.5517089843749998
1.4872558593749998
0.018530273437499998
0.2747314453125
0.6002197265625
0.8838134765625
1.187548828125
1.5138427734375
2.695751953125
3.029296875
2.900390625
2.5096435546875
2.1978515625
1.9569580078125
1.8054931640624998
1.6427490234375
1.5517089843749998
1.5194824218749998
1.5807128906249999
1.6298583984375
1.5799072265624998
1.546875
1.5597656249999998
2.96484375
2.9326171875
2.4677490234375
2.281640625
1.9706542968749998
1.5726562499999999
0.7025390625
0.4358642578125
0.23686523437499998
0.3746337890625
0.630029296875
0.8934814453125
1.087646484375
1.3229003906249999
1.405078125
1.5267333984375
1.5678222656249998
1.5557373046874998
1.477587890625
1.5194824218749998
1.496923828125
0.023364257812499997
0.201416015625
0.655810546875
0.845947265625
1.2125244140625
1.5355957031249998
1.9907958984374998
3.02607421875
2.9833740234375
2.6449951171875
2.280029296875
1.8626953124999999
1.8087158203125
1.5517089843749998
1.5887695312499999
1.6306640625
1.6564453124999998
1.6185791015625
1.5484863281249999
1.635498046875
1.577490234375
2.7368408203124996
2.9358398437499997
2.5894042968749997
2.204296875
1.9247314453125
1.490478515625
1.2205810546875
0.507568359375
0.17241210937499998
0.348046875
0.67998046875
0.865283203125
1.0368896484374999
1.3027587890624999
1.3510986328124999
1.49853515625
1.5323730468749999
1.5033691406249998
1.4711425781249998
1.538818359375
1.5218994140625
0.18852539062499998
0.0201416015625
0.580078125
0.7468505859375
1.013525390625
1.4606689453125
1.9352050781249999
3.029296875
3.0228515624999996
2.66513671875
2.34287109375
2.05283203125
1.8054931640624998
1.6218017578125
1.6201904296874998
1.6491943359374999
1.56943359375
1.59521484375
1.5702392578125
1.5533203125
1.4791992187499998
1.6346923828125
2.985791015625
2.5740966796875
2.312255859375
2.1205078125
1.6024658203125
1.2818115234374998
0.6654785156249999
0.278759765625
0.30454101562499997
0.5260986328125
0.8386962890624999
1.0642822265625
1.2012451171875
1.3349853515624999
1.477587890625
1.4759765624999999
1.4510009765624998
1.4896728515625
1.546875
1.5235107421874998
0.39638671875
0.022558593749999998
0.4447265625
0.7307373046875
1.0965087890625
1.5090087890625
1.770849609375
3.0244628906249997
3.0244628906249997
2.7126708984374996
2.3887939453125
2.03994140625
1.8280517578125
1.7378173828124999
1.687060546875
1.651611328125
1.5895751953125
1.525927734375
1.5235107421874998
1.529150390625
1.5162597656249999
1.5090087890625
3.0301025390625
2.7706787109374997
2.3372314453125
2.1293701171875
1.803076171875
1.3736572265625
0.64453125
0.28681640625
0.2578125
0.605859375
0.74443359375
0.9579345703125
1.1480712890625
1.2584472656249999
1.4203857421875
1.50498046875
1.5670166015625
1.5186767578125
1.5509033203125
1.5766845703124999
1.5428466796875
0.022558593749999998
0.394775390625
0.69287109375
0.9071777343749999
1.368017578125
1.7337890624999999
2.7134765625
3.0301025390625
2.7134765625
2.4774169921875
2.196240234375
1.89169921875
1.80791015625
1.67900390625
1.56298828125
1.59521484375
1.577490234375
1.5807128906249999
1.5460693359375
1.5509033203125
1.4751708984374998
3.02607421875
2.7964599609375
2.4725830078124997
2.2099365234375
1.9424560546874998
1.5686279296874999
0.881396484375
0.2698974609375
0.281982421875
0.4439208984375
0.7822998046874999
0.9410156249999999
1.0352783203125
1.2858398437499998
1.426025390625
1.4832275390624998
1.4711425781249998
1.4308593749999998
1.5017578125
1.5509033203125
1.5347900390625
0.026586914062499998
0.17482910156249998
0.6993164062499999
0.8580322265625
1.1053710937499999
1.5090087890625
2.3879882812499997
3.0284912109374997
2.9865966796874996
2.5475097656249996
2.1696533203125
1.9037841796875
1.7700439453124999
1.71123046875
1.5758789062499998
1.40830078125
1.5863525390625
1.56943359375
1.5654052734375
1.5927978515624999
1.5686279296874999
2.6441894531249996
2.82626953125
2.5692626953124997
2.247802734375
2.05283203125
1.529150390625
0.9853271484374999
0.4954833984375
0.2940673828125
0.4189453125
0.6751464843749999
1.0207763671874999
1.042529296875
1.3527099609375
1.4155517578124999
1.4397216796874999
1.4364990234375
1.4477783203124999
1.5202880859374999
1.4373046875
1.4791992187499998
0.023364257812499997
0.111181640625
0.6195556640625
0.889453125
1.148876953125
1.5895751953125
1.8312744140625
3.02607421875
2.9430908203125
2.6079345703124996
2.165625
1.9223144531249998
1.8570556640625
1.69189453125
1.6951171875
1.6371093749999999
1.6234130859375
1.6072998046875
1.5637939453124998
1.538818359375
1.5355957031249998
2.4693603515625
3.0147949218749996
2.5112548828124996
2.1889892578125
2.038330078125
1.67578125
1.14404296875
0.5687988281249999
0.27392578125
0.2795654296875
0.6066650390625
0.8950927734374999
0.9974121093749999
1.2592529296875
1.41796875
1.4276367187499999
1.46630859375
1.4816162109375
1.5073974609374998
1.546875
1.464697265625
0.4833984375
0.022558593749999998
0.580078125
0.7146240234375
0.9394042968749999
1.4961181640624999
1.8538330078124998
3.0252685546875
3.0252685546875
2.689306640625
2.2776123046875
2.01416015625
1.8731689453125
1.7635986328125
1.6878662109375
1.5992431640625
1.6290527343749999
1.654833984375
1.5807128906249999
1.5533203125
1.458251953125
1.5170654296875
3.0228515624999996
2.663525390625
2.3742919921875
2.096337890625
1.7120361328125
1.3559326171875
0.6380859375
0.21591796875
0.28842773437499997
0.5712158203125
0.8523925781249999
1.0256103515625
1.1408203125
1.4155517578124999
1.4026611328124998
1.5678222656249998
1.571044921875
1.46630859375
1.4671142578124998
1.464697265625
0.8314453125
0.024169921875
0.47373046874999997
0.8104980468749999
1.061865234375
1.30517578125
1.5557373046874998
2.9640380859374997
3.021240234375
2.7932373046874996
2.27841796875
1.98515625
1.80791015625
1.7603759765625
1.6854492187499999
1.635498046875
1.6282470703124998
1.558154296875
1.4767822265625
1.48564453125
1.619384765625
1.4888671875
3.0268798828124996
2.7320068359375
2.4161865234374997
2.1632080078125
1.9247314453125
1.3712402343749999
0.6082763671875
0.45439453124999996
0.34482421874999997
0.5696044921875
0.708984375
0.9853271484374999
1.0489746093749999
1.1931884765625
1.348681640625
1.5267333984375
1.5299560546875
1.4735595703125
1.4719482421874999
1.56298828125
1.590380859375
0.022558593749999998
0.3923583984375
0.7549072265625
0.8926757812499999
1.300341796875
1.5782958984375
2.1906005859374997
3.02607421875
2.914892578125
2.5837646484374996
2.1462890624999997
1.8900878906249998
1.7926025390625
1.6685302734374998
1.558154296875
1.5041748046874999
1.51787109375
1.56298828125
