1.722509765625
1.6773925781249999
1.6975341796874999
1.6717529296875
1.6234130859375
1.5847412109374999
1.5726562499999999
1.5968261718749999
1.561376953125
1.5525146484374999
2.2921142578125
3.0244628906249997
2.2494140625
2.0375244140624997
2.0778076171874997
1.4848388671875
0.5679931640625
0.01611328125
0.022558593749999998
0.023364257812499997
0.62197265625
0.8386962890624999
1.0739501953125
1.2673095703125
1.5404296874999999
1.6040771484374998
1.59521484375
1.6185791015625
1.59521484375
1.6161621093749998
1.590380859375
0.4809814453125
0.023364257812499997
1.4074951171874999
1.123095703125
0.95390625
1.474365234375
2.4121582031249997
3.027685546875
3.02607421875
2.305810546875
2.038330078125
1.786962890625
1.690283203125
1.7297607421874999
1.667724609375
1.6411376953124999
1.5807128906249999
1.571044921875
1.574267578125
1.5533203125
1.522705078125
1.4945068359375
3.0309082031249996
2.3009765625
2.1591796875
2.1454833984375
1.6024658203125
0.9514892578124999
0.0217529296875
0.022558593749999998
0.0217529296875
0.5220703125
0.8193603515625
1.0739501953125
0.9788818359375
1.3728515625
1.5718505859374998
1.533984375
1.662890625
1.67900390625
1.5960205078124998
1.61455078125
1.5758789062499998
0.01611328125
1.044140625
1.3180664062499998
1.1045654296875
1.4550292968749998
2.0898925781249997
3.01962890625
3.029296875
2.4298828125
2.0697509765624997
1.815966796875
1.7410400390624998
1.77890625
1.6604736328124998
1.6298583984375
1.5807128906249999
1.5364013671874999
1.5734619140625
1.5436523437499998
1.51787109375
1.49853515625
3.02607421875
3.0244628906249997
1.9529296875
2.1293701171875
1.867529296875
1.0884521484375
0.017724609375
0.022558593749999998
0.0201416015625
0.2537841796875
0.7420166015624999
1.0078857421875
1.0111083984375
1.4332763671875
1.5919921874999998
1.577490234375
1.6363037109374998
1.587158203125
1.6532226562499999
1.6089111328124999
1.5484863281249999
0.017724609375
0.0217529296875
1.3212890625
1.1174560546874999
1.3527099609375
2.075390625
3.02607421875
3.0301025390625
3.001904296875
2.2115478515625
1.9352050781249999
1.722509765625
1.7845458984375
1.6153564453125
1.662890625
1.56943359375
1.53720703125
1.5323730468749999
1.55009765625
1.5162597656249999
1.5267333984375
2.5402587890625
3.0244628906249997
1.9730712890625
2.0649169921875
2.0633056640625
1.09892578125
0.4970947265625
0.022558593749999998
0.026586914062499998
0.16677246093749998
0.5994140625
0.910400390625
1.045751953125
1.1915771484375
1.52109375
1.6701416015625
1.7072021484375
1.7015624999999999
1.654833984375
1.638720703125
1.5799072265624998
0.39396972656249996
0.024169921875
1.3575439453125
1.0546142578125
1.2374999999999998
1.977099609375
2.4290771484375
3.029296875
3.011572265625
2.333203125
2.0246337890625
1.7692382812499998
1.7217041015624999
1.7410400390624998
1.6306640625
1.5726562499999999
1.5484863281249999
1.5323730468749999
1.542041015625
1.5645996093749999
1.5565429687499999
1.767626953125
3.0268798828124996
2.2888916015625
2.0149658203125
2.1277587890625
1.5444580078124999
0.9079833984375
0.023364257812499997
0.0217529296875
0.022558593749999998
0.5953857421875
0.8443359374999999
1.0650878906249999
1.05380859375
1.5299560546875
1.5944091796875
1.6169677734374999
1.6314697265625
1.6266357421875
1.6322753906249998
1.5791015625
1.2479736328125
0.0217529296875
0.9716308593749999
1.0256103515625
1.06669921875
1.513037109375
2.4210205078125
3.0220458984375
3.02607421875
2.5869873046875
2.0616943359374997
1.7909912109375
1.699951171875
1.76279296875
1.6540283203125
1.641943359375
1.5831298828125
1.5541259765625
1.571044921875
1.554931640625
1.5138427734375
1.5146484375
3.0252685546875
2.4725830078124997
2.0858642578124997
2.167236328125
1.6701416015625
1.044140625
0.017724609375
0.02578125
0.018530273437499998
0.4793701171875
0.7218749999999999
1.0812011718749999
1.03125
1.4364990234375
1.5436523437499998
1.6089111328124999
1.606494140625
1.5960205078124998
1.6234130859375
1.5992431640625
1.571044921875
0.0217529296875
0.7919677734374999
1.2125244140625
1.0739501953125
1.400244140625
2.093115234375
3.0244628906249997
3.02607421875
2.6885009765624996
2.2373291015625
1.9078125
1.699951171875
1.7821289062499999
1.6105224609375
1.6959228515625
1.58232421875
1.5170654296875
1.5243164062499999
1.55009765625
1.5082031249999999
1.506591796875
3.0244628906249997
3.0252685546875
1.989990234375
2.1946289062499997
1.8248291015625
1.0409179687499999
0.023364257812499997
0.023364257812499997
0.022558593749999998
0.233642578125
0.68642578125
0.968408203125
1.0433349609375
1.4751708984374998
1.585546875
1.6346923828125
1.625830078125
1.6089111328124999
1.6403320312499998
1.625830078125
1.5605712890624999
0.0322265625
0.023364257812499997
1.2890625
1.04736328125
1.2576416015624998
1.9464843749999998
3.0252685546875
3.027685546875
2.9020019531249996
2.176904296875
1.925537109375
1.7072021484375
1.714453125
1.56943359375
1.65966796875
1.619384765625
1.5460693359375
1.558154296875
1.5670166015625
1.5162597656249999
1.5154541015624998
1.944873046875
3.0252685546875
2.0552490234375
2.0294677734374997
2.1116455078125
1.1093994140624999
0.35368652343749996
0.022558593749999998
0.0217529296875
0.16274414062499998
0.6227783203124999
0.8846191406249999
1.055419921875
1.198828125
1.5009521484375
1.654833984375
1.6483886718749998
1.6403320312499998
1.662890625
1.625830078125
1.5734619140625
1.0014404296875
0.023364257812499997
1.3229003906249999
1.0505859375
1.1110107421875
1.85947265625
2.36220703125
3.0204345703124997
3.0244628906249997
2.3879882812499997
2.0536376953124997
1.7926025390625
1.667724609375
1.7362060546875
1.6765869140624998
1.6121337890624998
1.5734619140625
1.5605712890624999
1.5766845703124999
1.558154296875
1.5331787109375
1.4920898437499999
3.02607421875
2.4145751953125
2.067333984375
2.115673828125
1.6081054687499998
0.9982177734375
0.0169189453125
0.0201416015625
0.023364257812499997
0.5043457031249999
0.8580322265625
1.0658935546875
1.026416015625
1.4687255859375
1.609716796875
1.611328125
1.6669189453125
1.6451660156249999
1.69833984375
1.6298583984375
1.4687255859375
0.0217529296875
0.8515869140625
1.1835205078125
1.1045654296875
1.4147460937499998
2.083447265625
3.0301025390625
3.02607421875
2.5571777343749997
2.0375244140624997
1.7893798828124998
1.69189453125
1.714453125
1.6298583984375
1.654833984375
1.5766845703124999
1.56298828125
1.5766845703124999
1.5396240234374998
1.558154296875
1.5380126953125
3.02607421875
2.5724853515625
2.0697509765624997
2.1696533203125
1.8731689453125
1.110205078125
0.022558593749999998
0.0249755859375
0.027392578124999997
0.4197509765625
0.7379882812499999
1.0159423828125
1.0086914062499999
1.4896728515625
1.571044921875
1.6234130859375
1.6137451171875
1.6564453124999998
1.651611328125
1.638720703125
1.5589599609375
0.023364257812499997
0.581689453125
1.1819091796874999
1.0634765625
1.41796875
2.0576660156249997
2.8593017578124997
3.0236572265625
2.6868896484375
2.228466796875
1.9134521484375
1.7120361328125
1.7039794921875
1.5799072265624998
1.654833984375
1.5807128906249999
1.5484863281249999
1.5791015625
1.5758789062499998
1.5380126953125
1.5122314453124999
3.0236572265625
3.0268798828124996
2.0391357421875
2.0761962890625
1.880419921875
1.13115234375
0.5607421874999999
0.024169921875
0.023364257812499997
0.21914062499999998
0.7178466796874999
0.9724365234375
1.05380859375
1.239111328125
1.55009765625
1.6105224609375
1.622607421875
1.6129394531249999
1.625830078125
1.6250244140624999
1.561376953125
0.024169921875
0.0169189453125
1.2697265624999998
1.071533203125
1.2858398437499998
1.90458984375
2.66513671875
3.02607421875
3.0236572265625
2.399267578125
1.9674316406249999
1.72412109375
1.6685302734374998
1.56298828125
1.6346923828125
1.635498046875
1.56943359375
1.5847412109374999
1.5863525390625
1.5621826171875
1.522705078125
1.5734619140625
3.027685546875
2.0407470703125
1.9988525390624998
2.131787109375
1.2560302734375
0.6413085937499999
0.020947265625
0.019335937499999997
0.1232666015625
0.5841064453125
0.8604492187499999
1.0868408203125
1.2060791015624999
1.5243164062499999
1.5984375
1.641943359375
1.6218017578125
1.5839355468749998
1.606494140625
1.611328125
1.4510009765624998
0.022558593749999998
1.1609619140625
1.1029541015625
1.1416259765624999
1.8312744140625
2.3235351562499997
3.0236572265625
3.0268798828124996
2.41376953125
2.03671875
1.803076171875
1.670947265625
1.7426513671875
1.6733642578124999
1.6121337890624998
1.5895751953125
1.5517089843749998
1.538818359375
1.5517089843749998
1.5355957031249998
1.533984375
3.02607421875
2.50400390625
2.0576660156249997
2.1084228515625
1.7208984374999998
1.1367919921875
0.026586914062499998
0.022558593749999998
0.023364257812499997
0.4600341796875
0.81533203125
1.0449462890624999
1.042529296875
1.4848388671875
1.6129394531249999
1.6451660156249999
1.64677734375
1.651611328125
1.6459716796875
1.6137451171875
1.5041748046874999
0.023364257812499997
0.6896484374999999
1.200439453125
1.0497802734375
1.4147460937499998
2.0584716796875
3.0228515624999996
3.0268798828124996
2.7408691406249996
2.1978515625
1.7829345703125
1.6403320312499998
1.72734375
1.7015624999999999
1.6290527343749999
1.6620849609375
1.5090087890625
1.4751708984374998
1.5460693359375
1.5460693359375
1.62744140625
3.0236572265625
3.0236572265625
2.083447265625
2.26552734375
2.0052978515624997
1.1899658203124999
0.023364257812499997
0.024169921875
0.020947265625
0.38671875
0.6703125
0.928125
0.90234375
1.4147460937499998
1.4993408203124998
1.590380859375
1.6886718749999998
1.6306640625
1.611328125
1.603271484375
1.56298828125
0.0281982421875
0.022558593749999998
1.2205810546875
1.0248046874999999
1.252001953125
2.14951171875
2.689306640625
3.0284912109374997
2.7884033203125
2.2236328125
1.9392333984374999
1.7635986328125
1.8296630859374998
1.63388671875
1.69189453125
1.60166015625
1.5807128906249999
1.5275390624999998
1.525927734375
1.49853515625
1.4912841796874998
1.7700439453124999
3.021240234375
2.0496093749999997
2.038330078125
1.9021728515624998
1.1561279296875
0.6114990234375
0.023364257812499997
0.0217529296875
0.146630859375
0.59619140625
0.9232910156249999
1.1045654296875
1.2318603515625
1.493701171875
1.577490234375
1.6089111328124999
1.6306640625
1.6242187499999998
1.603271484375
1.585546875
0.020947265625
0.027392578124999997
1.27294921875
1.1045654296875
1.181103515625
1.8699462890624998
2.3984619140625
3.02607421875
3.0236572265625
2.40732421875
2.0625
1.7700439453124999
1.7208984374999998
1.7539306640624999
1.6435546875
1.6056884765625
1.590380859375
1.5492919921875
1.55009765625
1.5347900390625
1.5315673828124998
1.4735595703125
3.0252685546875
2.4339111328125
1.9730712890625
2.176904296875
1.7555419921875
0.6767578125
0.023364257812499997
0.020947265625
0.01611328125
0.5776611328125
0.8104980468749999
1.0376953125
0.9595458984374999
1.4622802734375
1.561376953125
1.6161621093749998
1.6314697265625
1.6532226562499999
1.6234130859375
1.5960205078124998
1.53076171875
0.022558593749999998
0.8185546874999999
1.1335693359374999
1.1021484375
1.400244140625
2.1946289062499997
3.0220458984375
3.02607421875
2.6280761718749996
2.070556640625
1.8224121093749999
1.7329833984374998
1.7531249999999998
1.6379150390625
1.619384765625
1.6048828124999999
1.558154296875
1.5517089843749998
1.5122314453124999
1.52109375
1.5243164062499999
3.0268798828124996
2.6514404296875
2.0600830078125
2.151123046875
1.7619873046874999
1.0892578124999999
0.018530273437499998
0.017724609375
0.019335937499999997
0.44230957031249996
0.7218749999999999
1.0691162109374999
1.0207763671874999
1.4759765624999999
1.5476806640624998
1.6048828124999999
1.6250244140624999
1.62744140625
1.6443603515624998
1.641943359375
1.55009765625
0.022558593749999998
0.559130859375
1.2656982421874998
1.0868408203125
1.4123291015625
2.16884765625
2.7755126953125
3.029296875
2.6901123046874997
2.2107421874999997
1.9392333984374999
1.7410400390624998
1.7523193359375
1.5476806640624998
1.6532226562499999
1.5927978515624999
1.5396240234374998
1.5509033203125
1.5476806640624998
1.5235107421874998
1.5025634765625
3.0252685546875
3.0244628906249997
2.0020751953125
2.1487060546875
1.9408447265625
1.1367919921875
0.1071533203125
0.023364257812499997
0.019335937499999997
0.1571044921875
0.6662841796875
0.95068359375
1.0409179687499999
1.4332763671875
1.5597656249999998
1.6089111328124999
1.6443603515624998
1.622607421875
1.6000488281249998
1.6234130859375
1.5476806640624998
0.0249755859375
0.019335937499999997
1.248779296875
1.0658935546875
1.229443359375
1.9150634765624999
2.6466064453125
3.027685546875
3.021240234375
2.27841796875
2.022216796875
1.7942138671874999
1.7039794921875
1.6137451171875
1.66611328125
1.6121337890624998
1.5194824218749998
1.52109375
1.513037109375
1.5347900390625
1.5186767578125
1.5355957031249998
3.0244628906249997
2.09150390625
1.9795166015624999
2.115673828125
1.1923828125
0.6638671875
0.022558593749999998
0.022558593749999998
0.08942871093749999
0.591357421875
0.8612548828125
1.1013427734374999
1.224609375
1.5154541015624998
1.6250244140624999
1.6620849609375
1.6379150390625
1.6435546875
1.6153564453125
1.60166015625
1.509814453125
0.023364257812499997
1.2101074218749999
1.1150390625
1.1158447265625
1.8014648437499998
2.2760009765625
3.027685546875
3.0252685546875
2.466943359375
2.1003662109375
1.803076171875
1.6846435546874998
1.7555419921875
1.625830078125
1.5944091796875
1.56298828125
1.5589599609375
1.5807128906249999
1.525927734375
1.5057861328125
1.5001464843749999
3.0252685546875
2.5491210937499997
2.0407470703125
2.1712646484375
1.7821289062499999
1.1093994140624999
0.020947265625
0.022558593749999998
0.02900390625
0.42539062499999997
0.7984130859374999
1.06669921875
1.036083984375
1.46953125
1.6040771484374998
1.635498046875
1.6234130859375
1.6040771484374998
1.59521484375
1.5968261718749999
1.5621826171875
0.023364257812499997
0.6211669921874999
1.1061767578125
1.0248046874999999
1.384130859375
2.0898925781249997
3.0244628906249997
3.02607421875
2.771484375
2.1076171875
1.8586669921874999
1.6935058593749999
1.754736328125
1.6540283203125
1.6242187499999998
1.5597656249999998
1.5355957031249998
1.5347900390625
1.5517089843749998
1.5533203125
1.5251220703125
3.0220458984375
2.7819580078125
2.0697509765624997
2.160791015625
1.8602783203125
1.142431640625
0.054785156249999994
0.023364257812499997
0.022558593749999998
0.388330078125
0.7049560546875
0.9692138671874999
0.952294921875
1.4816162109375
1.5380126953125
1.6201904296874998
1.6556396484375
1.6201904296874998
1.6177734375
1.6185791015625
1.5799072265624998
0.019335937499999997
0.34965820312499996
1.2286376953125
1.0932861328124999
1.3825195312499998
2.0923095703125
2.7328124999999996
3.0252685546875
2.8496337890624996
2.276806640625
1.98837890625
1.716064453125
1.6854492187499999
1.5645996093749999
1.603271484375
1.5960205078124998
1.5517089843749998
1.5509033203125
1.5831298828125
1.558154296875
1.5041748046874999
3.02607421875
3.0244628906249997
2.0697509765624997
2.173681640625
1.9706542968749998
1.1980224609374999
0.6260009765625
0.0217529296875
0.020947265625
0.13212890624999998
0.68642578125
0.9410156249999999
1.0650878906249999
1.2528076171875
1.5557373046874998
1.6056884765625
1.6451660156249999
1.6008544921874999
1.5927978515624999
1.5815185546875
1.5831298828125
0.019335937499999997
0.027392578124999997
1.173046875
1.0376953125
1.16337890625
1.7958251953125
2.281640625
3.0228515624999996
3.0244628906249997
2.4886962890624997
2.0778076171874997
1.8256347656249998
1.7200927734375
1.6403320312499998
1.6395263671875
1.571044921875
1.5364013671874999
1.55009765625
1.5541259765625
1.5082031249999999
1.5460693359375
1.5364013671874999
3.0252685546875
2.144677734375
2.093115234375
2.2671386718749997
1.699951171875
0.6815917968749999
0.0217529296875
0.026586914062499998
0.023364257812499997
0.48581542968749997
0.742822265625
0.97001953125
1.142431640625
1.4187744140624998
1.5807128906249999
1.6314697265625
1.654833984375
1.5919921874999998
1.5992431640625
1.6008544921874999
1.461474609375
0.0201416015625
1.1859374999999999
1.0578369140625
0.9595458984374999
1.313232421875
2.3082275390625
3.0244628906249997
3.0236572265625
2.5773193359374997
2.1954345703125
1.9037841796875
1.7055908203124999
1.7603759765625
1.64677734375
1.6411376953124999
1.5839355468749998
1.5879638671874998
1.56298828125
1.525927734375
1.5154541015624998
1.5275390624999998
3.0252685546875
2.7884033203125
2.126953125
2.273583984375
1.92392578125
1.155322265625
0.020947265625
0.024169921875
0.018530273437499998
0.323876953125
0.5744384765625
0.9257080078125
0.87333984375
1.3664062499999998
1.52109375
1.5879638671874998
1.6306640625
1.625830078125
1.6322753906249998
1.6040771484374998
1.5605712890624999
0.022558593749999998
0.18449707031249998
1.2536132812499998
1.045751953125
1.3188720703124999
2.1132568359375
2.8625244140625
3.0236572265625
2.956787109375
2.350927734375
1.998046875
1.8763916015625
1.7990478515625
1.714453125
1.6427490234375
1.5686279296874999
1.5315673828124998
1.5557373046874998
1.5323730468749999
1.493701171875
1.4896728515625
3.0244628906249997
3.0236572265625
2.11728515625
2.367041015625
2.1624023437499997
1.2205810546875
0.022558593749999998
0.024169921875
0.02578125
0.1941650390625
0.44230957031249996
0.7065673828125
0.88623046875
1.2955078125
1.4364990234375
1.5331787109375
1.6645019531249998
1.6081054687499998
1.6693359374999999
1.6475830078125
1.5637939453124998
0.024169921875
0.023364257812499997
1.2173583984375
0.984521484375
1.1158447265625
2.212353515625
2.7489257812499996
3.0244628906249997
3.02607421875
2.437939453125
2.112451171875
1.8506103515624999
1.8038818359375
1.6451660156249999
1.6725585937499998
1.603271484375
1.5662109375
1.5847412109374999
1.6161621093749998
1.574267578125
1.52109375
1.5041748046874999
3.0252685546875
2.2373291015625
2.180126953125
2.19140625
1.3623779296874998
0.5341552734375
0.022558593749999998
0.026586914062499998
0.023364257812499997
0.32145996093749996
0.6348632812499999
0.8016357421875
0.974853515625
1.3527099609375
1.5766845703124999
1.62744140625
1.6403320312499998
1.6395263671875
1.6483886718749998
1.6234130859375
0.018530273437499998
0.026586914062499998
0.9958007812499999
1.077978515625
0.9821044921875
1.6967285156249998
2.3146728515625
3.021240234375
3.02607421875
2.65546875
2.2824462890625
1.941650390625
1.819189453125
1.8731689453125
1.7531249999999998
1.6693359374999999
1.65966796875
1.6137451171875
1.6040771484374998
1.5565429687499999
1.6153564453125
1.5122314453124999
3.0220458984375
3.021240234375
2.4604980468749997
2.7706787109374997
2.296142578125
1.4332763671875
0.0169189453125
0.017724609375
0.0201416015625
0.18449707031249998
0.2183349609375
0.39316406249999997
0.26425781249999997
1.039306640625
1.340625
1.4115234374999999
1.6653076171874999
1.6443603515624998
1.6379150390625
1.6242187499999998
1.5670166015625
0.018530273437499998
0.0217529296875
0.32145996093749996
0.33515625
0.7275146484374999
1.9037841796875
3.02607421875
3.0252685546875
3.02607421875
2.7755126953125
2.553955078125
2.3678466796874997
2.3517333984374997
2.196240234375
2.0359130859375
1.8884765625
1.7595703125
1.7176757812499999
1.6733642578124999
1.6266357421875
1.5565429687499999
3.0252685546875
3.0252685546875
2.9914306640625
3.029296875
2.9720947265624997
1.8538330078124998
0.023364257812499997
0.022558593749999998
0.022558593749999998
0.020947265625
0.0249755859375
0.022558593749999998
0.022558593749999998
0.6638671875
0.837890625
1.1915771484375
1.4010498046875
1.4574462890625
1.5154541015624998
1.619384765625
1.5565429687499999
0.024169921875
0.024169921875
0.018530273437499998
0.023364257812499997
0.159521484375
1.7877685546875
2.91650390625
3.0228515624999996
3.0236572265625
3.02607421875
3.0220458984375
2.8061279296875
2.860107421875
2.513671875
2.5740966796875
2.3477050781249997
2.1406494140625
2.0826416015625
1.9352050781249999
1.819189453125
1.7039794921875
3.0252685546875
3.02607421875
3.0252685546875
3.0204345703124997
3.0252685546875
2.2018798828125
1.2044677734375
0.022558593749999998
0.0249755859375
0.023364257812499997
0.023364257812499997
0.023364257812499997
0.017724609375
0.027392578124999997
0.3552978515625
0.5567138671874999
0.7162353515625
0.85400390625
0.9369873046874999
1.0336669921875
1.095703125
0.0217529296875
0.023364257812499997
0.023364257812499997
0.0217529296875
0.022558593749999998
0.0217529296875
0.023364257812499997
3.02607421875
3.0236572265625
3.018017578125
3.0252685546875
3.027685546875
3.0244628906249997
3.0301025390625
3.02607421875
3.0244628906249997
3.0284912109374997
3.029296875
3.0268798828124996
2.96162109375
2.9390625
2.7819580078125
3.0244628906249997
3.0236572265625
3.0228515624999996
3.021240234375
3.029296875
3.0228515624999996
0.02578125
0.022558593749999998
0.027392578124999997
0.023364257812499997
0.030615234374999998
0.026586914062499998
0.023364257812499997
0.024169921875
0.019335937499999997
0.027392578124999997
0.023364257812499997
0.0217529296875
0.0217529296875
0.023364257812499997
0.023364257812499997
0.018530273437499998
0.023364257812499997
0.022558593749999998
0.022558593749999998
0.0201416015625
0.019335937499999997
0.023364257812499997
0.0217529296875
0.027392578124999997
0.027392578124999997
0.15227050781249998
0.7806884765625
1.493701171875
1.7764892578125
2.2212158203125
2.513671875
2.6965576171874996
2.8464111328125
2.9447021484375
2.94873046875
2.9600097656249997
3.02607421875
3.02607421875
3.0244628906249997
3.0244628906249997
3.0244628906249997
3.02607421875
1.1464599609375
0.027392578124999997
0.018530273437499998
0.023364257812499997
0.0201416015625
0.024169921875
0.0201416015625
0.023364257812499997
0.022558593749999998
0.041088867187499996
0.0249755859375
0.024169921875
0.023364257812499997
0.020947265625
0.0201416015625
0.023364257812499997
0.022558593749999998
0.023364257812499997
0.022558593749999998
0.026586914062499998
0.022558593749999998
0.023364257812499997
0.024169921875
0.019335937499999997
0.0217529296875
0.0217529296875
0.1393798828125
1.2052734375
1.264892578125
2.012548828125
2.2880859375
2.5305908203125
2.7867919921874997
2.9269775390625
3.029296875
3.02607421875
3.0244628906249997
3.02607421875
3.0268798828124996
3.0252685546875
3.0244628906249997
3.0244628906249997
3.0244628906249997
0.033837890625
0.020947265625
0.027392578124999997
0.023364257812499997
0.020947265625
0.0217529296875
0.022558593749999998
0.0249755859375
0.022558593749999998
0.019335937499999997
0.023364257812499997
0.022558593749999998
0.018530273437499998
0.026586914062499998
0.022558593749999998
0.022558593749999998
0.023364257812499997
0.022558593749999998
0.022558593749999998
0.020947265625
0.022558593749999998
0.022558593749999998
0.022558593749999998
0.026586914062499998
0.0249755859375
0.0281982421875
0.472119140625
1.26005859375
1.6588623046875
2.1261474609374997
2.49755859375
2.6748046875
2.9366455078125
3.0244628906249997
3.0236572265625
3.0244628906249997
3.027685546875
3.0244628906249997
3.0236572265625
3.027685546875
3.0268798828124996
3.0252685546875
0.2811767578125
0.018530273437499998
0.0249755859375
0.022558593749999998
0.022558593749999998
0.018530273437499998
0.023364257812499997
0.0217529296875
0.019335937499999997
0.0249755859375
0.0217529296875
0.022558593749999998
0.020947265625
0.0217529296875
0.023364257812499997
0.023364257812499997
0.023364257812499997
0.018530273437499998
0.019335937499999997
0.017724609375
0.026586914062499998
0.0281982421875
0.022558593749999998
0.022558593749999998
0.020947265625
0.0217529296875
0.022558593749999998
1.0078857421875
1.297119140625
2.0334960937499997
2.3146728515625
2.5233398437499996
2.8174072265624996
3.0204345703124997
3.0244628906249997
3.02607421875
3.021240234375
3.0301025390625
3.0220458984375
3.0268798828124996
3.027685546875
3.0268798828124996
3.0252685546875
0.023364257812499997
0.023364257812499997
0.023364257812499997
0.023364257812499997
0.02578125
0.0169189453125
0.022558593749999998
0.0217529296875
0.0249755859375
0.024169921875
0.0169189453125
0.022558593749999998
0.0217529296875
0.0539794921875
0.027392578124999997
0.0217529296875
0.024169921875
0.022558593749999998
0.027392578124999997
0.024169921875
0.023364257812499997
0.027392578124999997
0.088623046875
0.153076171875
0.21914062499999998
0.301318359375
0.7323486328125
1.2826171874999999
1.9037841796875
2.29775390625
2.5499267578125
2.8697753906249996
3.021240234375
3.0228515624999996
3.0301025390625
3.0188232421874996
3.0244628906249997
3.027685546875
3.0268798828124996
3.027685546875
3.0236572265625
3.0228515624999996
1.126318359375
0.020947265625
0.023364257812499997
0.020947265625
0.023364257812499997
0.022558593749999998
0.022558593749999998
0.023364257812499997
0.02578125
0.017724609375
0.027392578124999997
0.023364257812499997
0.069287109375
0.1426025390625
0.022558593749999998
0.02900390625
0.0249755859375
0.111181640625
0.19094238281249998
0.26022949218749997
0.32951660156249996
0.40202636718749996
0.46083984375
0.5091796875
0.5792724609375
0.6211669921874999
0.66064453125
1.24072265625
1.7942138671874999
2.2107421874999997
2.3775146484375
2.6860839843749997
2.963232421875
3.027685546875
3.0228515624999996
3.01962890625
3.0228515624999996
3.0228515624999996
3.0244628906249997
3.0228515624999996
3.0236572265625
3.02607421875
3.0252685546875
3.0268798828124996
0.0249755859375
0.022558593749999998
0.0249755859375
0.023364257812499997
0.026586914062499998
0.0201416015625
0.018530273437499998
0.023364257812499997
0.0217529296875
0.0217529296875
0.0580078125
0.15871582031249998
0.0717041015625
0.020947265625
0.0217529296875
0.0378662109375
0.11440429687499999
0.18852539062499998
0.2795654296875
0.3472412109375
0.4125
0.468896484375
0.539794921875
0.594580078125
0.6380859375
1.8022705078124999
2.2131591796875
2.4145751953125
2.6860839843749997
2.8286865234375
2.8633300781249997
3.0284912109374997
3.0244628906249997
3.0284912109374997
3.021240234375
3.0268798828124996
3.029296875
3.0244628906249997
3.027685546875
3.0252685546875
3.0244628906249997
3.0244628906249997
0.0378662109375
0.024169921875
0.0217529296875
0.022558593749999998
0.0169189453125
0.026586914062499998
0.017724609375
0.0201416015625
0.0217529296875
0.024169921875
0.026586914062499998
0.0378662109375
0.022558593749999998
0.023364257812499997
0.018530273437499998
0.027392578124999997
0.03544921875
0.1119873046875
0.214306640625
0.2771484375
0.34482421874999997
0.42861328125
0.48259277343749996
0.54140625
0.6034423828125
1.14404296875
1.716064453125
2.12373046875
2.486279296875
2.6764160156249996
2.7787353515624997
2.9737060546875
3.0236572265625
3.0309082031249996
3.001904296875
3.0244628906249997
3.021240234375
3.0252685546875
3.0268798828124996
3.0252685546875
3.0244628906249997
3.0301025390625
0.7645751953125
0.022558593749999998
0.026586914062499998
0.020947265625
0.0217529296875
0.027392578124999997
0.018530273437499998
0.017724609375
0.022558593749999998
0.019335937499999997
0.0201416015625
0.0249755859375
0.0249755859375
0.022558593749999998
0.023364257812499997
0.0217529296875
0.07009277343749999
0.1740234375
0.2441162109375
0.31340332031249996
0.3746337890625
0.4568115234375
0.5083740234374999
0.5671875
0.6348632812499999
0.942626953125
1.6218017578125
2.0133544921874997
2.2888916015625
2.46533203125
2.6498291015624997
2.8423828125
2.8979736328124996
2.9600097656249997
2.9583984374999996
3.0228515624999996
3.0228515624999996
3.0244628906249997
3.0244628906249997
3.027685546875
3.0244628906249997
3.02607421875
1.9352050781249999
0.022558593749999998
0.023364257812499997
0.022558593749999998
0.0217529296875
0.023364257812499997
0.02578125
0.022558593749999998
0.019335937499999997
0.022558593749999998
0.023364257812499997
0.020947265625
0.023364257812499997
0.026586914062499998
0.020947265625
0.04189453125
0.1474365234375
0.217529296875
0.28842773437499997
0.3552978515625
0.43747558593749997
0.49306640625
0.5454345703125
0.623583984375
0.662255859375
0.7114013671874999
0.7516845703124999
1.7531249999999998
1.9569580078125
2.1906005859374997
2.3718749999999997
2.5233398437499996
2.63291015625
2.7400634765625
2.827880859375
3.01962890625
3.0268798828124996
3.0252685546875
3.0204345703124997
3.0244628906249997
3.02607421875
3.0228515624999996
3.02607421875
0.022558593749999998
0.023364257812499997
0.019335937499999997
0.0217529296875
0.023364257812499997
0.018530273437499998
0.020947265625
0.024169921875
0.0281982421875
0.027392578124999997
0.0201416015625
0.0322265625
0.02578125
0.06767578125
0.14421386718749998
0.2505615234375
0.314208984375
0.3794677734375
0.46083984375
0.5148193359375
0.572021484375
0.62197265625
0.6815917968749999
0.7291259765625
0.7710205078125
1.2721435546875
1.7345947265625
2.0633056640625
2.4629150390625
2.49755859375
2.55234375
2.7465087890624997
2.848828125
2.8270751953124997
2.7489257812499996
3.0268798828124996
3.0244628906249997
3.0244628906249997
3.0244628906249997
3.0252685546875
3.0244628906249997
3.0252685546875
0.2578125
0.023364257812499997
0.024169921875
0.0201416015625
0.026586914062499998
0.0201416015625
0.0201416015625
0.023364257812499997
0.022558593749999998
0.024169921875
0.023364257812499997
0.022558593749999998
0.0249755859375
0.0314208984375
0.1313232421875
0.20866699218749998
0.27392578125
0.3424072265625
0.43022460937499996
0.4890380859375
0.539794921875
0.6131103515624999
0.6614501953124999
0.7025390625
1.2044677734375
1.7418457031249999
2.4564697265624997
2.673193359375
2.8391601562499997
2.8939453124999996
2.9841796874999997
3.02607421875
3.0236572265625
3.0268798828124996
2.8593017578124997
3.0244628906249997
3.0309082031249996
3.021240234375
3.0220458984375
3.0244628906249997
3.02607421875
3.0236572265625
1.4928955078125
0.023364257812499997
0.023364257812499997
0.022558593749999998
0.022558593749999998
0.022558593749999998
0.017724609375
0.027392578124999997
0.022558593749999998
0.023364257812499997
0.022558593749999998
0.023364257812499997
0.020947265625
0.023364257812499997
0.0217529296875
0.023364257812499997
0.0515625
0.1506591796875
0.223974609375
0.298095703125
0.38188476562499996
0.44150390624999997
0.5003173828124999
0.554296875
0.9676025390624999
1.4977294921875
1.9706542968749998
2.698974609375
2.7005859374999996
2.8319091796875
2.8681640625
2.8214355468749996
2.9575927734375
2.9116699218749997
2.8061279296875
3.02607421875
3.0244628906249997
3.027685546875
3.0244628906249997
3.0244628906249997
3.02607421875
3.0244628906249997
3.0228515624999996
0.027392578124999997
0.023364257812499997
0.018530273437499998
0.01611328125
0.020947265625
0.0249755859375
0.022558593749999998
0.019335937499999997
0.023364257812499997
0.017724609375
0.020947265625
0.023364257812499997
0.0217529296875
0.022558593749999998
0.017724609375
0.019335937499999997
0.0539794921875
0.127294921875
0.20625
0.291650390625
0.3681884765625
0.4245849609375
0.5003173828124999
1.2101074218749999
1.6927001953124998
2.2228271484374997
2.582958984375
2.840771484375
2.98095703125
3.0244628906249997
2.977734375
3.02607421875
3.005126953125
2.9253662109375
2.8286865234375
3.0220458984375
3.0244628906249997
3.02607421875
3.029296875
3.0244628906249997
3.0268798828124996
3.0228515624999996
0.301318359375
0.022558593749999998
0.022558593749999998
0.023364257812499997
0.023364257812499997
0.023364257812499997
0.023364257812499997
0.0201416015625
0.022558593749999998
0.022558593749999998
0.022558593749999998
0.023364257812499997
0.022558593749999998
0.024169921875
0.022558593749999998
0.020947265625
0.0217529296875
0.023364257812499997
0.064453125
0.13615722656249998
0.214306640625
0.285205078125
0.36899414062499997
0.910400390625
1.6081054687499998
2.0496093749999997
2.6296874999999997
2.8883056640625
3.021240234375
3.0268798828124996
3.027685546875
3.0244628906249997
2.9849853515625
2.8593017578124997
2.6490234375
3.0284912109374997
3.02607421875
3.0244628906249997
3.027685546875
3.0236572265625
3.02607421875
3.0268798828124996
1.3784912109374998
0.02900390625
0.022558593749999998
0.020947265625
0.022558593749999998
0.0217529296875
0.01611328125
0.023364257812499997
0.020947265625
0.0217529296875
0.024169921875
0.0281982421875
0.0249755859375
0.018530273437499998
0.0249755859375
0.022558593749999998
0.0201416015625
0.022558593749999998
0.023364257812499997
0.038671874999999994
0.11440429687499999
0.21108398437499998
0.2827880859375
0.3472412109375
1.683837890625
2.05283203125
2.6369384765625
2.8979736328124996
2.850439453125
3.0228515624999996
3.011572265625
2.96162109375
2.9753173828125
2.8359375
2.7505371093749997
3.0204345703124997
3.0268798828124996
3.0236572265625
3.0244628906249997
3.0220458984375
3.0252685546875
3.0228515624999996
3.0317138671875
0.2698974609375
0.020947265625
0.022558593749999998
0.022558593749999998
0.023364257812499997
0.026586914062499998
0.022558593749999998
0.023364257812499997
0.027392578124999997
0.020947265625
0.0201416015625
0.0281982421875
0.0217529296875
0.023364257812499997
0.023364257812499997
0.020947265625
0.020947265625
0.024169921875
0.022558593749999998
0.0217529296875
0.08540039062499999
0.1619384765625
0.23203125
0.9812988281249999
1.5218994140625
1.9062011718749998
2.4226318359375
2.6852783203125
2.80048828125
2.8464111328125
2.8528564453125
2.8359375
2.721533203125
2.6981689453124997
2.5716796874999996
3.0244628906249997
3.0252685546875
3.021240234375
3.0204345703124997
3.0268798828124996
3.0228515624999996
3.02607421875
1.164990234375
0.023364257812499997
0.023364257812499997
0.0249755859375
0.022558593749999998
0.022558593749999998
0.022558593749999998
0.0217529296875
0.022558593749999998
0.0217529296875
0.022558593749999998
0.019335937499999997
0.022558593749999998
0.022558593749999998
0.024169921875
0.0201416015625
0.023364257812499997
0.023364257812499997
0.022558593749999998
0.07734374999999999
0.15227050781249998
0.21914062499999998
0.2940673828125
0.9168457031249999
1.513037109375
1.964208984375
2.719921875
2.745703125
2.843994140625
2.94873046875
3.0043212890624997
2.8633300781249997
2.8544677734375
2.8029052734374997
2.7166992187499996
3.0244628906249997
3.02607421875
3.0228515624999996
3.0244628906249997
3.0252685546875
3.0244628906249997
3.0252685546875
3.0325195312499997
0.023364257812499997
0.019335937499999997
0.0249755859375
0.0217529296875
0.0217529296875
0.022558593749999998
0.022558593749999998
0.022558593749999998
0.022558593749999998
0.022558593749999998
0.027392578124999997
0.0217529296875
0.023364257812499997
0.023364257812499997
0.023364257812499997
0.0169189453125
0.0217529296875
0.022558593749999998
0.050756835937499994
0.120849609375
0.198193359375
0.28842773437499997
0.36577148437499996
1.4284423828125
1.6483886718749998
2.405712890625
2.6135742187499997
2.908447265625
2.94873046875
2.9350341796875
2.9978759765625
2.89072265625
2.7787353515624997
2.7561767578125
2.56845703125
3.0228515624999996
3.0252685546875
3.0204345703124997
3.02607421875
3.029296875
3.0252685546875
3.0244628906249997
0.023364257812499997
0.0249755859375
0.023364257812499997
0.0201416015625
0.0217529296875
0.022558593749999998
0.022558593749999998
0.022558593749999998
0.0217529296875
0.024169921875
0.019335937499999997
0.022558593749999998
0.020947265625
0.0249755859375
0.023364257812499997
0.023364257812499997
0.023364257812499997
0.0249755859375
0.02578125
0.056396484375
0.1377685546875
0.23525390624999998
0.3037353515625
1.3333740234375
2.0536376953124997
2.470166015625
2.9559814453124997
2.956787109375
3.0236572265625
3.0252685546875
3.02607421875
3.0220458984375
2.9495361328125
2.78759765625
2.6546630859375
3.0252685546875
3.02607421875
3.02607421875
3.021240234375
3.0244628906249997
3.0244628906249997
3.029296875
0.9571289062499999
0.0249755859375
0.022558593749999998
0.023364257812499997
0.0217529296875
0.023364257812499997
0.024169921875
0.027392578124999997
0.022558593749999998
0.023364257812499997
0.022558593749999998
0.019335937499999997
0.023364257812499997
0.023364257812499997
0.022558593749999998
0.026586914062499998
0.022558593749999998
0.0169189453125
0.0217529296875
0.024169921875
0.0298095703125
0.09829101562499999
0.175634765625
0.8370849609375
1.5396240234374998
1.977099609375
2.5652343749999997
2.8230468749999997
3.0236572265625
2.9841796874999997
3.0236572265625
2.969677734375
2.9704833984374996
2.8294921874999996
2.6844726562499996
3.0252685546875
3.0252685546875
3.021240234375
3.0236572265625
3.0236572265625
3.0244628906249997
3.0204345703124997
3.0244628906249997
0.018530273437499998
0.026586914062499998
0.022558593749999998
0.022558593749999998
0.0217529296875
0.024169921875
0.0217529296875
0.022558593749999998
0.023364257812499997
0.026586914062499998
0.017724609375
0.024169921875
0.022558593749999998
0.022558593749999998
0.020947265625
0.026586914062499998
0.0217529296875
0.022558593749999998
0.024169921875
0.023364257812499997
0.049145507812499996
0.12890625
0.9563232421875
1.7595703125
2.141455078125
2.39765625
2.95517578125
3.02607421875
3.0244628906249997
3.029296875
3.0236572265625
3.0252685546875
3.0002929687499997
2.92294921875
2.8359375
3.0236572265625
3.02607421875
3.0244628906249997
3.0244628906249997
3.0301025390625
3.0252685546875
3.027685546875
0.23203125
0.0169189453125
0.0217529296875
0.0201416015625
0.026586914062499998
0.0217529296875
0.026586914062499998
0.022558593749999998
0.018530273437499998
0.022558593749999998
0.027392578124999997
0.023364257812499997
0.020947265625
0.024169921875
0.022558593749999998
0.0249755859375
0.0217529296875
0.013696289062499999
0.023364257812499997
0.023364257812499997
0.023364257812499997
0.024169921875
0.06767578125
1.2866455078124999
1.8232177734375
2.2856689453125
2.7827636718749997
2.7585937499999997
3.0252685546875
3.021240234375
3.005126953125
2.9825683593749996
2.8496337890624996
2.7593994140625
2.6860839843749997
3.0244628906249997
3.0236572265625
3.0268798828124996
3.0268798828124996
3.021240234375
3.0252685546875
3.029296875
1.1077880859375
0.023364257812499997
0.026586914062499998
0.0217529296875
0.019335937499999997
0.023364257812499997
0.022558593749999998
0.0217529296875
0.0217529296875
0.02578125
0.0217529296875
0.0217529296875
0.024169921875
0.022558593749999998
0.0249755859375
0.024169921875
0.046728515624999994
0.020947265625
0.022558593749999998
0.020947265625
0.023364257812499997
0.023364257812499997
0.0298095703125
1.0932861328124999
1.7958251953125
2.2937255859375
2.8609130859375
2.5531494140624997
3.0236572265625
3.0204345703124997
2.9970703125
3.0075439453125
2.9221435546874996
2.8754150390624997
2.7497314453125
3.0236572265625
3.0252685546875
3.0220458984375
3.0228515624999996
3.027685546875
3.0228515624999996
3.0236572265625
3.0309082031249996
0.0201416015625
0.0217529296875
0.018530273437499998
0.026586914062499998
0.0217529296875
0.0201416015625
0.0217529296875
0.02578125
0.022558593749999998
0.0217529296875
0.022558593749999998
0.022558593749999998
0.0201416015625
0.022558593749999998
0.027392578124999997
0.023364257812499997
0.0249755859375
0.023364257812499997
0.017724609375
0.0201416015625
0.02578125
0.0217529296875
0.1877197265625
1.3333740234375
2.0197998046875
2.3243408203125
2.771484375
3.021240234375
3.0252685546875
3.0204345703124997
3.0244628906249997
3.0002929687499997
2.9414794921875
2.85205078125
2.8045166015625
3.0244628906249997
3.02607421875
3.0204345703124997
3.0284912109374997
3.0236572265625
3.0228515624999996
3.0220458984375
0.9603515625
0.022558593749999998
0.024169921875
0.023364257812499997
0.019335937499999997
0.022558593749999998
0.023364257812499997
0.023364257812499997
0.022558593749999998
0.027392578124999997
0.019335937499999997
0.022558593749999998
0.0217529296875
0.026586914062499998
0.018530273437499998
0.022558593749999998
0.023364257812499997
0.022558593749999998
0.0217529296875
0.022558593749999998
0.024169921875
0.0217529296875
0.024169921875
1.2028564453125
1.7660156249999999
2.1116455078125
2.7545654296874997
2.7884033203125
2.9962646484374997
3.0268798828124996
2.9592041015625
2.985791015625
2.9261718749999996
2.8230468749999997
2.721533203125
3.0236572265625
3.02607421875
3.0252685546875
3.0252685546875
3.0244628906249997
3.0284912109374997
3.0220458984375
3.027685546875
0.0169189453125
0.022558593749999998
0.023364257812499997
0.022558593749999998
0.0217529296875
0.02578125
0.023364257812499997
0.023364257812499997
0.024169921875
0.024169921875
0.019335937499999997
0.02578125
0.0217529296875
0.023364257812499997
0.024169921875
0.022558593749999998
0.030615234374999998
0.023364257812499997
0.022558593749999998
0.020947265625
0.017724609375
0.0249755859375
0.8346679687499999
1.3422363281249998
1.8328857421875
2.5313964843749996
2.4604980468749997
2.850439453125
2.9181152343749996
2.8915283203124997
2.9986816406249996
2.9946533203124996
2.914892578125
2.8319091796875
3.0244628906249997
3.0244628906249997
3.0228515624999996
3.0236572265625
3.0252685546875
3.0284912109374997
3.0244628906249997
3.0236572265625
0.0217529296875
0.026586914062499998
0.026586914062499998
0.022558593749999998
0.023364257812499997
0.027392578124999997
0.024169921875
0.018530273437499998
0.022558593749999998
0.0201416015625
0.022558593749999998
0.02578125
0.020947265625
0.023364257812499997
0.018530273437499998
0.0249755859375
0.0169189453125
0.023364257812499997
0.022558593749999998
0.022558593749999998
0.023364257812499997
0.023364257812499997
0.042700195312499994
1.173046875
1.94970703125
2.2905029296875
2.65869140625
2.85849609375
3.02607421875
3.0252685546875
3.0164062499999997
3.005126953125
2.9930419921875
2.8472167968749997
2.7223388671874997
3.0244628906249997
3.029296875
3.0252685546875
3.029296875
3.02607421875
3.0244628906249997
3.02607421875
0.863671875
0.0217529296875
0.0217529296875
0.024169921875
0.026586914062499998
0.030615234374999998
0.022558593749999998
0.022558593749999998
0.022558593749999998
0.023364257812499997
0.0281982421875
0.018530273437499998
0.023364257812499997
0.0217529296875
0.0281982421875
0.023364257812499997
0.022558593749999998
0.02578125
0.0201416015625
0.0217529296875
0.0217529296875
0.024169921875
0.033032226562499996
0.8048583984375
1.5444580078124999
1.9666259765624998
2.5797363281249996
2.6683593749999996
2.9527587890625
2.9801513671874997
2.953564453125
3.0252685546875
3.0309082031249996
2.9914306640625
2.9326171875
3.0220458984375
3.0228515624999996
3.02607421875
3.0252685546875
3.029296875
3.0268798828124996
3.02607421875
3.0236572265625
2.4387451171875
3.0268798828124996
3.0244628906249997
3.021240234375
3.0244628906249997
3.0309082031249996
3.0252685546875
3.0252685546875
3.0268798828124996
3.0284912109374997
3.0244628906249997
3.02607421875
3.0284912109374997
3.0301025390625
3.021240234375
3.0244628906249997
3.0244628906249997
3.0236572265625
3.0268798828124996
3.0268798828124996
3.0220458984375
3.0268798828124996
3.0252685546875
3.0244628906249997
3.0204345703124997
3.0317138671875
3.0220458984375
3.02607421875
3.01962890625
3.0309082031249996
3.0244628906249997
3.0284912109374997
3.0244628906249997
3.0301025390625
3.0228515624999996
3.0252685546875
3.0236572265625
3.0301025390625
3.0252685546875
3.01962890625
3.0252685546875
1.0497802734375
0.091845703125
0.57041015625
1.4711425781249998
2.5289794921874997
2.9688720703125
3.0236572265625
3.02607421875
3.0252685546875
3.0405761718749997
3.02607421875
3.0252685546875
3.0236572265625
3.0059326171875
0.0217529296875
0.023364257812499997
0.936181640625
0.9974121093749999
1.2439453125
2.3984619140625
3.01962890625
3.0244628906249997
3.0236572265625
3.027685546875
3.0244628906249997
2.811767578125
2.6055175781249997
2.5652343749999997
2.270361328125
2.1599853515625
1.9746826171874998
1.7934082031249998
1.6161621093749998
1.4252197265625
1.22138671875
1.26005859375
3.0204345703124997
3.0228515624999996
2.5853759765624997
2.7005859374999996
1.7740722656249999
0.061230468749999996
0.0281982421875
0.023364257812499997
0.024169921875
0.02578125
0.02900390625
0.0217529296875
0.027392578124999997
0.3923583984375
0.4962890625
0.5486572265624999
0.6453369140624999
0.6380859375
0.6735351562499999
0.6131103515624999
0.56396484375
0.023364257812499997
0.022558593749999998
0.4809814453125
0.2876220703125
0.5824951171875
1.9835449218749999
3.029296875
3.0301025390625
3.0244628906249997
1.8908935546874999
1.4364990234375
1.1738525390624999
1.1802978515625
0.9369873046874999
0.9007324218749999
0.8958984375
0.9007324218749999
0.9579345703125
0.984521484375
0.9337646484375
0.881396484375
3.0252685546875
2.98740234375
2.281640625
2.180126953125
1.5396240234374998
0.55751953125
0.0249755859375
0.0217529296875
0.023364257812499997
0.022558593749999998
0.033032226562499996
0.10151367187499999
0.041088867187499996
0.6509765624999999
0.8129150390625
1.013525390625
1.0973144531249999
1.0368896484374999
1.0570312499999999
1.0948974609375
1.058642578125
0.0217529296875
0.027392578124999997
1.1625732421875
0.8225830078124999
1.0634765625
1.9311767578124999
2.98095703125
3.0284912109374997
3.0244628906249997
2.0536376953124997
1.6306640625
1.316455078125
1.3825195312499998
1.1375976562499999
1.2624755859374999
1.2689208984375
1.147265625
1.3100097656249998
1.3140380859374998
1.3011474609375
1.2592529296875
3.01962890625
3.01962890625
2.0810302734375
2.2389404296874997
1.957763671875
0.9410156249999999
0.11440429687499999
0.022558593749999998
0.022558593749999998
0.022558593749999998
0.269091796875
0.5083740234374999
0.5389892578125
0.9015380859375
1.3237060546875
1.4590576171874998
1.4993408203124998
1.4977294921875
1.5122314453124999
1.5033691406249998
1.442138671875
0.022558593749999998
0.0169189453125
1.3019531249999998
1.1778808593749999
1.1867431640625
2.035107421875
2.7336181640625
3.021240234375
3.0244628906249997
2.418603515625
1.8715576171875
1.5541259765625
1.4791992187499998
1.5202880859374999
1.5267333984375
1.4977294921875
1.45341796875
1.4993408203124998
1.5025634765625
1.477587890625
1.4107177734374998
1.6169677734374999
3.02607421875
2.5201171875
2.102783203125
2.3178955078125
1.5944091796875
0.34482421874999997
0.023364257812499997
0.023364257812499997
0.0169189453125
0.3714111328125
0.5760498046875
0.7903564453124999
1.06025390625
1.4783935546875
1.5541259765625
1.6540283203125
1.6218017578125
1.6072998046875
1.5944091796875
1.506591796875
1.3929931640625
0.019335937499999997
1.380908203125
1.3220947265624998
1.1819091796874999
1.574267578125
2.60068359375
3.0284912109374997
3.0228515624999996
2.450830078125
1.9754882812499999
1.73056640625
1.574267578125
1.65
1.53076171875
1.461474609375
1.4961181640624999
1.4880615234374999
1.5090087890625
1.493701171875
1.461474609375
1.4848388671875
3.02607421875
2.5974609374999997
2.1986572265624997
2.2808349609375
1.7619873046874999
0.9893554687499999
0.019335937499999997
0.024169921875
0.020947265625
0.3391845703125
0.5728271484374999
0.9128173828124999
0.881396484375
1.405078125
1.5573486328125
1.6072998046875
1.651611328125
1.6379150390625
1.6121337890624998
1.5984375
1.5017578125
0.023364257812499997
0.0201416015625
1.7120361328125
1.2834228515625
1.53076171875
2.276806640625
3.029296875
3.0244628906249997
2.560400390625
2.03671875
1.6636962890625
1.5492919921875
1.722509765625
1.5782958984375
1.5815185546875
1.5275390624999998
1.482421875
1.5170654296875
1.5364013671874999
1.4953124999999998
1.4977294921875
3.0244628906249997
3.043798828125
2.1245361328125
2.2534423828125
1.9625976562499998
0.9974121093749999
0.0217529296875
0.022558593749999998
0.027392578124999997
0.29648437499999997
0.59619140625
0.8644775390624999
0.9095947265625
1.45341796875
1.5267333984375
1.6185791015625
1.6725585937499998
1.6475830078125
1.6645019531249998
1.6725585937499998
1.606494140625
0.020947265625
0.023364257812499997
1.60166015625
1.2785888671874999
1.4373046875
2.2953369140624997
3.0252685546875
3.0268798828124996
2.9181152343749996
2.0600830078125
1.7845458984375
1.5791015625
1.6540283203125
1.4928955078125
1.64677734375
1.5573486328125
1.5251220703125
1.5444580078124999
1.5517089843749998
1.490478515625
1.490478515625
1.78857421875
3.0204345703124997
2.0439697265625
2.015771484375
1.9513183593749999
1.0642822265625
0.40927734374999997
0.023364257812499997
0.020947265625
0.02578125
0.5422119140625
0.7758544921874999
0.9732421874999999
1.2020507812499999
1.4888671875
1.6435546875
1.6403320312499998
1.690283203125
1.6588623046875
1.6781982421875
1.6379150390625
1.0932861328124999
0.023364257812499997
1.4961181640624999
1.3712402343749999
1.3011474609375
2.0036865234375
2.6458007812499997
3.0244628906249997
3.0252685546875
2.3662353515625
1.9650146484375
1.6532226562499999
1.60166015625
1.6862548828125
1.6000488281249998
1.5686279296874999
1.5404296874999999
1.5541259765625
1.5686279296874999
1.5396240234374998
1.5057861328125
1.546875
3.0252685546875
2.437939453125
1.9859619140625
2.2598876953125
1.6773925781249999
0.9966064453125
0.022558593749999998
0.022558593749999998
0.023364257812499997
0.47453613281249996
0.760546875
0.9796874999999999
0.8789794921874999
1.4413330078125
1.6129394531249999
1.7072021484375
1.7088134765624998
1.65966796875
1.6411376953124999
1.6089111328124999
1.5283447265624999
0.02578125
0.5776611328125
1.3978271484375
1.2866455078124999
1.5412353515625
2.43310546875
3.0252685546875
3.0252685546875
2.6659423828124997
2.0093261718749997
1.7297607421874999
1.6008544921874999
1.6975341796874999
1.56298828125
1.5976318359375
1.545263671875
1.5243164062499999
1.52109375
1.5194824218749998
1.4961181640624999
1.4880615234374999
3.0309082031249996
2.711865234375
2.05927734375
2.1503173828124997
1.8087158203125
1.07958984375
0.022558593749999998
0.018530273437499998
0.02578125
0.388330078125
0.69287109375
1.0288330078124999
0.9651855468749999
1.48564453125
1.5355957031249998
1.6475830078125
1.6886718749999998
1.6475830078125
1.6443603515624998
1.61455078125
1.574267578125
0.023364257812499997
0.153076171875
1.533984375
1.2028564453125
1.4268310546874998
2.2107421874999997
2.9495361328125
3.0252685546875
2.8456054687499996
2.1889892578125
1.8908935546874999
1.651611328125
1.740234375
1.4872558593749998
1.5589599609375
1.5645996093749999
1.5404296874999999
1.4993408203124998
1.55009765625
1.5436523437499998
1.5444580078124999
3.02607421875
3.0228515624999996
1.9585693359374998
2.20107421875
1.9730712890625
1.0489746093749999
0.017724609375
0.02578125
0.026586914062499998
0.0717041015625
0.613916015625
0.9232910156249999
1.0376953125
1.4026611328124998
1.5605712890624999
1.6314697265625
1.6395263671875
1.6346923828125
1.5968261718749999
1.6048828124999999
1.533984375
0.022558593749999998
0.0281982421875
1.490478515625
1.2157470703125
1.3229003906249999
2.0415527343749997
2.840771484375
3.0252685546875
3.02607421875
2.20107421875
1.9891845703125
1.6822265625
1.6008544921874999
1.6443603515624998
1.6411376953124999
1.58232421875
1.4767822265625
1.542041015625
1.542041015625
1.5146484375
1.513037109375
1.4953124999999998
3.0301025390625
2.0552490234375
1.972265625
2.1865722656249997
1.2205810546875
0.533349609375
0.026586914062499998
0.022558593749999998
0.0249755859375
0.507568359375
0.7516845703124999
1.045751953125
1.071533203125
1.4518066406249999
1.6443603515624998
1.6725585937499998
1.714453125
1.6403320312499998
1.674169921875
1.6314697265625
1.5670166015625
0.023364257812499997
1.400244140625
1.3728515625
1.1545166015625
1.8981445312499998
2.4419677734375
3.0244628906249997
3.02607421875
2.457275390625
2.0085205078125
1.6878662109375
1.619384765625
1.7047851562499998
1.6459716796875
1.5984375
1.56943359375
1.554931640625
1.55009765625
1.4840332031249999
1.4945068359375
1.4687255859375
3.029296875
2.6135742187499997
2.0616943359374997
2.2107421874999997
1.80791015625
1.045751953125
0.023364257812499997
0.019335937499999997
0.023364257812499997
0.36416015625
0.7452392578125
1.0376953125
0.9144287109375
1.493701171875
1.6177734375
1.6588623046875
1.6266357421875
1.6322753906249998
1.6266357421875
1.638720703125
1.53076171875
0.0201416015625
0.2296142578125
1.3905761718749998
1.2608642578125
1.5057861328125
2.2341064453125
3.0244628906249997
3.0244628906249997
2.82626953125
2.131787109375
1.8046875
1.609716796875
1.6886718749999998
1.5791015625
1.561376953125
1.4840332031249999
1.546875
1.5525146484374999
1.5799072265624998
1.52109375
1.50498046875
3.0204345703124997
2.9205322265625
2.038330078125
2.2099365234375
1.4840332031249999
0.8104980468749999
0.023364257812499997
0.022558593749999998
0.022558593749999998
0.307763671875
0.7081787109375
0.9869384765625
1.0948974609375
1.53720703125
1.6669189453125
1.7136474609374999
1.6951171875
1.4437499999999999
1.5863525390625
1.58232421875
1.5517089843749998
0.019335937499999997
0.0217529296875
1.345458984375
1.155322265625
1.4236083984374999
2.24619140625
2.9116699218749997
3.0244628906249997
2.9543701171874996
2.255859375
1.9650146484375
1.714453125
1.7724609375
1.6886718749999998
1.6669189453125
1.6056884765625
1.5734619140625
1.5428466796875
1.5492919921875
1.5460693359375
1.49853515625
3.0252685546875
3.021240234375
2.096337890625
2.1470947265625
1.9835449218749999
1.2262207031249999
0.578466796875
0.0217529296875
0.0249755859375
0.0314208984375
0.6332519531249999
0.91845703125
1.0658935546875
1.2125244140625
1.506591796875
1.622607421875
1.6459716796875
1.6572509765624999
1.6403320312499998
1.6161621093749998
1.585546875
0.022558593749999998
0.022558593749999998
1.3261230468749998
1.2665039062499999
1.2350830078125
1.8046875
2.7328124999999996
3.0301025390625
3.029296875
2.495947265625
1.93359375
1.7080078125
1.5976318359375
1.5911865234375
1.6000488281249998
1.5847412109374999
1.542041015625
1.5476806640624998
1.5557373046874998
1.5275390624999998
1.5331787109375
1.4332763671875
3.029296875
2.1857666015625
2.0085205078125
2.1809326171875
1.3067871093749999
0.597802734375
0.024169921875
0.018530273437499998
0.022558593749999998
0.5035400390625
0.781494140625
1.05380859375
1.14404296875
1.4493896484375
1.611328125
1.6604736328124998
1.735400390625
1.6564453124999998
1.651611328125
1.603271484375
1.571044921875
0.0201416015625
1.15693359375
1.31162109375
1.1706298828125
1.6959228515625
2.247802734375
3.02607421875
3.02607421875
2.5467041015625
2.144677734375
1.812744140625
1.6411376953124999
1.7764892578125
1.6773925781249999
1.6250244140624999
1.5621826171875
1.50498046875
1.525927734375
1.509814453125
1.5057861328125
1.4542236328125
3.0252685546875
2.8617187499999996
2.0278564453125
2.19140625
1.8054931640624998
1.08603515625
0.0217529296875
0.024169921875
0.026586914062499998
0.32468261718749997
0.733154296875
0.97001953125
1.0094970703125
1.4187744140624998
1.5919921874999998
1.638720703125
1.7088134765624998
1.6201904296874998
1.5726562499999999
1.6250244140624999
1.56298828125
0.0249755859375
0.042700195312499994
1.397021484375
1.15693359375
1.4139404296875
2.263916015625
3.0244628906249997
3.0252685546875
2.9906249999999996
2.3146728515625
1.8143554687499999
1.6153564453125
1.6733642578124999
1.65966796875
1.6822265625
1.587158203125
1.490478515625
1.5331787109375
1.5436523437499998
1.4953124999999998
1.4622802734375
3.0252685546875
3.0244628906249997
1.9698486328125
2.1624023437499997
1.9843505859375
1.029638671875
0.17724609375
0.023364257812499997
0.020947265625
0.191748046875
0.6195556640625
0.9007324218749999
0.9788818359375
1.3599609375
1.5484863281249999
1.6379150390625
1.6483886718749998
1.641943359375
1.6137451171875
1.6048828124999999
1.6322753906249998
0.02578125
0.023364257812499997
1.3349853515624999
1.2536132812499998
1.224609375
2.1680419921875
2.69091796875
3.027685546875
3.02607421875
2.3138671875
1.9529296875
1.703173828125
1.61455078125
1.622607421875
1.6234130859375
1.577490234375
1.58232421875
1.5001464843749999
1.5380126953125
1.5662109375
1.5186767578125
1.4791992187499998
3.0252685546875
2.135009765625
1.973876953125
2.0133544921874997
1.32451171875
0.6485595703125
0.023364257812499997
0.023364257812499997
0.0249755859375
0.5124023437499999
0.878173828125
1.0368896484374999
1.0626708984375
1.3817138671875
1.6524169921874998
1.6943115234375
1.7007568359374998
1.6620849609375
1.6266357421875
1.6290527343749999
0.0249755859375
0.023364257812499997
1.1706298828125
1.2238037109375
1.219775390625
1.7845458984375
2.247802734375
3.0268798828124996
3.02607421875
2.5475097656249996
2.0778076171874997
1.7539306640624999
1.611328125
1.7176757812499999
1.5847412109374999
1.6081054687499998
1.5589599609375
1.5396240234374998
1.5718505859374998
1.5218994140625
1.577490234375
1.49853515625
3.0244628906249997
2.8149902343749997
2.035107421875
2.11728515625
1.8119384765625
0.7677978515624999
0.024169921875
0.022558593749999998
0.020947265625
0.526904296875
0.758935546875
1.026416015625
1.0489746093749999
1.43408203125
1.5863525390625
1.5863525390625
1.687060546875
1.6435546875
1.6209960937499999
1.6290527343749999
1.546875
0.022558593749999998
0.130517578125
1.3962158203125
1.21171875
1.3752685546874999
2.112451171875
3.0244628906249997
3.0252685546875
2.5934326171874997
2.10439453125
1.8103271484374999
1.6403320312499998
1.7442626953125
1.6040771484374998
1.5944091796875
1.558154296875
1.5275390624999998
1.5235107421874998
1.5436523437499998
1.5073974609374998
1.4953124999999998
3.029296875
2.9994873046875
1.944873046875
2.1503173828124997
1.8240234375
1.0449462890624999
0.18691406249999998
0.024169921875
0.0249755859375
0.275537109375
0.58974609375
0.9627685546875
0.974853515625
1.3365966796875
1.6081054687499998
1.6532226562499999
1.716064453125
1.6959228515625
1.6048828124999999
1.6306640625
1.587158203125
0.02578125
0.020947265625
1.3253173828125
1.2576416015624998
1.458251953125
2.2324951171875
2.7328124999999996
3.0244628906249997
3.0284912109374997
2.3009765625
1.8554443359375
1.6403320312499998
1.667724609375
1.6451660156249999
1.6000488281249998
1.5533203125
1.545263671875
1.525927734375
1.5154541015624998
1.4816162109375
1.5347900390625
3.0236572265625
3.02607421875
2.1938232421875
2.0794189453125
1.98515625
1.2906738281249999
0.3359619140625
0.022558593749999998
0.020947265625
0.0281982421875
0.6050537109374999
0.8838134765625
1.084423828125
1.3269287109374999
1.5396240234374998
1.5799072265624998
1.6781982421875
1.6379150390625
1.6129394531249999
1.625830078125
1.5509033203125
0.023364257812499997
0.02578125
1.3833251953124999
1.2624755859374999
1.2399169921875
1.7732666015624998
2.6643310546874996
3.0252685546875
3.0317138671875
2.3315917968749997
1.9585693359374998
1.74345703125
1.6427490234375
1.651611328125
1.6242187499999998
1.6089111328124999
1.5243164062499999
1.5299560546875
1.5686279296874999
1.533984375
1.5347900390625
1.5315673828124998
3.0236572265625
2.2002685546875
2.0165771484375
2.157568359375
1.4026611328124998
0.7927734375
0.022558593749999998
0.023364257812499997
0.023364257812499997
0.47453613281249996
0.7549072265625
1.0111083984375
1.0610595703124999
1.4671142578124998
1.6306640625
1.674169921875
1.6894775390624999
1.6161621093749998
1.5984375
1.5968261718749999
1.585546875
0.026586914062499998
1.0803955078125
1.3470703124999999
1.1722412109375
1.5670166015625
2.2026855468749997
3.0236572265625
3.0301025390625
2.5636230468749996
2.1035888671875
1.7571533203124998
1.5879638671874998
1.7458740234374999
1.611328125
1.6250244140624999
1.5807128906249999
1.5355957031249998
1.5766845703124999
1.4888671875
1.525927734375
1.5017578125
3.0236572265625
2.9825683593749996
1.9352050781249999
2.1462890624999997
1.84013671875
1.0626708984375
0.0217529296875
0.020947265625
0.0217529296875
0.28842773437499997
0.7073730468749999
0.9796874999999999
0.93779296875
1.4364990234375
1.5799072265624998
1.6250244140624999
1.6483886718749998
1.641943359375
1.6290527343749999
1.619384765625
1.5509033203125
0.027392578124999997
0.026586914062499998
1.4203857421875
1.18916015625
1.4461669921875
2.2083251953125
3.0268798828124996
3.0268798828124996
3.0236572265625
2.1809326171875
1.8715576171875
1.6765869140624998
1.796630859375
1.635498046875
1.6129394531249999
1.56943359375
1.4993408203124998
1.509814453125
1.5492919921875
1.5017578125
1.4945068359375
3.02607421875
3.0252685546875
1.9658203125
2.1277587890625
1.9859619140625
1.007080078125
0.3359619140625
0.02578125
0.0281982421875
0.2441162109375
0.5841064453125
0.862060546875
0.9812988281249999
1.3382080078124998
1.5492919921875
1.5887695312499999
1.6862548828125
1.6346923828125
1.6081054687499998
1.6153564453125
1.5460693359375
0.022558593749999998
0.0201416015625
1.3333740234375
1.24072265625
1.405078125
2.164013671875
2.6377441406249997
3.021240234375
3.02607421875
2.34931640625
1.9859619140625
1.6943115234375
1.6330810546874999
1.6314697265625
1.5984375
1.5654052734375
1.5202880859374999
1.5331787109375
1.5364013671874999
1.529150390625
1.5017578125
2.657080078125
3.0244628906249997
2.144677734375
2.012548828125
2.11728515625
1.3688232421875
0.7001220703125
0.022558593749999998
0.023364257812499997
0.020947265625
0.5341552734375
0.8032470703125
1.0505859375
1.09892578125
1.5476806640624998
1.6314697265625
1.6459716796875
1.6540283203125
1.6129394531249999
1.6177734375
1.6177734375
0.4833984375
0.019335937499999997
1.0973144531249999
1.26328125
1.1617675781249999
1.658056640625
2.173681640625
3.0244628906249997
3.0301025390625
2.608740234375
2.0109375
1.7611816406249998
1.6314697265625
1.6636962890625
1.6056884765625
1.5670166015625
1.574267578125
1.52109375
1.5637939453124998
1.5557373046874998
1.5428466796875
1.5090087890625
3.021240234375
2.3130615234375
2.10439453125
2.1615966796875
1.869140625
0.865283203125
0.024169921875
0.0217529296875
0.026586914062499998
0.410888671875
0.6598388671875
0.9627685546875
1.106982421875
1.4308593749999998
1.5484863281249999
1.6000488281249998
1.6322753906249998
1.6250244140624999
1.6443603515624998
1.6081054687499998
1.5533203125
0.02578125
0.9627685546875
1.3269287109374999
1.1053710937499999
1.5315673828124998
2.0568603515625
3.0236572265625
3.0236572265625
2.6441894531249996
2.1889892578125
1.8667236328124999
1.6201904296874998
1.740234375
1.587158203125
1.6322753906249998
1.5895751953125
1.5315673828124998
1.5750732421875
1.5533203125
1.513037109375
1.5009521484375
3.0236572265625
3.0268798828124996
2.0052978515624997
2.160791015625
1.8659179687499998
0.9966064453125
0.31662597656249997
0.022558593749999998
0.0249755859375
0.23928222656249998
0.7178466796874999
0.9837158203124999
0.961962890625
1.2947021484374999
1.5758789062499998
1.6250244140624999
1.74345703125
1.6379150390625
1.6185791015625
1.5992431640625
1.5460693359375
0.0217529296875
0.0217529296875
1.297119140625
1.17626953125
1.4228027343749998
2.1382324218749997
3.0091552734375
3.0244628906249997
3.0236572265625
2.357373046875
1.9311767578124999
1.6943115234375
1.6927001953124998
1.5428466796875
1.6048828124999999
1.5645996093749999
1.509814453125
1.5815185546875
1.5194824218749998
1.5162597656249999
1.490478515625
2.843994140625
3.0252685546875
2.02060546875
2.0334960937499997
2.0657226562499997
1.0248046874999999
0.4713134765625
0.0217529296875
0.0169189453125
0.17644042968749998
0.5406005859374999
0.8016357421875
0.9708251953125
1.2963134765625
1.5662109375
1.6218017578125
1.6451660156249999
1.62744140625
1.6056884765625
1.6153564453125
1.5782958984375
0.35126953125
0.023364257812499997
1.3607666015625
1.2205810546875
1.147265625
2.0310791015625
2.5241455078125
3.0236572265625
3.0284912109374997
2.4065185546875
2.0681396484375
1.77890625
1.6443603515624998
1.6830322265625
1.6234130859375
1.5782958984375
1.5734619140625
1.5283447265624999
1.5396240234374998
1.5412353515625
1.52109375
1.4671142578124998
3.0252685546875
2.3243408203125
2.0947265625
2.1052001953125
1.4348876953124998
0.8306396484374999
0.023364257812499997
0.0217529296875
0.02578125
0.4761474609375
0.8451416015625
1.0191650390625
1.074755859375
1.5331787109375
1.6089111328124999
1.6822265625
1.6266357421875
1.5911865234375
1.5734619140625
1.6081054687499998
1.2101074218749999
0.023364257812499997
0.98291015625
1.319677734375
1.095703125
1.4840332031249999
2.1229248046875
3.027685546875
3.027685546875
2.695751953125
2.0858642578124997
1.819189453125
1.7345947265625
1.75634765625
1.6056884765625
1.590380859375
1.5525146484374999
1.5082031249999999
1.5678222656249998
1.5323730468749999
1.5041748046874999
1.506591796875
3.02607421875
3.0244628906249997
2.1116455078125
2.1591796875
1.8635009765625
0.9861328125
0.019335937499999997
0.023364257812499997
0.022558593749999998
0.45761718749999997
0.7420166015624999
0.9716308593749999
1.0465576171875
1.4912841796874998
1.546875
1.6411376953124999
1.6346923828125
1.6024658203125
1.606494140625
1.6411376953124999
1.5380126953125
0.019335937499999997
0.7839111328124999
1.3801025390625
1.1609619140625
1.364794921875
2.0842529296875
3.02607421875
3.0252685546875
2.68125
2.222021484375
1.912646484375
1.6781982421875
1.7531249999999998
1.574267578125
1.62744140625
1.513037109375
1.509814453125
1.585546875
1.5573486328125
1.5645996093749999
1.5041748046874999
3.0244628906249997
3.0301025390625
1.96904296875
2.1342041015624997
1.8892822265625
1.0570312499999999
0.4447265625
0.022558593749999998
0.022558593749999998
0.19899902343749998
0.578466796875
0.8983154296875
0.9869384765625
1.33740234375
1.5702392578125
1.6878662109375
1.6604736328124998
1.6314697265625
1.638720703125
1.6379150390625
1.571044921875
0.023364257812499997
0.020947265625
1.348681640625
1.0981201171875
1.35673828125
2.044775390625
2.5152832031249996
3.0244628906249997
3.0220458984375
2.3783203125
1.9432617187499999
1.7015624999999999
1.6306640625
1.4655029296875
1.5782958984375
1.5670166015625
1.5517089843749998
1.5815185546875
1.5557373046874998
1.5476806640624998
1.5170654296875
2.0020751953125
3.029296875
2.0906982421875
2.03671875
2.1205078125
1.4445556640625
0.5728271484374999
0.0217529296875
0.0217529296875
0.15791015625
0.6131103515624999
0.8354736328125
1.0352783203125
1.2802001953125
1.480810546875
1.5976318359375
1.6306640625
1.6620849609375
1.6459716796875
1.5992431640625
1.6024658203125
1.152099609375
0.022558593749999998
1.313232421875
1.2044677734375
1.1561279296875
1.9182861328124998
2.49755859375
3.0252685546875
3.0188232421874996
2.4202148437499997
2.0987548828125
1.8224121093749999
1.6129394531249999
1.66611328125
1.5831298828125
1.5645996093749999
1.5541259765625
1.56943359375
1.5605712890624999
1.5533203125
1.5122314453124999
1.4848388671875
3.0244628906249997
2.4298828125
2.1293701171875
2.0923095703125
1.6008544921874999
0.920068359375
0.023364257812499997
0.022558593749999998
0.024169921875
0.39719238281249997
0.710595703125
1.039306640625
1.068310546875
1.4542236328125
1.5887695312499999
1.6443603515624998
1.6524169921874998
1.6209960937499999
1.667724609375
1.6282470703124998
1.6040771484374998
0.023364257812499997
0.8177490234375
1.351904296875
1.0497802734375
1.4590576171874998
2.1229248046875
3.0228515624999996
3.0236572265625
2.7207275390624996
2.1978515625
1.7740722656249999
1.6282470703124998
1.8022705078124999
1.654833984375
1.6306640625
1.5404296874999999
1.53720703125
1.529150390625
1.5517089843749998
1.52109375
1.4888671875
3.0236572265625
3.027685546875
2.11083984375
2.14951171875
1.8498046874999998
1.05380859375
0.023364257812499997
0.0201416015625
0.0169189453125
0.4278076171875
0.736376953125
0.9450439453124999
1.013525390625
1.477587890625
1.545263671875
1.6218017578125
1.6451660156249999
1.6008544921874999
1.509814453125
1.641943359375
1.5678222656249998
0.018530273437499998
0.0217529296875
1.297119140625
1.0594482421875
1.2979248046874998
2.2002685546875
2.8552734374999997
3.02607421875
3.0252685546875
2.2469970703124997
1.9231201171874999
1.73056640625
1.72412109375
1.5162597656249999
1.6137451171875
1.571044921875
1.5323730468749999
1.5726562499999999
1.5670166015625
1.5041748046874999
1.5114257812499998
2.10439453125
3.0268798828124996
2.0262451171875
2.08505859375
1.869140625
1.0836181640625
0.543017578125
0.020947265625
0.02900390625
0.20463867187499998
0.6082763671875
0.994189453125
1.0409179687499999
1.2656982421874998
1.5202880859374999
1.6250244140624999
1.6508056640625
1.6395263671875
1.5863525390625
1.5791015625
1.590380859375
0.022558593749999998
0.023364257812499997
1.2826171874999999
1.1448486328125
1.268115234375
1.9440673828125
2.5112548828124996
3.0252685546875
3.02607421875
2.457275390625
2.0568603515625
1.7370117187499998
1.6242187499999998
1.674169921875
1.6612792968749999
1.59521484375
1.5815185546875
1.5444580078124999
1.5621826171875
1.5355957031249998
1.506591796875
1.5090087890625
3.0381591796875
2.43955078125
1.989990234375
2.1301757812499997
1.6161621093749998
0.6195556640625
0.026586914062499998
0.02578125
0.018530273437499998
0.562353515625
0.7669921875
1.0320556640625
1.2181640624999999
1.5194824218749998
1.6137451171875
1.6209960937499999
1.6322753906249998
1.6137451171875
1.6161621093749998
1.561376953125
1.522705078125
0.0217529296875
0.7782714843749999
1.1641845703125
1.0852294921874999
1.4364990234375
2.40732421875
3.0204345703124997
3.0228515624999996
2.7126708984374996
2.1197021484375
1.8199951171875
1.6532226562499999
1.7168701171874998
1.6290527343749999
1.654833984375
1.5637939453124998
1.5573486328125
1.545263671875
1.5766845703124999
1.529150390625
1.490478515625
3.021240234375
2.5660400390625
2.101171875
2.1333984375
1.6910888671875
1.095703125
0.024169921875
0.0217529296875
0.022558593749999998
0.43425292968749996
0.7154296874999999
1.02158203125
1.0239990234375
1.5082031249999999
1.56298828125
1.6435546875
1.667724609375
1.6282470703124998
1.585546875
1.6266357421875
1.5645996093749999
0.022558593749999998
0.5873291015625
1.2898681640624998
1.1295410156249999
1.3204833984375
2.11083984375
2.8335205078124996
