1.47275390625
0.023364257812499997
0.023364257812499997
0.023364257812499997
0.5736328125
0.4640625
1.7281494140625
2.410546875
3.027685546875
3.02607421875
2.7972656249999996
2.5458984375
2.3203125
2.2026855468749997
2.3203125
2.334814453125
2.11728515625
1.9553466796874999
1.8780029296874998
1.8393310546875
1.7539306640624999
1.6137451171875
1.6153564453125
3.0268798828124996
3.0244628906249997
2.5289794921874997
2.9495361328125
2.3726806640625
1.3712402343749999
0.018530273437499998
0.02900390625
0.023364257812499997
0.09345703124999999
0.1957763671875
0.38671875
0.20705566406249998
0.881396484375
1.071533203125
1.2858398437499998
1.409912109375
1.4203857421875
1.4993408203124998
1.5436523437499998
1.4195800781249999
0.023364257812499997
0.0249755859375
0.6791748046874999
0.48662109374999996
0.8999267578125
1.748291015625
3.0236572265625
3.021240234375
3.0252685546875
2.52978515625
2.3952392578125
2.23330078125
2.26875
2.16884765625
2.165625
2.0052978515624997
1.8780029296874998
1.8522216796875
1.7934082031249998
1.6910888671875
1.65966796875
3.0228515624999996
3.02607421875
2.5885986328125
2.8947509765625
2.6103515625
1.56943359375
0.022558593749999998
0.023364257812499997
0.026586914062499998
0.0201416015625
0.0652587890625
0.3101806640625
0.1200439453125
0.8902587890625
0.9837158203124999
1.2834228515625
1.3873535156249999
1.4872558593749998
1.4711425781249998
1.5122314453124999
1.474365234375
0.0249755859375
0.0201416015625
0.8129150390625
0.5124023437499999
0.6598388671875
1.864306640625
3.011572265625
3.0236572265625
3.02607421875
2.616796875
2.521728515625
2.2711669921874997
2.2550537109374997
2.0471923828125
2.2494140625
2.0334960937499997
1.8707519531249999
1.8860595703124998
1.8135498046874998
1.7080078125
1.6636962890625
3.02607421875
3.0268798828124996
2.4298828125
2.6417724609374997
2.6876953125
1.6121337890624998
0.6767578125
0.022558593749999998
0.024169921875
0.022558593749999998
0.08137207031249999
0.2747314453125
0.37302246093749997
0.5969970703124999
0.9418212890625
1.181103515625
1.3510986328124999
1.4244140625
1.474365234375
1.5218994140625
1.5162597656249999
0.023364257812499997
0.022558593749999998
0.023364257812499997
0.5551025390625
0.5365722656249999
1.3801025390625
2.2623046875
3.0244628906249997
3.029296875
2.8593017578124997
2.47177734375
2.2905029296875
2.22041015625
2.2083251953125
2.2131591796875
2.102783203125
1.957763671875
1.8659179687499998
1.8264404296874999
1.7394287109375
1.6653076171874999
1.63388671875
3.0204345703124997
2.5015869140625
2.534619140625
2.9688720703125
2.373486328125
0.8209716796875
0.020947265625
0.022558593749999998
0.026586914062499998
0.0966796875
0.2344482421875
0.36496582031249997
0.515625
0.8870361328124999
1.069921875
1.3309570312499999
1.4469726562499998
1.46630859375
1.5017578125
1.5057861328125
1.413134765625
0.023364257812499997
0.023364257812499997
0.700927734375
0.572021484375
0.8612548828125
2.0979492187499997
3.0284912109374997
3.021240234375
2.947119140625
2.5587890625
2.373486328125
2.180126953125
2.3372314453125
2.1865722656249997
2.1406494140625
1.9682373046875
1.8780029296874998
1.832080078125
1.7410400390624998
1.6951171875
1.6427490234375
3.0244628906249997
3.0268798828124996
2.582958984375
2.8399658203125
2.5515380859374996
1.6298583984375
0.0201416015625
0.022558593749999998
0.022558593749999998
0.0217529296875
0.10231933593749999
0.37060546875
0.12568359375
0.8370849609375
1.0256103515625
1.2624755859374999
1.4381103515625
1.4389160156249998
1.474365234375
1.5114257812499998
1.4783935546875
0.027392578124999997
0.022558593749999998
0.8596435546875
0.6243896484375
0.8548095703124999
1.8884765625
2.9181152343749996
3.0268798828124996
3.0220458984375
2.70380859375
2.383154296875
2.2187988281249997
2.2421630859375
2.0520263671875
2.1333984375
2.0302734375
1.8747802734374999
1.843359375
1.80791015625
1.7362060546875
1.651611328125
3.0236572265625
3.02607421875
2.4685546874999997
2.8617187499999996
2.68125
1.641943359375
0.026586914062499998
0.023364257812499997
0.023364257812499997
0.022558593749999998
0.069287109375
0.249755859375
0.36577148437499996
0.7130126953125
0.90234375
1.1577392578124999
1.393798828125
1.4187744140624998
1.482421875
1.5138427734375
1.4735595703125
0.02578125
0.022558593749999998
0.752490234375
0.5905517578125
0.530126953125
1.4236083984374999
2.7021972656249997
3.0252685546875
3.02607421875
2.7134765625
2.5386474609375
2.3074218749999997
2.173681640625
2.18818359375
2.2131591796875
2.0737792968749997
1.8707519531249999
1.8489990234375
1.832080078125
1.738623046875
1.670947265625
1.5968261718749999
3.02607421875
2.513671875
2.4999755859375
2.9680664062499997
1.7861572265624999
0.7943847656249999
0.0249755859375
0.022558593749999998
0.022558593749999998
0.09990234375
0.15227050781249998
0.37060546875
0.5083740234374999
0.8741455078125
1.0787841796875
1.3156494140625
1.4413330078125
1.4284423828125
1.474365234375
1.509814453125
1.4445556640625
0.023364257812499997
0.0169189453125
0.64453125
0.5277099609375
1.361572265625
2.0947265625
3.0244628906249997
3.027685546875
2.98740234375
2.537841796875
2.3807373046875
2.1809326171875
2.3050048828125
2.222021484375
2.125341796875
1.9529296875
1.8707519531249999
1.8280517578125
1.740234375
1.6781982421875
1.6532226562499999
3.0268798828124996
3.0252685546875
2.55234375
2.9253662109375
2.566845703125
1.6024658203125
0.0281982421875
0.02578125
0.023364257812499997
0.019335937499999997
0.19899902343749998
0.3794677734375
0.2135009765625
0.928125
1.0433349609375
1.2640869140625
1.3962158203125
1.4195800781249999
1.4945068359375
1.5404296874999999
1.4550292968749998
0.022558593749999998
0.023364257812499997
0.8161376953124999
0.5534912109375
0.807275390625
1.8796142578125
3.0220458984375
3.0244628906249997
3.0317138671875
2.6530517578125
2.4016845703125
2.2405517578125
2.2647216796875
2.1865722656249997
2.1277587890625
1.96904296875
1.85625
1.832080078125
1.7797119140625
1.7136474609374999
1.6532226562499999
3.02607421875
3.0244628906249997
2.4766113281249997
2.8995849609374997
2.6836669921875
1.554931640625
0.059619140625
0.0249755859375
0.022558593749999998
0.023364257812499997
0.1264892578125
0.281982421875
0.20061035156249998
0.652587890625
0.9063720703125
1.1859374999999999
1.4219970703125
1.405078125
1.4445556640625
1.5275390624999998
1.5001464843749999
0.022558593749999998
0.0169189453125
0.7943847656249999
0.6171386718749999
0.523681640625
1.8715576171875
2.7094482421875
3.0252685546875
3.0252685546875
2.6707763671875
2.487890625
2.26552734375
2.199462890625
2.167236328125
2.193017578125
2.018994140625
1.8949218749999999
1.8699462890624998
1.8498046874999998
1.7120361328125
1.6765869140624998
1.64677734375
3.0244628906249997
2.4991699218749996
2.5595947265624996
2.8238525390625
1.7692382812499998
0.8225830078124999
0.024169921875
0.020947265625
0.023364257812499997
0.08620605468749999
0.249755859375
0.3955810546875
0.50595703125
0.85400390625
1.147265625
1.3204833984375
1.43408203125
1.4332763671875
1.445361328125
1.509814453125
0.0217529296875
0.0249755859375
0.022558593749999998
0.7017333984374999
0.5228759765625
1.1964111328125
1.9746826171874998
3.0244628906249997
3.0244628906249997
3.021240234375
2.5885986328125
2.3235351562499997
2.2171875
2.3033935546874997
2.165625
2.0923095703125
1.9343994140624998
1.85625
1.8280517578125
1.7595703125
1.6886718749999998
1.6330810546874999
3.0252685546875
3.0268798828124996
2.592626953125
2.914892578125
2.608740234375
1.622607421875
0.023364257812499997
0.022558593749999998
0.01611328125
0.0733154296875
0.1611328125
0.3424072265625
0.23122558593749998
0.797607421875
1.0803955078125
1.24072265625
1.409912109375
1.4284423828125
1.4832275390624998
1.5364013671874999
1.4493896484375
0.0201416015625
0.023364257812499997
0.8048583984375
0.523681640625
0.8322509765624999
1.8860595703124998
3.0252685546875
3.02607421875
3.0244628906249997
2.5853759765624997
2.3638183593749997
2.24619140625
2.3267578125
2.2357177734375
2.151123046875
1.9795166015624999
1.8715576171875
1.796630859375
1.767626953125
1.6669189453125
1.63388671875
3.0252685546875
3.0268798828124996
2.431494140625
2.8770263671875
2.682861328125
1.5533203125
0.124072265625
0.0169189453125
0.018530273437499998
0.018530273437499998
0.124072265625
0.31259765624999997
0.259423828125
0.7130126953125
0.9112060546874999
1.2383056640624999
1.4147460937499998
1.4389160156249998
1.490478515625
1.533984375
1.4655029296875
0.0249755859375
0.022558593749999998
0.7395996093749999
0.6131103515624999
0.5889404296874999
1.8304687499999999
2.66513671875
3.02607421875
3.0244628906249997
2.6369384765625
2.4911132812499996
2.23330078125
2.1583740234374997
2.165625
2.23974609375
2.028662109375
1.909423828125
1.8465820312499999
1.8022705078124999
1.7281494140625
1.6685302734374998
3.029296875
3.02607421875
2.50400390625
2.560400390625
2.8447998046875
1.8361083984375
0.8121093749999999
0.0217529296875
0.02578125
0.0217529296875
0.062841796875
0.23283691406249998
0.42941894531249997
0.427001953125
0.8934814453125
1.1384033203125
1.32451171875
1.4356933593749999
1.458251953125
1.5251220703125
1.5992431640625
0.022558593749999998
0.0217529296875
0.020947265625
0.7017333984374999
0.5051513671875
1.2044677734375
1.8796142578125
3.0244628906249997
3.02607421875
2.9720947265624997
2.4814453125
2.27197265625
2.180126953125
2.225244140625
2.209130859375
2.1333984375
1.9634033203124999
1.815966796875
1.8393310546875
1.770849609375
1.6483886718749998
1.6048828124999999
3.0252685546875
2.7827636718749997
2.6659423828124997
2.8850830078125
2.5595947265624996
1.0820068359375
0.023364257812499997
0.018530273437499998
0.027392578124999997
0.030615234374999998
0.116015625
0.31340332031249996
0.33273925781249997
0.7742431640624999
1.0207763671874999
1.3204833984375
1.3857421875
1.448583984375
1.5243164062499999
1.574267578125
1.4816162109375
0.020947265625
0.0249755859375
0.8185546874999999
0.5204589843749999
1.055419921875
1.7531249999999998
3.02607421875
3.0268798828124996
3.0252685546875
2.56845703125
2.3920166015624997
2.151123046875
2.3138671875
2.1777099609375
2.1342041015624997
1.9779052734375
1.8925048828125
1.832080078125
1.7595703125
1.7047851562499998
1.6242187499999998
3.0268798828124996
3.0268798828124996
2.4363281249999997
2.8286865234375
2.56201171875
1.5476806640624998
0.15468749999999998
0.02578125
0.02578125
0.019335937499999997
0.1780517578125
0.35368652343749996
0.307763671875
0.7420166015624999
1.0658935546875
1.255224609375
1.3946044921874998
1.4461669921875
1.4671142578124998
1.5106201171875
1.456640625
0.0217529296875
0.022558593749999998
0.7822998046874999
0.5929687499999999
0.816943359375
1.8393310546875
2.6603027343749996
3.0244628906249997
3.0228515624999996
2.6699707031249997
2.39765625
2.241357421875
2.1744873046874997
2.1519287109375
2.160791015625
2.0375244140624997
1.893310546875
1.8457763671874998
1.7861572265624999
1.716064453125
1.651611328125
3.0252685546875
3.0268798828124996
2.39765625
2.7239501953125
2.8190185546874997
1.8981445312499998
0.4568115234375
0.0217529296875
0.018530273437499998
0.0217529296875
0.0733154296875
0.20061035156249998
0.38913574218749997
0.65419921875
0.9418212890625
1.1384033203125
1.3309570312499999
1.368017578125
1.4284423828125
1.4872558593749998
1.4735595703125
0.017724609375
0.020947265625
0.578466796875
0.7073730468749999
0.5293212890625
1.1931884765625
2.5475097656249996
3.0236572265625
3.0244628906249997
2.7529541015624996
2.5144775390625
2.2872802734374997
2.1970458984375
2.1865722656249997
2.1325927734375
2.0697509765624997
1.8844482421875
1.8175781249999998
1.8135498046874998
1.7466796875
1.674169921875
1.6282470703124998
3.0244628906249997
2.7666503906249997
2.6627197265625
2.9173095703125
2.08828125
1.1335693359374999
0.0249755859375
0.023364257812499997
0.022558593749999998
0.0378662109375
0.169189453125
0.41008300781249996
0.38188476562499996
0.8032470703125
1.13115234375
1.2955078125
1.4058837890625
1.4236083984374999
1.5041748046874999
1.5251220703125
1.445361328125
0.024169921875
0.0217529296875
0.823388671875
0.575244140625
0.961962890625
1.7200927734375
3.0244628906249997
3.0268798828124996
3.0244628906249997
2.6200195312499996
2.370263671875
2.1922119140625
2.3146728515625
2.1583740234374997
2.09150390625
1.9134521484375
1.7958251953125
1.78857421875
1.7410400390624998
1.6717529296875
1.6089111328124999
3.02607421875
3.02607421875
2.408935546875
2.81015625
2.5708740234375
1.522705078125
0.022558593749999998
0.017724609375
0.0201416015625
0.0249755859375
0.120849609375
0.34160156249999996
0.26748046875
0.8644775390624999
1.0006347656249999
1.2310546875
1.3881591796875
1.4397216796874999
1.477587890625
1.5509033203125
1.4800048828124999
0.023364257812499997
0.017724609375
0.8024414062499999
0.6469482421874999
0.8048583984375
1.7926025390625
3.027685546875
3.029296875
3.0284912109374997
2.59423828125
2.389599609375
2.2518310546875
2.176904296875
2.0947265625
2.16884765625
2.0471923828125
1.8248291015625
1.8312744140625
1.7901855468749999
1.67578125
1.6129394531249999
3.0244628906249997
3.0244628906249997
2.5475097656249996
2.9737060546875
3.027685546875
1.7072021484375
0.6695068359374999
0.0201416015625
0.022558593749999998
0.022558593749999998
0.023364257812499997
0.023364257812499997
0.020947265625
0.2360595703125
0.459228515625
0.6453369140624999
0.8950927734374999
1.01513671875
1.0707275390625
1.1996337890625
1.18916015625
0.0217529296875
0.027392578124999997
0.0217529296875
0.022558593749999998
0.022558593749999998
0.022558593749999998
0.8958984375
3.02607421875
3.0252685546875
3.0220458984375
3.02607421875
3.0252685546875
3.02607421875
3.0268798828124996
3.02607421875
3.027685546875
3.02607421875
3.0268798828124996
3.02607421875
3.0268798828124996
3.0244628906249997
3.02607421875
3.0268798828124996
3.0252685546875
3.0075439453125
3.0220458984375
3.0228515624999996
3.029296875
0.0217529296875
0.027392578124999997
0.027392578124999997
0.024169921875
0.023364257812499997
0.024169921875
0.022558593749999998
0.0249755859375
0.023364257812499997
0.018530273437499998
0.023364257812499997
0.022558593749999998
0.020947265625
0.0217529296875
0.019335937499999997
0.0201416015625
0.022558593749999998
0.0217529296875
0.0217529296875
0.023364257812499997
0.022558593749999998
0.033032226562499996
0.026586914062499998
0.023364257812499997
0.022558593749999998
0.024169921875
0.02578125
0.4632568359375
1.2181640624999999
1.8441650390625
2.19140625
2.5821533203125
2.9688720703125
3.0252685546875
3.02607421875
3.02607421875
3.0244628906249997
3.0309082031249996
3.027685546875
3.0309082031249996
3.021240234375
3.02607421875
0.749267578125
0.024169921875
0.022558593749999998
0.022558593749999998
0.022558593749999998
0.022558593749999998
0.022558593749999998
0.022558593749999998
0.0217529296875
0.017724609375
0.0281982421875
0.024169921875
0.027392578124999997
0.0217529296875
0.026586914062499998
0.0217529296875
0.023364257812499997
0.0217529296875
0.026586914062499998
0.018530273437499998
0.02900390625
0.023364257812499997
0.023364257812499997
0.027392578124999997
0.022558593749999998
0.022558593749999998
0.018530273437499998
0.027392578124999997
0.02578125
1.0368896484374999
1.5726562499999999
1.996435546875
2.5491210937499997
2.9011962890625
3.0244628906249997
3.0236572265625
3.0228515624999996
3.02607421875
3.018017578125
3.0252685546875
3.021240234375
3.02607421875
3.0220458984375
0.12810058593749998
0.024169921875
0.022558593749999998
0.023364257812499997
0.022558593749999998
0.018530273437499998
0.0217529296875
0.023364257812499997
0.0201416015625
0.023364257812499997
0.022558593749999998
0.022558593749999998
0.022558593749999998
0.022558593749999998
0.019335937499999997
0.023364257812499997
0.022558593749999998
0.018530273437499998
0.023364257812499997
0.0249755859375
0.024169921875
0.023364257812499997
0.024169921875
0.018530273437499998
0.022558593749999998
0.020947265625
0.020947265625
0.022558593749999998
0.35690917968749997
1.0465576171875
1.5702392578125
2.1221191406249997
2.657080078125
2.98095703125
3.029296875
3.0268798828124996
3.0252685546875
3.0252685546875
3.0188232421874996
3.0252685546875
3.0236572265625
3.0220458984375
1.6959228515625
0.023364257812499997
0.020947265625
0.0217529296875
0.024169921875
0.022558593749999998
0.0201416015625
0.022558593749999998
0.022558593749999998
0.022558593749999998
0.022558593749999998
0.027392578124999997
0.017724609375
0.023364257812499997
0.022558593749999998
0.0281982421875
0.0201416015625
0.0217529296875
0.0249755859375
0.023364257812499997
0.020947265625
0.0217529296875
0.024169921875
0.018530273437499998
0.020947265625
0.024169921875
0.042700195312499994
0.13615722656249998
0.20061035156249998
0.7395996093749999
1.4187744140624998
1.880419921875
2.3791259765625
2.7980712890625
3.0244628906249997
3.02607421875
3.0252685546875
3.027685546875
3.0228515624999996
3.0252685546875
3.018017578125
3.02607421875
3.029296875
3.0252685546875
0.928125
0.0169189453125
0.022558593749999998
0.0281982421875
0.022558593749999998
0.023364257812499997
0.027392578124999997
0.0217529296875
0.0217529296875
0.023364257812499997
0.0217529296875
0.024169921875
0.022558593749999998
0.027392578124999997
0.018530273437499998
0.023364257812499997
0.026586914062499998
0.017724609375
0.045117187499999996
0.1200439453125
0.193359375
0.281982421875
0.34562988281249996
0.399609375
0.472119140625
0.51884765625
0.5744384765625
1.232666015625
1.8143554687499999
2.2550537109374997
2.663525390625
3.0228515624999996
3.0228515624999996
3.027685546875
3.0301025390625
3.01962890625
3.02607421875
3.0188232421874996
3.0220458984375
3.0236572265625
3.0252685546875
3.02607421875
3.0252685546875
1.98837890625
1.02802734375
0.019335937499999997
0.024169921875
0.022558593749999998
0.020947265625
0.0201416015625
0.020947265625
0.020947265625
0.0217529296875
0.024169921875
0.022558593749999998
0.0217529296875
0.024169921875
0.024169921875
0.022558593749999998
0.0217529296875
0.022558593749999998
0.022558593749999998
0.061230468749999996
0.16032714843749998
0.23122558593749998
0.301318359375
0.3843017578125
0.4406982421875
0.49870605468749996
1.2697265624999998
1.91748046875
2.34609375
2.7739013671875
3.027685546875
3.0284912109374997
3.0244628906249997
3.0244628906249997
3.0268798828124996
3.0301025390625
3.0236572265625
3.0244628906249997
3.0244628906249997
3.0244628906249997
3.0252685546875
3.0252685546875
3.02607421875
0.8096923828125
0.024169921875
0.02900390625
0.027392578124999997
0.022558593749999998
0.020947265625
0.0281982421875
0.02900390625
0.022558593749999998
0.0249755859375
0.022558593749999998
0.022558593749999998
0.022558593749999998
0.023364257812499997
0.018530273437499998
0.018530273437499998
0.0217529296875
0.02578125
0.0217529296875
0.091845703125
0.1651611328125
0.259423828125
0.322265625
0.38671875
0.44956054687499997
0.7017333984374999
1.5654052734375
2.0496093749999997
2.5676513671874996
2.9519531249999997
3.0252685546875
3.027685546875
3.0236572265625
3.0244628906249997
3.0220458984375
3.0244628906249997
3.0244628906249997
3.0252685546875
3.027685546875
3.0268798828124996
3.0284912109374997
3.02607421875
0.945849609375
0.019335937499999997
0.022558593749999998
0.022558593749999998
0.024169921875
0.0201416015625
0.022558593749999998
0.0201416015625
0.022558593749999998
0.022558593749999998
0.022558593749999998
0.02578125
0.0281982421875
0.017724609375
0.022558593749999998
0.023364257812499997
0.022558593749999998
0.017724609375
0.03544921875
0.1071533203125
0.182080078125
0.2698974609375
0.3424072265625
0.40283203125
0.476953125
0.5357666015625
1.139208984375
1.8409423828125
2.215576171875
2.6014892578124997
2.9841796874999997
3.0252685546875
3.021240234375
3.02607421875
3.02607421875
3.0268798828124996
3.0244628906249997
3.0204345703124997
3.021240234375
3.0252685546875
3.0188232421874996
3.021240234375
1.29228515625
0.1941650390625
0.019335937499999997
0.023364257812499997
0.02578125
0.0217529296875
0.0217529296875
0.0217529296875
0.026586914062499998
0.022558593749999998
0.024169921875
0.018530273437499998
0.0217529296875
0.027392578124999997
0.017724609375
0.023364257812499997
0.023364257812499997
0.02578125
0.09829101562499999
0.1716064453125
0.265869140625
0.33354492187499996
0.39638671875
0.476953125
0.5277099609375
0.5808837890624999
0.6268066406249999
1.08603515625
1.3897705078125
1.828857421875
2.3807373046875
2.6659423828124997
2.8657470703124996
3.027685546875
3.0244628906249997
3.0236572265625
3.0284912109374997
3.0236572265625
3.0228515624999996
3.021240234375
3.02607421875
3.027685546875
1.5879638671874998
0.38591308593749996
0.023364257812499997
0.02578125
0.022558593749999998
0.023364257812499997
0.022558593749999998
0.022558593749999998
0.0217529296875
0.0169189453125
0.019335937499999997
0.023364257812499997
0.022558593749999998
0.0217529296875
0.037060546874999996
0.0394775390625
0.133740234375
0.20866699218749998
0.2779541015625
0.37060546875
0.43022460937499996
0.49306640625
0.5406005859374999
0.613916015625
0.662255859375
0.7065673828125
0.760546875
1.4518066406249999
1.861083984375
2.26552734375
2.6578857421874997
2.9398681640624997
3.0268798828124996
3.01962890625
3.0236572265625
3.0252685546875
3.0252685546875
3.02607421875
3.02607421875
3.0268798828124996
3.01962890625
3.029296875
3.0188232421874996
0.5180419921875
0.022558593749999998
0.0217529296875
0.0249755859375
0.024169921875
0.022558593749999998
0.022558593749999998
0.022558593749999998
0.0249755859375
0.027392578124999997
0.0217529296875
0.022558593749999998
0.018530273437499998
0.019335937499999997
0.024169921875
0.057202148437499996
0.13615722656249998
0.2344482421875
0.30051269531249997
0.3601318359375
0.4278076171875
0.5035400390625
0.5583251953125
0.6098876953125
0.6743408203125
1.522705078125
2.1954345703125
2.7465087890624997
3.0067382812499996
3.02607421875
3.02607421875
3.0244628906249997
3.0284912109374997
3.0244628906249997
3.0228515624999996
3.021240234375
3.02607421875
3.0244628906249997
3.0268798828124996
3.027685546875
3.0244628906249997
3.02607421875
1.0167480468749999
0.022558593749999998
0.0201416015625
0.022558593749999998
0.0217529296875
0.026586914062499998
0.023364257812499997
0.023364257812499997
0.023364257812499997
0.0217529296875
0.022558593749999998
0.0217529296875
0.02578125
0.022558593749999998
0.022558593749999998
0.020947265625
0.018530273437499998
0.027392578124999997
0.0555908203125
0.1329345703125
0.2296142578125
0.2956787109375
0.3665771484375
0.4318359375
0.502734375
1.58232421875
2.3138671875
2.6699707031249997
2.9020019531249996
3.043798828125
3.0244628906249997
3.02607421875
3.0252685546875
3.027685546875
3.0244628906249997
3.0252685546875
3.0244628906249997
3.0236572265625
3.0220458984375
3.0244628906249997
3.02607421875
3.0244628906249997
1.64677734375
0.38188476562499996
0.022558593749999998
0.020947265625
0.020947265625
0.022558593749999998
0.018530273437499998
0.020947265625
0.022558593749999998
0.023364257812499997
0.0201416015625
0.022558593749999998
0.022558593749999998
0.0201416015625
0.022558593749999998
0.022558593749999998
0.0249755859375
0.027392578124999997
0.017724609375
0.0201416015625
0.08217773437499999
0.15629882812499998
0.23525390624999998
0.3262939453125
0.38107910156249997
1.1778808593749999
1.77890625
2.489501953125
2.795654296875
3.0204345703124997
3.0309082031249996
3.0252685546875
3.0268798828124996
3.0244628906249997
3.02607421875
3.0252685546875
3.0228515624999996
3.027685546875
3.029296875
3.02607421875
3.0236572265625
3.0244628906249997
3.029296875
0.800830078125
0.023364257812499997
0.0169189453125
0.026586914062499998
0.02578125
0.0249755859375
0.022558593749999998
0.0281982421875
0.017724609375
0.022558593749999998
0.020947265625
0.022558593749999998
0.023364257812499997
0.0217529296875
0.0249755859375
0.022558593749999998
0.022558593749999998
0.027392578124999997
0.027392578124999997
0.020947265625
0.07009277343749999
0.13857421875
0.2376708984375
0.3029296875
0.8338623046875
1.8361083984375
2.402490234375
2.7867919921874997
3.0220458984375
3.0204345703124997
3.0244628906249997
3.027685546875
3.0228515624999996
3.0252685546875
3.02607421875
3.0204345703124997
3.0252685546875
3.0236572265625
3.0268798828124996
3.0244628906249997
3.0228515624999996
3.0244628906249997
0.966796875
0.023364257812499997
0.01611328125
0.022558593749999998
0.024169921875
0.023364257812499997
0.022558593749999998
0.022558593749999998
0.023364257812499997
0.023364257812499997
0.022558593749999998
0.022558593749999998
0.022558593749999998
0.023364257812499997
0.026586914062499998
0.017724609375
0.017724609375
0.024169921875
0.018530273437499998
0.022558593749999998
0.0249755859375
0.07814941406249999
0.153076171875
0.23122558593749998
0.6888427734375
1.828857421875
2.5249511718749997
2.7585937499999997
3.0268798828124996
3.02607421875
3.02607421875
3.02607421875
3.0236572265625
3.0204345703124997
3.0252685546875
3.0252685546875
3.0236572265625
3.027685546875
3.0252685546875
3.0268798828124996
3.02607421875
3.0244628906249997
1.5686279296874999
0.22719726562499998
0.0169189453125
0.027392578124999997
0.02578125
0.026586914062499998
0.0217529296875
0.019335937499999997
0.023364257812499997
0.0281982421875
0.027392578124999997
0.019335937499999997
0.024169921875
0.0217529296875
0.0249755859375
0.024169921875
0.02578125
0.023364257812499997
0.022558593749999998
0.023364257812499997
0.024169921875
0.02900390625
0.072509765625
0.1490478515625
0.7476562499999999
1.4638916015624999
2.067333984375
2.6433837890625
3.001904296875
3.0325195312499997
3.02607421875
3.02607421875
3.0204345703124997
3.0252685546875
3.0204345703124997
3.0244628906249997
3.0244628906249997
3.0268798828124996
3.02607421875
3.0204345703124997
3.0244628906249997
3.0252685546875
3.0309082031249996
0.7476562499999999
0.023364257812499997
0.023364257812499997
0.022558593749999998
0.0217529296875
0.0217529296875
0.023364257812499997
0.022558593749999998
0.024169921875
0.022558593749999998
0.027392578124999997
0.0217529296875
0.017724609375
0.023364257812499997
0.02900390625
0.022558593749999998
0.0217529296875
0.023364257812499997
0.024169921875
0.024169921875
0.023364257812499997
0.024169921875
0.064453125
0.630029296875
1.110205078125
1.9537353515625
2.647412109375
2.9422851562499996
3.0252685546875
3.0268798828124996
3.0252685546875
3.02607421875
3.0244628906249997
3.0252685546875
3.029296875
3.0236572265625
3.0309082031249996
3.0236572265625
3.0268798828124996
3.0204345703124997
3.021240234375
3.02607421875
1.461474609375
0.022558593749999998
0.023364257812499997
0.020947265625
0.022558593749999998
0.0217529296875
0.026586914062499998
0.026586914062499998
0.023364257812499997
0.022558593749999998
0.022558593749999998
0.022558593749999998
0.0201416015625
0.023364257812499997
0.01611328125
0.0515625
0.022558593749999998
0.024169921875
0.022558593749999998
0.024169921875
0.020947265625
0.023364257812499997
0.024169921875
0.09023437499999999
0.7057617187499999
1.5073974609374998
2.4532470703125
2.7247558593749996
2.9608154296875
3.027685546875
3.0236572265625
3.0301025390625
3.0228515624999996
3.02607421875
3.0236572265625
3.0284912109374997
3.0284912109374997
3.0244628906249997
3.0220458984375
3.0252685546875
3.0244628906249997
3.0220458984375
3.02607421875
0.265869140625
0.022558593749999998
0.022558593749999998
0.030615234374999998
0.027392578124999997
0.01611328125
0.022558593749999998
0.0217529296875
0.026586914062499998
0.018530273437499998
0.022558593749999998
0.02578125
0.022558593749999998
0.022558593749999998
0.022558593749999998
0.026586914062499998
0.019335937499999997
0.022558593749999998
0.0281982421875
0.018530273437499998
0.024169921875
0.023364257812499997
0.056396484375
0.5849121093749999
1.3011474609375
1.8635009765625
2.5257568359375
2.8254638671874996
3.0228515624999996
3.027685546875
3.02607421875
3.027685546875
3.0244628906249997
3.029296875
3.0268798828124996
3.0252685546875
3.0244628906249997
3.0220458984375
3.0244628906249997
3.02607421875
3.0228515624999996
3.0236572265625
0.7404052734375
0.022558593749999998
0.026586914062499998
0.022558593749999998
0.020947265625
0.023364257812499997
0.022558593749999998
0.024169921875
0.023364257812499997
0.027392578124999997
0.019335937499999997
0.0249755859375
0.023364257812499997
0.019335937499999997
0.017724609375
0.022558593749999998
0.022558593749999998
0.0217529296875
0.023364257812499997
0.023364257812499997
0.0281982421875
0.026586914062499998
0.0362548828125
0.10957031249999999
0.9257080078125
1.799853515625
2.3138671875
2.8697753906249996
3.0284912109374997
3.029296875
3.0284912109374997
3.02607421875
3.0236572265625
3.0301025390625
3.0252685546875
3.0268798828124996
3.029296875
3.0284912109374997
3.021240234375
3.0252685546875
3.02607421875
3.0220458984375
1.4638916015624999
0.10151367187499999
0.019335937499999997
0.024169921875
0.0201416015625
0.02900390625
0.026586914062499998
0.022558593749999998
0.018530273437499998
0.022558593749999998
0.026586914062499998
0.023364257812499997
0.023364257812499997
0.022558593749999998
0.026586914062499998
0.02578125
0.017724609375
0.023364257812499997
0.024169921875
0.023364257812499997
0.0249755859375
0.022558593749999998
0.023364257812499997
0.08056640625
0.8499755859375
1.5557373046874998
2.1213134765625
2.795654296875
3.029296875
3.0252685546875
3.02607421875
3.0252685546875
3.027685546875
3.0252685546875
3.0244628906249997
3.0244628906249997
3.0244628906249997
3.0244628906249997
3.0244628906249997
3.0236572265625
3.0228515624999996
3.027685546875
3.0228515624999996
0.5551025390625
0.022558593749999998
0.024169921875
0.026586914062499998
0.022558593749999998
0.022558593749999998
0.0217529296875
0.0217529296875
0.026586914062499998
0.024169921875
0.0217529296875
0.024169921875
0.022558593749999998
0.022558593749999998
0.0169189453125
0.0217529296875
0.022558593749999998
0.020947265625
0.023364257812499997
0.02900390625
0.024169921875
0.024169921875
0.045117187499999996
0.5889404296874999
1.0803955078125
1.844970703125
2.528173828125
2.834326171875
2.9882080078124997
3.02607421875
3.0252685546875
3.0244628906249997
3.0188232421874996
3.029296875
3.0236572265625
3.0228515624999996
3.0268798828124996
3.0268798828124996
3.0244628906249997
3.0236572265625
3.027685546875
3.02607421875
1.26328125
0.0217529296875
0.024169921875
0.023364257812499997
0.019335937499999997
0.022558593749999998
0.0201416015625
0.023364257812499997
0.023364257812499997
0.0201416015625
0.023364257812499997
0.0201416015625
0.0217529296875
0.023364257812499997
0.022558593749999998
0.019335937499999997
0.017724609375
0.0249755859375
0.023364257812499997
0.019335937499999997
0.0217529296875
0.023364257812499997
0.0394775390625
0.19255371093749998
0.9531005859374999
1.9585693359374998
2.4443847656249997
2.8657470703124996
3.0220458984375
3.0220458984375
3.0228515624999996
3.0236572265625
3.02607421875
3.0252685546875
3.0252685546875
3.0268798828124996
3.0236572265625
3.0252685546875
3.02607421875
3.027685546875
3.0244628906249997
3.0252685546875
1.4679199218749999
0.1264892578125
0.022558593749999998
0.022558593749999998
0.022558593749999998
0.0169189453125
0.02578125
0.02578125
0.026586914062499998
0.022558593749999998
0.022558593749999998
0.022558593749999998
0.022558593749999998
0.0217529296875
0.017724609375
0.020947265625
0.017724609375
0.022558593749999998
0.023364257812499997
0.019335937499999997
0.02578125
0.023364257812499997
0.018530273437499998
0.046728515624999994
0.5148193359375
1.5992431640625
2.0294677734374997
2.6369384765625
2.9785400390624996
3.021240234375
3.02607421875
3.02607421875
3.02607421875
3.0252685546875
3.0268798828124996
3.02607421875
3.0236572265625
3.02607421875
3.0220458984375
3.02607421875
3.021240234375
3.0268798828124996
3.0268798828124996
0.646142578125
0.0217529296875
0.027392578124999997
0.022558593749999998
0.020947265625
0.0169189453125
0.0217529296875
0.023364257812499997
0.022558593749999998
0.022558593749999998
0.023364257812499997
0.023364257812499997
0.023364257812499997
0.02578125
0.022558593749999998
0.0281982421875
0.0217529296875
0.02578125
0.02900390625
0.0201416015625
0.024169921875
0.019335937499999997
0.026586914062499998
0.08942871093749999
1.0409179687499999
1.8264404296874999
2.1487060546875
2.824658203125
2.9737060546875
3.0236572265625
3.02607421875
3.02607421875
3.0252685546875
3.0244628906249997
3.0236572265625
3.02607421875
3.0220458984375
3.021240234375
3.0252685546875
3.0228515624999996
3.0284912109374997
3.0244628906249997
1.4510009765624998
0.08056640625
0.022558593749999998
0.022558593749999998
0.0249755859375
0.0201416015625
0.023364257812499997
0.022558593749999998
0.0217529296875
0.022558593749999998
0.02578125
0.020947265625
0.027392578124999997
0.0169189453125
0.024169921875
0.023364257812499997
0.0217529296875
0.0249755859375
0.018530273437499998
0.0249755859375
0.023364257812499997
0.0249755859375
0.0201416015625
0.1039306640625
0.8370849609375
1.590380859375
2.02705078125
2.7827636718749997
3.011572265625
3.02607421875
3.0301025390625
3.0268798828124996
3.0228515624999996
3.02607421875
3.029296875
3.0228515624999996
3.0228515624999996
3.02607421875
3.0309082031249996
3.0244628906249997
3.0236572265625
3.029296875
3.0244628906249997
0.4648681640625
0.022558593749999998
0.019335937499999997
0.023364257812499997
0.020947265625
0.022558593749999998
0.023364257812499997
0.022558593749999998
0.0217529296875
0.0217529296875
0.023364257812499997
0.023364257812499997
0.023364257812499997
0.017724609375
0.0217529296875
0.0169189453125
0.023364257812499997
0.022558593749999998
0.023364257812499997
0.0201416015625
0.022558593749999998
0.023364257812499997
0.07412109374999999
0.5341552734375
1.1835205078125
2.0649169921875
2.68125
2.9600097656249997
3.029296875
3.027685546875
3.029296875
3.02607421875
3.0244628906249997
3.0252685546875
3.0252685546875
3.0309082031249996
3.0220458984375
3.021240234375
3.0204345703124997
3.0236572265625
3.0244628906249997
3.0301025390625
0.6614501953124999
0.02578125
0.0217529296875
0.0217529296875
0.0217529296875
0.0249755859375
0.023364257812499997
0.0201416015625
0.024169921875
0.022558593749999998
0.0281982421875
0.020947265625
0.024169921875
0.0217529296875
0.024169921875
0.0217529296875
0.0217529296875
0.0314208984375
0.022558593749999998
0.020947265625
0.0249755859375
0.02900390625
0.02900390625
0.43505859375
1.019970703125
1.9505126953124998
2.43955078125
2.8818603515624996
3.0309082031249996
3.0252685546875
3.0244628906249997
3.0268798828124996
3.029296875
3.0244628906249997
3.029296875
3.0228515624999996
3.0252685546875
3.0301025390625
3.021240234375
3.0252685546875
3.027685546875
3.0252685546875
1.41796875
0.026586914062499998
0.022558593749999998
0.023364257812499997
0.0169189453125
0.019335937499999997
0.022558593749999998
0.023364257812499997
0.024169921875
0.024169921875
0.0201416015625
0.023364257812499997
0.022558593749999998
0.022558593749999998
0.017724609375
0.024169921875
0.023364257812499997
0.020947265625
0.0169189453125
0.0217529296875
0.023364257812499997
0.0201416015625
0.022558593749999998
0.043505859375
0.662255859375
1.6282470703124998
1.9916015624999999
2.6377441406249997
3.0083496093749997
3.0284912109374997
3.02607421875
3.027685546875
3.0284912109374997
3.0236572265625
3.0188232421874996
3.0284912109374997
3.02607421875
3.0236572265625
3.021240234375
3.0228515624999996
3.0228515624999996
3.02607421875
3.0244628906249997
0.4229736328125
0.0217529296875
0.022558593749999998
0.023364257812499997
0.022558593749999998
0.0217529296875
0.02578125
0.022558593749999998
0.023364257812499997
0.0217529296875
0.022558593749999998
0.018530273437499998
0.019335937499999997
0.023364257812499997
0.020947265625
0.02578125
0.022558593749999998
0.0217529296875
0.023364257812499997
0.024169921875
0.023364257812499997
0.02578125
0.02900390625
0.607470703125
1.106982421875
1.9021728515624998
2.2115478515625
2.8528564453125
3.0252685546875
3.0204345703124997
3.0252685546875
3.0236572265625
3.0244628906249997
3.027685546875
3.0244628906249997
3.0268798828124996
3.0244628906249997
3.027685546875
3.0244628906249997
3.0244628906249997
3.02607421875
3.0268798828124996
1.268115234375
0.022558593749999998
0.020947265625
0.018530273437499998
0.023364257812499997
0.023364257812499997
0.023364257812499997
0.023364257812499997
0.018530273437499998
0.022558593749999998
0.026586914062499998
0.023364257812499997
0.023364257812499997
0.024169921875
0.0217529296875
0.0249755859375
0.022558593749999998
0.019335937499999997
0.022558593749999998
0.024169921875
0.022558593749999998
0.023364257812499997
0.019335937499999997
0.1087646484375
0.990966796875
1.84013671875
2.33642578125
2.8270751953124997
3.0228515624999996
3.027685546875
3.0244628906249997
3.0268798828124996
3.0252685546875
3.027685546875
3.0236572265625
3.0228515624999996
3.0268798828124996
3.0317138671875
3.0244628906249997
3.0228515624999996
3.0228515624999996
3.0244628906249997
2.46533203125
0.0217529296875
0.022558593749999998
0.02578125
0.022558593749999998
0.022558593749999998
0.022558593749999998
0.027392578124999997
0.026586914062499998
0.023364257812499997
0.027392578124999997
0.020947265625
0.0169189453125
0.023364257812499997
0.022558593749999998
0.018530273437499998
0.026586914062499998
0.0217529296875
0.022558593749999998
0.026586914062499998
0.023364257812499997
0.023364257812499997
0.024169921875
0.0580078125
0.6034423828125
1.264892578125
1.9762939453125
2.6490234375
2.8939453124999996
3.0252685546875
3.0244628906249997
3.0252685546875
3.021240234375
3.0244628906249997
3.0252685546875
3.0188232421874996
3.0244628906249997
3.0252685546875
3.027685546875
3.0220458984375
3.02607421875
3.0236572265625
3.02607421875
0.5583251953125
0.020947265625
0.022558593749999998
0.023364257812499997
0.024169921875
0.0217529296875
0.0217529296875
0.024169921875
0.0217529296875
0.01611328125
0.0217529296875
0.023364257812499997
0.0201416015625
0.023364257812499997
0.02578125
0.022558593749999998
0.018530273437499998
0.023364257812499997
0.023364257812499997
0.0249755859375
0.022558593749999998
0.022558593749999998
0.0281982421875
0.31904296875
0.9990234375
1.9891845703125
2.2993652343749997
2.8883056640625
3.02607421875
3.0244628906249997
3.0228515624999996
3.0228515624999996
3.0236572265625
3.02607421875
3.0309082031249996
3.02607421875
3.029296875
3.0228515624999996
3.021240234375
3.029296875
3.0284912109374997
3.0220458984375
1.2753662109375
0.022558593749999998
0.0249755859375
0.0249755859375
0.0249755859375
0.018530273437499998
0.022558593749999998
0.023364257812499997
0.0281982421875
0.019335937499999997
0.024169921875
0.0217529296875
0.020947265625
0.019335937499999997
0.0249755859375
0.018530273437499998
0.022558593749999998
0.024169921875
0.0201416015625
0.015307617187499999
0.027392578124999997
0.022558593749999998
0.020947265625
0.0604248046875
0.9095947265625
1.7813232421874998
1.8925048828125
2.8979736328124996
3.0244628906249997
3.0244628906249997
3.0252685546875
3.0244628906249997
3.0204345703124997
3.0204345703124997
3.0236572265625
3.0284912109374997
3.0228515624999996
3.0252685546875
3.0268798828124996
3.0244628906249997
3.0244628906249997
3.0228515624999996
2.3001708984375
0.25458984375
0.024169921875
0.023364257812499997
0.023364257812499997
0.022558593749999998
0.02578125
0.022558593749999998
0.022558593749999998
0.022558593749999998
0.023364257812499997
0.022558593749999998
0.0217529296875
0.022558593749999998
0.024169921875
0.022558593749999998
0.0217529296875
0.022558593749999998
0.019335937499999997
0.022558593749999998
0.017724609375
0.0217529296875
0.023364257812499997
0.0249755859375
0.5357666015625
1.2399169921875
2.006103515625
2.6490234375
2.856884765625
3.0252685546875
3.029296875
3.0228515624999996
3.0244628906249997
3.0244628906249997
3.0236572265625
3.0252685546875
3.0252685546875
3.0309082031249996
3.021240234375
3.0204345703124997
3.0236572265625
3.0236572265625
3.0244628906249997
1.095703125
0.022558593749999998
0.0249755859375
0.0314208984375
0.023364257812499997
0.0217529296875
0.022558593749999998
0.018530273437499998
0.0217529296875
0.0217529296875
0.023364257812499997
0.0169189453125
0.020947265625
0.0201416015625
0.02578125
0.020947265625
0.023364257812499997
0.018530273437499998
0.0217529296875
0.023364257812499997
0.024169921875
0.022558593749999998
0.0346435546875
0.175634765625
0.990966796875
1.8626953124999999
2.3477050781249997
2.9044189453125
3.0252685546875
3.0244628906249997
3.029296875
3.02607421875
3.0244628906249997
3.029296875
3.0252685546875
3.0228515624999996
3.0236572265625
3.0244628906249997
3.01962890625
3.0244628906249997
3.029296875
3.01962890625
1.3253173828125
0.024169921875
0.022558593749999998
0.023364257812499997
0.0217529296875
0.024169921875
0.020947265625
0.027392578124999997
0.023364257812499997
0.0217529296875
0.022558593749999998
0.022558593749999998
0.023364257812499997
0.022558593749999998
0.022558593749999998
0.023364257812499997
0.023364257812499997
0.0201416015625
0.0217529296875
0.0217529296875
0.02578125
0.026586914062499998
0.024169921875
0.053173828124999996
0.546240234375
1.6645019531249998
1.7668212890625
2.6119628906249996
2.9849853515625
3.0244628906249997
3.0252685546875
3.0244628906249997
3.027685546875
3.0228515624999996
3.0252685546875
3.0252685546875
3.0301025390625
3.0244628906249997
3.0236572265625
3.0220458984375
3.029296875
3.0244628906249997
2.5813476562499997
0.39719238281249997
0.017724609375
0.019335937499999997
0.023364257812499997
0.02578125
0.023364257812499997
0.022558593749999998
0.022558593749999998
0.022558593749999998
0.022558593749999998
0.022558593749999998
0.023364257812499997
0.02578125
0.022558593749999998
0.022558593749999998
0.02578125
0.023364257812499997
0.02578125
0.0281982421875
0.023364257812499997
0.022558593749999998
0.024169921875
0.0459228515625
0.53818359375
1.187548828125
1.9779052734375
2.447607421875
2.8818603515624996
3.0164062499999997
3.0244628906249997
3.0228515624999996
3.0244628906249997
3.02607421875
3.0252685546875
3.0236572265625
3.0244628906249997
3.02607421875
3.0252685546875
3.02607421875
3.01962890625
3.0236572265625
3.0252685546875
1.1045654296875
0.022558593749999998
0.026586914062499998
0.022558593749999998
0.022558593749999998
0.01611328125
0.0217529296875
0.024169921875
0.022558593749999998
0.02578125
0.0249755859375
0.023364257812499997
0.02900390625
0.022558593749999998
0.017724609375
0.026586914062499998
0.0249755859375
0.023364257812499997
0.023364257812499997
0.023364257812499997
0.022558593749999998
0.027392578124999997
0.024169921875
0.1168212890625
0.8999267578125
1.7732666015624998
2.280029296875
2.8270751953124997
3.0172119140625
3.027685546875
3.0244628906249997
3.0244628906249997
3.0244628906249997
3.0228515624999996
3.0252685546875
3.0244628906249997
3.0228515624999996
3.0228515624999996
3.0236572265625
3.0244628906249997
3.0236572265625
3.0244628906249997
1.5815185546875
0.0249755859375
0.022558593749999998
0.022558593749999998
0.018530273437499998
0.027392578124999997
0.020947265625
0.022558593749999998
0.022558593749999998
0.024169921875
0.019335937499999997
0.022558593749999998
0.022558593749999998
0.0281982421875
0.024169921875
0.022558593749999998
0.023364257812499997
0.0281982421875
0.0201416015625
0.023364257812499997
0.024169921875
0.0217529296875
0.02900390625
0.10151367187499999
0.7476562499999999
1.3704345703124998
1.8981445312499998
2.73603515625
3.02607421875
3.0244628906249997
3.02607421875
3.0236572265625
3.0228515624999996
3.0284912109374997
3.0220458984375
3.0244628906249997
3.0204345703124997
3.0244628906249997
3.0236572265625
3.0268798828124996
3.02607421875
3.021240234375
3.0252685546875
0.2215576171875
0.023364257812499997
0.022558593749999998
0.0201416015625
0.023364257812499997
0.022558593749999998
0.023364257812499997
0.0217529296875
0.020947265625
0.027392578124999997
0.018530273437499998
0.022558593749999998
0.020947265625
0.017724609375
0.022558593749999998
0.0281982421875
0.023364257812499997
0.023364257812499997
0.022558593749999998
0.024169921875
0.022558593749999998
0.023364257812499997
0.053173828124999996
0.8870361328124999
2.534619140625
3.0268798828124996
3.0252685546875
3.02607421875
3.0252685546875
3.0236572265625
3.0236572265625
3.02607421875
3.01962890625
3.0252685546875
3.029296875
3.0236572265625
3.02607421875
3.02607421875
3.02607421875
3.021240234375
3.0236572265625
3.0204345703124997
3.0188232421874996
3.0220458984375
3.0188232421874996
3.0284912109374997
3.02607421875
3.0252685546875
3.02607421875
3.0252685546875
3.0252685546875
3.0244628906249997
3.021240234375
3.0252685546875
3.0244628906249997
0.0249755859375
1.5734619140625
3.0252685546875
3.02607421875
3.0244628906249997
3.0236572265625
3.029296875
3.02607421875
3.02607421875
3.0268798828124996
3.0244628906249997
3.02607421875
3.0244628906249997
3.0268798828124996
3.0268798828124996
3.0244628906249997
3.0244628906249997
3.0236572265625
3.029296875
3.0244628906249997
3.0252685546875
3.0301025390625
3.0244628906249997
3.027685546875
3.0284912109374997
3.027685546875
3.018017578125
0.023364257812499997
0.0217529296875
0.022558593749999998
0.0217529296875
0.017724609375
0.0217529296875
0.026586914062499998
0.6292236328124999
0.65419921875
0.9643798828125
1.3623779296874998
1.5323730468749999
1.7047851562499998
1.9086181640625
1.8788085937499999
0.023364257812499997
0.024169921875
0.022558593749999998
0.022558593749999998
0.020947265625
1.3172607421875
3.021240234375
3.0252685546875
3.0252685546875
3.02607421875
3.0236572265625
3.0244628906249997
3.02607421875
3.0252685546875
3.0244628906249997
3.0244628906249997
3.0252685546875
3.0244628906249997
3.02607421875
2.9882080078124997
2.9108642578125
3.0252685546875
3.027685546875
3.0309082031249996
3.02607421875
3.0252685546875
2.2115478515625
1.07958984375
0.023364257812499997
0.023364257812499997
0.023364257812499997
0.023364257812499997
0.0217529296875
0.022558593749999998
0.019335937499999997
0.2634521484375
0.451171875
0.630029296875
0.7613525390625
0.7549072265625
0.9394042968749999
0.978076171875
0.607470703125
0.022558593749999998
0.023364257812499997
0.020947265625
0.0249755859375
1.184326171875
2.5313964843749996
3.0252685546875
3.0228515624999996
3.0228515624999996
3.0284912109374997
2.8866943359375
2.8157958984375
2.8423828125
2.6433837890625
2.50400390625
2.2437744140625
2.0576660156249997
1.9424560546874998
1.7571533203124998
1.6056884765625
1.409912109375
3.02607421875
3.02607421875
3.027685546875
3.0244628906249997
2.7900146484375
1.525927734375
0.020947265625
0.023364257812499997
0.017724609375
0.022558593749999998
0.02578125
0.022558593749999998
0.0169189453125
0.198193359375
0.2908447265625
0.4842041015625
0.5792724609375
0.6646728515625
0.7468505859375
0.845947265625
0.768603515625
0.022558593749999998
0.019335937499999997
0.024169921875
0.020947265625
0.275537109375
1.6000488281249998
3.02607421875
3.0301025390625
3.0220458984375
3.0244628906249997
2.840771484375
2.6192138671875
2.7086425781249996
2.42666015625
2.3565673828125
2.1003662109375
1.8602783203125
1.74345703125
1.6298583984375
1.4195800781249999
1.380908203125
3.02607421875
3.02607421875
3.02607421875
3.0268798828124996
3.0228515624999996
1.8143554687499999
0.026586914062499998
0.023364257812499997
0.023364257812499997
0.020947265625
0.022558593749999998
0.0201416015625
0.022558593749999998
0.48581542968749997
0.38188476562499996
0.5728271484374999
0.7968017578125
0.863671875
0.958740234375
1.07958984375
1.06669921875
0.02578125
0.0217529296875
0.023364257812499997
0.024169921875
0.175634765625
1.8224121093749999
3.0204345703124997
3.0252685546875
3.02607421875
3.02607421875
2.9559814453124997
2.7207275390624996
2.763427734375
2.3646240234375
2.5974609374999997
2.2623046875
2.0101318359375
1.864306640625
1.7877685546875
1.5782958984375
1.4920898437499999
1.77568359375
3.0244628906249997
3.0220458984375
3.0244628906249997
3.0244628906249997
1.8409423828125
0.517236328125
0.022558593749999998
0.023364257812499997
0.0249755859375
0.022558593749999998
0.023364257812499997
0.023364257812499997
0.09426269531249999
0.45761718749999997
0.7291259765625
0.8741455078125
1.019970703125
1.12470703125
1.21494140625
1.2511962890625
1.03447265625
0.023364257812499997
0.0201416015625
0.022558593749999998
0.1619384765625
1.456640625
2.7086425781249996
3.027685546875
3.02607421875
3.0284912109374997
3.02607421875
2.7013916015625
2.56201171875
2.66513671875
2.5483154296875
2.321923828125
2.125341796875
2.0101318359375
1.8820312499999998
1.716064453125
1.6242187499999998
1.5202880859374999
3.0252685546875
3.0244628906249997
3.0236572265625
3.02607421875
2.666748046875
1.5194824218749998
0.022558593749999998
0.0249755859375
0.023364257812499997
0.022558593749999998
0.019335937499999997
0.04189453125
0.018530273437499998
0.456005859375
0.69287109375
0.9232910156249999
1.1690185546875
1.1722412109375
1.276171875
1.3631835937499999
1.30517578125
0.0217529296875
0.023364257812499997
0.026586914062499998
0.023364257812499997
0.501123046875
1.6008544921874999
3.0252685546875
3.0268798828124996
3.0236572265625
3.027685546875
2.7819580078125
2.6014892578124997
2.6627197265625
2.50400390625
2.4282714843749997
2.21396484375
2.05283203125
1.9569580078125
1.8981445312499998
1.7055908203124999
1.6242187499999998
3.0252685546875
3.0268798828124996
3.0228515624999996
3.0309082031249996
2.972900390625
1.7781005859374999
0.023364257812499997
0.0249755859375
0.0217529296875
0.0249755859375
0.0201416015625
0.0837890625
0.018530273437499998
0.6308349609374999
0.6292236328124999
0.9804931640625
1.187548828125
1.2455566406249998
1.3341796874999998
1.4187744140624998
1.3583496093749998
0.0217529296875
0.017724609375
0.022558593749999998
0.023364257812499997
0.3472412109375
1.7901855468749999
3.0252685546875
3.0244628906249997
3.029296875
3.02607421875
2.89072265625
2.5982666015625
2.6498291015624997
2.3388427734375
2.5894042968749997
2.3082275390625
2.1245361328125
2.070556640625
1.9142578124999998
1.7531249999999998
1.6846435546874998
3.0228515624999996
3.0252685546875
3.0244628906249997
3.0228515624999996
3.0236572265625
1.7635986328125
0.5526855468749999
0.027392578124999997
0.023364257812499997
0.0217529296875
0.020947265625
0.07734374999999999
0.0797607421875
0.19658203124999998
0.57041015625
0.889453125
1.1110107421875
1.2503906249999999
1.3543212890624998
1.4381103515625
1.4308593749999998
0.022558593749999998
0.026586914062499998
0.022558593749999998
0.027392578124999997
0.133740234375
1.3881591796875
2.6135742187499997
3.0244628906249997
3.0252685546875
3.0244628906249997
2.8979736328124996
2.7505371093749997
2.5797363281249996
2.7030029296875
2.615185546875
2.4113525390625
2.1946289062499997
2.0713623046875
1.9617919921875
1.8038818359375
1.7104248046875
1.6395263671875
3.0309082031249996
3.0244628906249997
2.969677734375
3.0397705078125
2.6176025390624997
0.7162353515625
0.026586914062499998
0.022558593749999998
0.022558593749999998
0.019335937499999997
0.018530273437499998
0.141796875
0.15146484375
0.5671875
0.7822998046874999
1.132763671875
1.3083984375
1.3172607421875
1.3768798828125
1.4510009765624998
1.3607666015625
0.023364257812499997
0.023364257812499997
0.026586914062499998
0.0322265625
0.5969970703124999
2.2840576171875
3.0309082031249996
3.029296875
3.01962890625
3.011572265625
2.7819580078125
2.5168945312499997
2.6466064453125
2.5225341796875
2.466943359375
2.1857666015625
2.0616943359374997
1.9666259765624998
1.8328857421875
1.7297607421874999
1.667724609375
3.02607421875
3.0252685546875
2.99384765625
3.027685546875
2.769873046875
1.6806152343749998
0.024169921875
0.023364257812499997
0.022558593749999998
0.022558593749999998
0.022558593749999998
0.165966796875
0.023364257812499997
0.662255859375
0.7871337890625
1.0658935546875
1.27939453125
1.32451171875
1.42119140625
1.4574462890625
1.3873535156249999
0.026586914062499998
0.023364257812499997
0.024169921875
0.0298095703125
0.4406982421875
1.66611328125
3.0236572265625
3.0244628906249997
3.0284912109374997
3.0236572265625
2.7561767578125
2.59423828125
2.6288818359375
2.59423828125
2.4983642578125
2.3203125
2.115673828125
1.9787109374999998
1.9134521484375
1.7652099609374998
1.6620849609375
3.0220458984375
3.0244628906249997
2.850439453125
3.02607421875
3.027685546875
1.6862548828125
0.022558593749999998
0.0217529296875
0.023364257812499997
0.022558593749999998
0.019335937499999997
0.1152099609375
0.09829101562499999
0.41330566406249997
0.6276123046875
0.9329589843749999
1.2890625
1.319677734375
1.4171630859375
1.4751708984374998
1.42119140625
0.0201416015625
0.019335937499999997
0.02900390625
0.0217529296875
0.20625
1.703173828125
3.02607421875
3.027685546875
3.021240234375
3.0252685546875
2.856884765625
2.6756103515625
2.582958984375
2.5257568359375
2.5869873046875
2.41376953125
2.144677734375
2.031884765625
1.9674316406249999
1.8022705078124999
1.7088134765624998
1.6330810546874999
3.0317138671875
3.0228515624999996
2.8464111328125
3.02607421875
1.8369140625
0.62841796875
0.022558593749999998
0.023364257812499997
0.023364257812499997
0.023364257812499997
0.03544921875
0.169189453125
0.201416015625
0.6429199218749999
0.9232910156249999
1.142431640625
1.3043701171875
1.3253173828125
1.4348876953124998
1.4622802734375
1.36962890625
0.022558593749999998
0.024169921875
0.0217529296875
0.0443115234375
1.4469726562499998
2.1889892578125
3.0252685546875
3.0244628906249997
3.0204345703124997
2.9745117187499996
2.6619140624999997
2.4943359375
2.6159912109374996
2.43955078125
2.4121582031249997
2.199462890625
2.0898925781249997
1.98193359375
1.8659179687499998
1.7466796875
1.6443603515624998
3.0268798828124996
3.0244628906249997
2.914892578125
3.0244628906249997
2.811767578125
1.6910888671875
0.023364257812499997
0.023364257812499997
0.02578125
0.0281982421875
0.0322265625
0.201416015625
0.0217529296875
0.5406005859374999
0.829833984375
1.07958984375
1.2624755859374999
1.3100097656249998
1.3978271484375
1.4687255859375
1.3833251953124999
0.024169921875
0.02578125
0.018530273437499998
0.0539794921875
0.443115234375
1.8014648437499998
3.0309082031249996
3.029296875
3.0244628906249997
3.0244628906249997
2.715087890625
2.5628173828125
2.7158935546875
2.5902099609375
2.4943359375
2.333203125
2.1213134765625
2.018994140625
1.912646484375
1.7611816406249998
1.6798095703125
3.021240234375
3.0244628906249997
2.7432861328125
3.0268798828124996
2.92939453125
1.6572509765624999
0.022558593749999998
0.023364257812499997
0.022558593749999998
0.020947265625
0.019335937499999997
0.133740234375
0.0249755859375
0.47050781249999996
0.7001220703125
1.044140625
1.2455566406249998
1.2866455078124999
1.3527099609375
1.46953125
1.4147460937499998
0.0249755859375
0.0249755859375
0.026586914062499998
0.01611328125
0.2811767578125
1.7378173828124999
3.0236572265625
3.02607421875
3.0268798828124996
3.0252685546875
2.8093505859374996
2.6135742187499997
2.5048095703124997
2.4999755859375
2.5128662109374997
2.3315917968749997
2.13984375
2.0600830078125
1.9198974609375
1.8054931640624998
1.7458740234374999
1.674169921875
3.0268798828124996
3.02607421875
2.7521484375
3.02607421875
1.9078125
0.639697265625
0.022558593749999998
0.022558593749999998
0.027392578124999997
0.022558593749999998
0.1119873046875
0.22719726562499998
0.22478027343749998
0.6018310546875
0.9240966796875
1.1416259765624999
1.3059814453124998
1.3551269531249999
1.4429443359374998
1.4638916015624999
0.0201416015625
0.02578125
0.0169189453125
0.02578125
0.15629882812499998
1.35673828125
2.1164794921875
3.0317138671875
3.0236572265625
3.02607421875
2.8915283203124997
2.6055175781249997
2.4814453125
2.6304931640625
2.5289794921874997
2.4194091796875
2.23974609375
2.02060546875
2.0149658203125
1.8659179687499998
1.7015624999999999
1.6693359374999999
3.0228515624999996
3.02607421875
2.856884765625
3.027685546875
2.7948486328124997
0.8765624999999999
0.023364257812499997
0.022558593749999998
0.022558593749999998
0.023364257812499997
0.024169921875
0.1651611328125
0.11037597656249999
0.49790039062499997
0.8056640625
1.01513671875
1.2592529296875
1.3092041015625
1.35673828125
1.4195800781249999
1.3414306640625
0.022558593749999998
0.0217529296875
0.0201416015625
0.169189453125
0.5220703125
1.783740234375
3.0244628906249997
3.0284912109374997
3.0284912109374997
2.977734375
2.7328124999999996
2.5773193359374997
2.6885009765624996
2.6200195312499996
2.5458984375
2.2921142578125
2.1454833984375
2.0407470703125
1.9456787109375
1.815966796875
1.7233154296875
3.021240234375
3.0252685546875
2.695751953125
3.0252685546875
2.779541015625
1.6298583984375
0.020947265625
0.0249755859375
0.0217529296875
0.0169189453125
0.022558593749999998
0.17080078124999998
0.022558593749999998
0.4318359375
0.631640625
0.9917724609374999
1.2495849609374998
1.2898681640624998
1.3631835937499999
1.40830078125
1.3607666015625
0.022558593749999998
0.023364257812499997
0.022558593749999998
0.019335937499999997
0.59619140625
1.848193359375
3.0228515624999996
3.0284912109374997
3.0204345703124997
3.0268798828124996
2.81015625
2.5434814453124996
2.5322021484375
2.5112548828124996
2.57490234375
2.408935546875
2.2276611328125
2.0947265625
2.01416015625
1.8941162109374998
1.796630859375
3.0268798828124996
3.02607421875
3.021240234375
3.0325195312499997
3.01962890625
1.8989501953124999
0.6807861328125
0.023364257812499997
0.0201416015625
0.0201416015625
0.024169921875
0.1248779296875
0.19497070312499998
0.17885742187499998
0.631640625
0.8693115234375
1.0820068359375
1.2173583984375
1.3124267578125
1.3817138671875
1.4171630859375
0.0169189453125
0.024169921875
0.02900390625
0.0684814453125
0.103125
1.1835205078125
2.112451171875
3.0284912109374997
3.0333251953125
3.0204345703124997
2.8238525390625
2.6458007812499997
2.5209228515624997
2.5499267578125
2.55234375
2.47822265625
2.23974609375
2.051220703125
2.044775390625
1.9303710937499998
1.8248291015625
1.72412109375
3.02607421875
3.0228515624999996
2.8302978515625
3.0228515624999996
2.753759765625
0.865283203125
0.024169921875
0.023364257812499997
0.024169921875
0.017724609375
0.0580078125
0.2038330078125
0.0926513671875
0.48259277343749996
0.7299316406249999
1.045751953125
1.1794921875
1.2624755859374999
1.332568359375
1.409912109375
1.348681640625
0.023364257812499997
0.026586914062499998
0.026586914062499998
0.0910400390625
0.5260986328125
1.8264404296874999
3.0244628906249997
3.0252685546875
3.02607421875
2.9197265624999997
2.7328124999999996
2.50400390625
2.695751953125
2.5587890625
2.46533203125
2.276806640625
2.1624023437499997
2.0729736328125
1.9593749999999999
1.8586669921874999
1.786962890625
3.0301025390625
3.0244628906249997
2.586181640625
3.0252685546875
2.840771484375
1.6153564453125
0.0217529296875
0.017724609375
0.0217529296875
0.022558593749999998
0.023364257812499997
0.165966796875
0.0217529296875
0.5003173828124999
0.8048583984375
1.019970703125
1.2383056640624999
1.2576416015624998
1.361572265625
1.4139404296875
1.364794921875
0.024169921875
0.019335937499999997
0.022558593749999998
0.08137207031249999
0.6090820312499999
1.941650390625
3.0244628906249997
3.029296875
3.021240234375
3.0252685546875
2.7867919921874997
2.6272705078125
2.6055175781249997
2.553955078125
2.5064208984375
2.3396484374999997
2.165625
2.0302734375
1.957763671875
1.8578613281249998
1.7531249999999998
3.027685546875
3.02607421875
3.027685546875
2.9986816406249996
3.0083496093749997
1.9327880859375
0.0837890625
0.022558593749999998
0.0201416015625
0.023364257812499997
0.0120849609375
0.10151367187499999
0.20947265625
0.38913574218749997
0.6485595703125
0.8644775390624999
1.0828125
1.224609375
1.3011474609375
1.3905761718749998
1.3946044921874998
0.023364257812499997
0.023364257812499997
0.0201416015625
0.107958984375
0.16838378906249998
0.9547119140625
2.9116699218749997
3.027685546875
3.0268798828124996
3.027685546875
2.7787353515624997
2.602294921875
2.4927246093749997
2.5531494140624997
2.5112548828124996
2.4113525390625
2.1946289062499997
2.054443359375
2.0431640625
1.92392578125
1.8062988281249999
1.7499023437499999
3.0228515624999996
3.02607421875
2.8037109375
3.0244628906249997
2.1084228515625
0.9047607421874999
0.030615234374999998
0.020947265625
0.024169921875
0.022558593749999998
0.072509765625
0.2183349609375
0.1152099609375
0.51884765625
0.8451416015625
1.1021484375
1.2205810546875
1.2745605468749999
1.3768798828125
1.4074951171874999
1.3599609375
0.017724609375
0.02578125
0.023364257812499997
0.1168212890625
0.8000244140624999
1.812744140625
3.0268798828124996
3.0228515624999996
3.0244628906249997
2.8786376953125
2.682861328125
2.5112548828124996
2.6272705078125
2.5418701171875
2.4548583984375
2.25263671875
2.1180908203124997
2.031884765625
1.9271484374999999
1.8248291015625
1.7555419921875
3.0228515624999996
3.02607421875
2.591015625
3.0236572265625
2.8029052734374997
1.6346923828125
0.0201416015625
0.022558593749999998
0.024169921875
0.023364257812499997
0.026586914062499998
0.20302734374999998
0.022558593749999998
0.4729248046875
0.78310546875
1.036083984375
1.2624755859374999
1.29228515625
1.3688232421875
1.442138671875
1.3801025390625
0.024169921875
0.0249755859375
0.024169921875
0.16274414062499998
0.597802734375
1.9271484374999999
3.0268798828124996
3.0252685546875
3.027685546875
3.0325195312499997
2.65546875
2.5096435546875
2.5128662109374997
2.45888671875
2.4709716796875
2.3050048828125
2.0729736328125
2.0657226562499997
1.980322265625
1.8731689453125
1.7458740234374999
3.029296875
3.0244628906249997
2.5370361328124997
2.94873046875
2.947119140625
1.5412353515625
0.127294921875
0.02578125
0.02578125
0.023364257812499997
0.022558593749999998
0.13212890624999998
0.24331054687499998
0.4471435546875
0.7178466796874999
0.9321533203125
1.1883544921875
1.2640869140625
1.3317626953125
1.4123291015625
1.41796875
0.022558593749999998
0.024169921875
0.027392578124999997
0.1812744140625
0.1780517578125
1.819189453125
2.9495361328125
3.0228515624999996
3.0252685546875
3.02607421875
2.7851806640624996
2.618408203125
2.489501953125
2.4999755859375
2.4919189453125
2.3227294921875
2.152734375
2.0407470703125
2.0246337890625
1.8763916015625
1.7724609375
1.6951171875
3.0268798828124996
3.029296875
2.6458007812499997
2.995458984375
2.112451171875
0.8765624999999999
0.026586914062499998
0.019335937499999997
0.018530273437499998
0.02578125
0.107958984375
0.24895019531249998
0.1893310546875
0.5526855468749999
0.887841796875
1.148876953125
1.2568359375
1.332568359375
1.3728515625
1.4147460937499998
1.3639892578125
0.026586914062499998
0.0249755859375
0.20866699218749998
0.169189453125
0.7500732421874999
1.8659179687499998
3.0268798828124996
3.02607421875
3.0204345703124997
2.8770263671875
2.5813476562499997
2.389599609375
2.5475097656249996
2.40732421875
2.376708984375
2.1922119140625
2.0504150390625
2.0093261718749997
1.912646484375
1.82080078125
1.7523193359375
3.0252685546875
3.0284912109374997
2.7948486328124997
2.8721923828125
2.6739990234374997
1.5146484375
0.023364257812499997
0.022558593749999998
0.022558593749999998
0.022558593749999998
0.0829833984375
0.2731201171875
0.1200439453125
0.6090820312499999
0.8362792968749999
1.094091796875
1.2689208984375
1.327734375
1.3905761718749998
1.4622802734375
1.4042724609375
0.02578125
0.023364257812499997
0.1651611328125
0.2570068359375
0.8757568359375
1.9360107421875
3.0268798828124996
3.0268798828124996
3.0244628906249997
2.7908203124999997
2.576513671875
2.399267578125
2.5265625
2.3887939453125
2.3799316406249997
2.2494140625
2.0431640625
2.0423583984375
1.9489013671875
1.8199951171875
1.7474853515625
3.02607421875
3.02607421875
2.4161865234374997
2.8528564453125
2.7972656249999996
1.3986328124999998
0.02900390625
0.022558593749999998
0.0201416015625
0.0217529296875
0.0668701171875
0.214306640625
0.198193359375
0.575244140625
0.760546875
1.0513916015625
1.2745605468749999
1.3172607421875
1.3672119140624999
1.4638916015624999
1.4332763671875
0.024169921875
0.0281982421875
0.023364257812499997
0.34160156249999996
0.36093749999999997
1.7861572265624999
2.91650390625
3.0244628906249997
3.0268798828124996
3.0244628906249997
2.6417724609374997
2.34931640625
2.2913085937499997
2.3887939453125
2.4081298828124997
2.2888916015625
2.13662109375
2.0052978515624997
1.948095703125
1.8973388671875
1.7539306640624999
2.9688720703125
3.0244628906249997
3.027685546875
2.6014892578124997
2.8496337890624996
1.9279541015625
0.8129150390625
0.018530273437499998
0.0169189453125
0.026586914062499998
0.058813476562499994
0.2441162109375
0.35126953125
0.3029296875
0.7420166015624999
0.9216796875
1.1851318359375
1.329345703125
1.3768798828125
1.4429443359374998
1.5017578125
0.485009765625
0.023364257812499997
0.02578125
0.3746337890625
0.346435546875
0.9579345703125
1.9658203125
3.0236572265625
3.0268798828124996
3.0284912109374997
2.673193359375
2.4355224609375
2.2751953124999997
2.3638183593749997
2.3404541015625
2.338037109375
2.167236328125
2.0423583984375
2.012548828125
1.9021728515624998
1.770849609375
1.722509765625
3.02607421875
3.021240234375
2.715087890625
2.8464111328125
2.6103515625
1.0803955078125
0.023364257812499997
0.024169921875
0.022558593749999998
0.023364257812499997
0.13857421875
0.372216796875
0.27392578125
0.6670898437499999
0.8854248046875
1.18271484375
1.2818115234374998
1.3188720703124999
1.3921875
1.4703369140625
1.397021484375
0.023364257812499997
0.023364257812499997
0.35288085937499997
0.3544921875
0.8805908203124999
1.7982421874999999
3.0268798828124996
3.0252685546875
3.02607421875
2.7626220703124997
2.5757080078124996
2.3468994140625
2.4645263671874997
2.338037109375
2.3162841796875
2.1205078125
1.9996582031249999
1.973876953125
1.9102294921874998
1.8175781249999998
1.7184814453125
3.02607421875
3.027685546875
2.3009765625
2.856884765625
2.5837646484374996
1.3398193359375
0.019335937499999997
0.027392578124999997
0.022558593749999998
0.022558593749999998
0.141796875
0.26425781249999997
0.21672363281249998
0.6066650390625
0.863671875
1.103759765625
1.29228515625
1.3382080078124998
1.4139404296875
1.4703369140625
1.4356933593749999
0.024169921875
0.017724609375
0.022558593749999998
0.443115234375
0.6453369140624999
1.8038818359375
2.9656494140625
3.0309082031249996
3.0228515624999996
3.018017578125
2.5434814453124996
2.3557617187499997
2.27197265625
2.360595703125
2.36220703125
2.2341064453125
2.11083984375
1.9891845703125
1.89169921875
1.8417480468749998
1.7128417968749998
3.0244628906249997
3.02607421875
2.94873046875
2.69091796875
2.8399658203125
1.8635009765625
0.3053466796875
0.0169189453125
0.022558593749999998
0.024169921875
0.11762695312499999
0.2384765625
0.394775390625
0.5631591796875
0.8201660156249999
1.01513671875
1.26328125
1.3398193359375
1.3728515625
1.4228027343749998
1.4244140625
0.507568359375
0.0217529296875
0.020947265625
0.3826904296875
0.4036376953125
1.06669921875
2.8222412109375
3.02607421875
3.0252685546875
3.0252685546875
2.6594970703125
2.4065185546875
2.3114501953124997
2.3823486328125
2.3565673828125
2.296142578125
2.0584716796875
1.93681640625
1.9674316406249999
1.85947265625
1.7853515624999998
1.72412109375
3.02607421875
3.02607421875
2.5555664062499996
2.7916259765625
2.1076171875
1.0530029296874999
0.022558593749999998
0.020947265625
0.0217529296875
0.042700195312499994
0.14824218749999998
0.3440185546875
0.30856933593749997
0.6993164062499999
0.920068359375
1.1899658203124999
1.34384765625
1.3672119140624999
1.4356933593749999
1.533984375
1.4276367187499999
0.018530273437499998
0.0217529296875
0.575244140625
0.3955810546875
0.8523925781249999
1.8377197265624998
3.0268798828124996
3.0268798828124996
3.0228515624999996
2.6748046875
2.4709716796875
2.2993652343749997
2.4532470703125
2.318701171875
2.309033203125
2.1180908203124997
1.9521240234375
1.9867675781249998
1.8699462890624998
1.8385253906249999
1.7442626953125
3.0301025390625
3.02607421875
2.3259521484375
2.7577880859375
2.550732421875
1.3430419921874999
0.0249755859375
0.022558593749999998
0.023364257812499997
0.022558593749999998
0.16032714843749998
0.30615234375
0.22075195312499998
0.6251953124999999
0.920068359375
1.1609619140625
1.348681640625
1.3801025390625
1.4397216796874999
1.480810546875
1.405078125
0.022558593749999998
0.023364257812499997
0.022558593749999998
0.4004150390625
0.807275390625
1.8908935546874999
3.0252685546875
3.02607421875
3.0228515624999996
2.9358398437499997
2.487890625
2.354150390625
2.31064453125
2.141455078125
2.3307861328125
2.1809326171875
1.96904296875
1.9891845703125
1.9142578124999998
1.832080078125
1.7233154296875
3.0252685546875
3.0268798828124996
2.3718749999999997
2.6361328124999996
2.7964599609375
1.3365966796875
0.2457275390625
0.023364257812499997
0.022558593749999998
0.023364257812499997
0.1168212890625
0.265869140625
0.4447265625
0.6171386718749999
0.8177490234375
0.992578125
1.26005859375
1.3478759765625
1.3704345703124998
1.4791992187499998
1.4413330078125
0.43747558593749997
0.022558593749999998
0.023364257812499997
0.420556640625
0.36496582031249997
1.72412109375
2.83271484375
3.02607421875
3.029296875
3.0220458984375
2.6321044921874996
2.3968505859375
2.263916015625
2.3154785156249997
2.3001708984375
2.22041015625
2.035107421875
1.941650390625
1.9754882812499999
1.8570556640625
1.77890625
1.719287109375
3.0252685546875
3.0244628906249997
2.5998779296874996
2.8939453124999996
2.1487060546875
1.0401123046875
0.022558593749999998
0.018530273437499998
0.018530273437499998
0.024169921875
0.21108398437499998
0.356103515625
0.278759765625
0.7025390625
0.9804931640625
1.2093017578125
1.2890625
1.3688232421875
1.448583984375
1.5138427734375
1.4155517578124999
0.0201416015625
0.026586914062499998
0.5293212890625
0.35368652343749996
0.910400390625
1.8312744140625
3.0284912109374997
3.02607421875
3.0301025390625
2.6723876953124996
2.3960449218749997
2.2099365234375
2.4226318359375
2.3066162109375
2.3340087890625
2.1543457031249997
2.0149658203125
1.98837890625
1.8973388671875
1.8143554687499999
1.7289550781249998
3.0268798828124996
3.02607421875
2.6200195312499996
2.8174072265624996
2.6127685546875
1.41796875
0.024169921875
0.022558593749999998
0.024169921875
0.0249755859375
0.10957031249999999
0.30454101562499997
0.19094238281249998
