3.02607421875
2.744091796875
2.402490234375
2.215576171875
2.083447265625
2.1632080078125
2.0149658203125
1.9682373046875
1.8489990234375
1.7523193359375
1.7297607421874999
1.69189453125
1.6209960937499999
1.6161621093749998
3.0252685546875
3.0252685546875
2.5233398437499996
2.7416748046875
2.3887939453125
1.5686279296874999
0.022558593749999998
0.024169921875
0.026586914062499998
0.08701171875
0.2779541015625
0.4874267578125
0.45761718749999997
1.0634765625
1.1367919921875
1.3583496093749998
1.4477783203124999
1.480810546875
1.5347900390625
1.5645996093749999
1.5122314453124999
0.020947265625
0.0201416015625
1.2238037109375
0.8934814453125
1.219775390625
1.6564453124999998
3.0244628906249997
3.02607421875
3.0228515624999996
2.5233398437499996
2.1849609375
2.067333984375
2.102783203125
1.9150634765624999
1.98193359375
1.848193359375
1.7297607421874999
1.6314697265625
1.7055908203124999
1.65
1.748291015625
3.0220458984375
3.029296875
2.4830566406249996
2.7086425781249996
2.37509765625
1.3527099609375
0.7017333984374999
0.023364257812499997
0.02578125
0.017724609375
0.2715087890625
0.37785644531249996
0.49870605468749996
0.6856201171874999
1.0223876953125
1.26328125
1.3309570312499999
1.4461669921875
1.4518066406249999
1.53076171875
1.5057861328125
0.0249755859375
0.023364257812499997
1.2616699218749998
0.8531982421875
0.8757568359375
1.593603515625
3.027685546875
3.0381591796875
3.029296875
2.576513671875
2.2985595703125
2.1003662109375
2.0568603515625
1.980322265625
2.0431640625
1.9182861328124998
1.76279296875
1.7362060546875
1.8135498046874998
1.6524169921874998
1.5919921874999998
1.590380859375
3.0244628906249997
2.521728515625
2.5757080078124996
2.6844726562499996
1.622607421875
0.8024414062499999
0.0217529296875
0.023364257812499997
0.020947265625
0.2215576171875
0.323876953125
0.5309326171875
0.7017333984374999
0.88623046875
1.173046875
1.3365966796875
1.319677734375
1.4316650390624999
1.4461669921875
1.377685546875
1.2938964843749998
0.0217529296875
0.69287109375
1.0803955078125
0.7339599609374999
1.4630859374999998
2.1374267578125
3.0268798828124996
3.027685546875
2.6885009765624996
2.3871826171875
2.2147705078124997
2.018994140625
2.1704589843749997
2.01416015625
2.0004638671875
1.819189453125
1.7660156249999999
1.7893798828124998
1.6798095703125
1.6451660156249999
1.62744140625
3.021240234375
2.96484375
2.6039062499999996
1.80791015625
1.6725585937499998
1.2866455078124999
0.023364257812499997
0.02578125
0.0217529296875
0.159521484375
0.443115234375
0.7033447265624999
0.514013671875
1.094091796875
1.2882568359375
1.474365234375
1.5492919921875
1.5476806640624998
1.5525146484374999
1.6024658203125
1.4469726562499998
0.004833984374999999
0.023364257812499997
1.2479736328125
0.8805908203124999
1.126318359375
1.7893798828124998
3.0309082031249996
3.0236572265625
3.01962890625
2.5434814453124996
2.2026855468749997
2.1704589843749997
2.152734375
2.0326904296875
1.9625976562499998
1.89169921875
1.7781005859374999
1.6153564453125
1.7289550781249998
1.6435546875
1.6322753906249998
3.0244628906249997
3.0268798828124996
2.56845703125
2.57490234375
2.3742919921875
1.5791015625
0.019335937499999997
0.022558593749999998
0.023364257812499997
0.027392578124999997
0.21269531249999998
0.4326416015625
0.3053466796875
1.0401123046875
1.135986328125
1.3333740234375
1.4397216796874999
1.4493896484375
1.5114257812499998
1.4912841796874998
1.4800048828124999
0.022558593749999998
0.0249755859375
1.1851318359375
0.9482666015625
0.9087890624999999
1.7571533203124998
2.7972656249999996
3.02607421875
3.0268798828124996
2.785986328125
2.399267578125
2.1454833984375
2.099560546875
1.8892822265625
2.0278564453125
1.8941162109374998
1.7265380859375
1.7450683593749998
1.6927001953124998
1.6314697265625
1.5791015625
1.7772949218749998
3.0220458984375
2.4629150390625
2.513671875
2.49755859375
1.5637939453124998
0.6977050781249999
0.024169921875
0.022558593749999998
0.027392578124999997
0.078955078125
0.42539062499999997
0.5220703125
0.6759521484375
0.2900390625
0.9305419921875
1.2093017578125
1.4300537109375
1.5597656249999998
1.6000488281249998
1.5984375
0.022558593749999998
0.023364257812499997
1.013525390625
1.0763671875
0.9812988281249999
1.6951171875
2.370263671875
3.0252685546875
3.0252685546875
2.7094482421875
2.5579833984375
2.173681640625
2.0052978515624997
2.1704589843749997
2.0794189453125
1.9400390625
1.73056640625
1.7958251953125
1.7555419921875
1.6733642578124999
1.654833984375
1.654833984375
3.0236572265625
2.771484375
2.5249511718749997
2.6659423828124997
2.1583740234374997
0.863671875
0.0249755859375
0.022558593749999998
0.004833984374999999
0.2425048828125
0.330322265625
0.5631591796875
0.760546875
1.013525390625
1.2060791015624999
1.409912109375
1.4630859374999998
1.4268310546874998
1.4010498046875
1.5162597656249999
1.4542236328125
0.026586914062499998
0.58330078125
0.994189453125
0.8056640625
1.071533203125
2.096337890625
3.0244628906249997
3.0268798828124996
2.7739013671875
2.5031982421874996
2.2389404296874997
2.0439697265625
2.0971435546875
2.0576660156249997
1.948095703125
1.8183837890624999
1.7619873046874999
1.770849609375
1.7772949218749998
1.571044921875
1.545263671875
3.0268798828124996
3.0139892578125
2.5853759765624997
2.6103515625
2.2502197265625
1.5927978515624999
0.022558593749999998
0.0201416015625
0.022558593749999998
0.056396484375
0.17885742187499998
0.5051513671875
0.44150390624999997
1.0650878906249999
1.198828125
1.3237060546875
1.4195800781249999
1.4477783203124999
1.480810546875
1.3929931640625
1.4719482421874999
0.026586914062499998
0.020947265625
1.1537109374999999
0.8958984375
1.0320556640625
1.6967285156249998
2.9761230468749997
3.0252685546875
3.0268798828124996
2.6119628906249996
2.3372314453125
2.0488037109375
2.08828125
2.01416015625
1.9811279296875
1.8546386718749999
1.58232421875
1.7208984374999998
1.69189453125
1.6201904296874998
1.5702392578125
3.0284912109374997
3.0252685546875
2.5813476562499997
2.695751953125
2.3678466796874997
1.603271484375
0.022558593749999998
0.0217529296875
0.022558593749999998
0.0394775390625
0.262646484375
0.5132080078125
0.5647705078124999
0.9450439453124999
1.0916748046875
1.297119140625
1.4671142578124998
1.3212890625
1.4510009765624998
1.5073974609374998
1.4735595703125
0.024169921875
0.023364257812499997
1.110205078125
0.7661865234374999
0.8403076171874999
1.844970703125
2.7972656249999996
3.021240234375
3.029296875
2.5193115234374996
2.321923828125
2.0890869140625
2.067333984375
1.9118408203125
2.14306640625
1.8981445312499998
1.7660156249999999
1.7362060546875
1.7096191406249999
1.6242187499999998
1.606494140625
1.7362060546875
3.0268798828124996
2.5160888671875
2.5370361328124997
2.3646240234375
1.5662109375
0.7549072265625
0.019335937499999997
0.020947265625
0.020947265625
0.2900390625
0.502734375
0.5889404296874999
0.7379882812499999
1.1899658203124999
1.268115234375
1.3946044921874998
1.4518066406249999
1.45341796875
1.50498046875
1.3664062499999998
0.022558593749999998
0.023364257812499997
0.8314453125
0.9329589843749999
0.9482666015625
1.4953124999999998
2.1551513671875
3.01962890625
3.0228515624999996
2.889111328125
2.4814453125
2.1503173828124997
2.0036865234375
2.0906982421875
2.028662109375
1.82724609375
1.803076171875
1.7507080078125
1.738623046875
1.714453125
1.6379150390625
1.4993408203124998
3.0244628906249997
2.91328125
2.470166015625
2.5934326171874997
2.1277587890625
1.11826171875
0.023364257812499997
0.022558593749999998
0.023364257812499997
0.259423828125
0.4713134765625
0.7436279296874999
0.5679931640625
1.055419921875
1.268115234375
1.4203857421875
1.50498046875
1.619384765625
1.5686279296874999
1.78857421875
1.6234130859375
0.024169921875
0.027392578124999997
0.91201171875
0.7162353515625
0.9603515625
2.0496093749999997
3.02607421875
3.0244628906249997
2.9559814453124997
2.4435791015625
2.1744873046874997
1.9787109374999998
1.9859619140625
1.996435546875
1.9634033203124999
1.8062988281249999
1.7362060546875
1.8506103515624999
1.6910888671875
1.5654052734375
1.5782958984375
3.02607421875
2.9914306640625
2.5152832031249996
2.7352294921875
2.2260498046875
1.493701171875
0.022558593749999998
0.024169921875
0.024169921875
0.030615234374999998
0.28681640625
0.53173828125
0.53173828125
0.9732421874999999
1.0530029296874999
1.2963134765625
1.4034667968749999
1.4389160156249998
1.5992431640625
1.5114257812499998
1.4832275390624998
0.022558593749999998
0.0169189453125
1.1738525390624999
0.8209716796875
1.0658935546875
1.8135498046874998
2.8770263671875
3.027685546875
3.0268798828124996
2.5579833984375
2.32998046875
2.0818359374999997
2.0681396484375
1.8820312499999998
1.9134521484375
1.8989501953124999
2.0004638671875
1.8747802734374999
1.7168701171874998
1.5927978515624999
1.5525146484374999
3.02607421875
3.0284912109374997
2.4766113281249997
2.7046142578124996
2.462109375
1.409912109375
0.0281982421875
0.02578125
0.019335937499999997
0.024169921875
0.09023437499999999
0.391552734375
0.5091796875
0.9095947265625
1.0272216796875
1.2673095703125
1.3825195312499998
1.3583496093749998
1.4928955078125
1.5202880859374999
1.4896728515625
0.022558593749999998
0.022558593749999998
0.958740234375
0.8064697265624999
0.8362792968749999
1.6081054687499998
2.88427734375
3.0252685546875
3.02607421875
2.570068359375
2.354150390625
2.1301757812499997
1.993212890625
1.8546386718749999
2.0230224609375
1.9303710937499998
1.7829345703125
1.748291015625
1.7088134765624998
1.6209960937499999
1.6089111328124999
1.66611328125
3.021240234375
2.4435791015625
2.5064208984375
2.6232421875
1.590380859375
0.7718261718749999
0.0169189453125
0.022558593749999998
0.022558593749999998
0.230419921875
0.3424072265625
0.53173828125
0.720263671875
1.0239990234375
1.2777832031249998
1.3921875
1.4437499999999999
1.4832275390624998
1.529150390625
1.5114257812499998
1.364794921875
0.022558593749999998
0.75732421875
0.9635742187499999
0.855615234375
1.6089111328124999
2.2268554687499997
3.0228515624999996
3.0268798828124996
2.727978515625
2.3936279296875
2.1615966796875
2.0262451171875
2.0729736328125
2.083447265625
1.9311767578124999
1.78857421875
1.703173828125
1.7297607421874999
1.6459716796875
1.6878662109375
1.5839355468749998
3.0244628906249997
2.9108642578125
2.6482177734374996
2.785986328125
2.0947265625
1.4219970703125
0.022558593749999998
0.0201416015625
0.022558593749999998
0.020947265625
0.3552978515625
0.5607421874999999
0.53818359375
1.0046630859374999
1.2060791015624999
1.3510986328124999
1.31162109375
1.4469726562499998
1.5025634765625
1.6475830078125
1.4115234374999999
0.0201416015625
0.023364257812499997
1.17626953125
0.7863281249999999
0.9740478515625
1.7055908203124999
3.02607421875
3.0301025390625
3.027685546875
2.4161865234374997
2.20107421875
2.0069091796875
2.1535400390625
2.028662109375
1.9891845703125
1.85302734375
1.7466796875
1.6886718749999998
1.6959228515625
1.6072998046875
1.574267578125
3.0244628906249997
3.0188232421874996
2.5547607421875
2.6449951171875
2.2550537109374997
1.5106201171875
0.022558593749999998
0.022558593749999998
0.0249755859375
0.057202148437499996
0.310986328125
0.5349609375
0.4229736328125
1.019970703125
1.052197265625
1.297119140625
1.429248046875
1.5082031249999999
1.47275390625
1.50498046875
1.5251220703125
0.0217529296875
0.023364257812499997
1.213330078125
0.800830078125
1.0248046874999999
1.8844482421875
2.914892578125
3.01962890625
3.029296875
2.5330078124999997
2.3783203125
2.1624023437499997
2.0979492187499997
1.6685302734374998
1.989990234375
1.8224121093749999
1.7362060546875
1.738623046875
1.6814208984374999
1.6242187499999998
1.5122314453124999
3.027685546875
3.0284912109374997
2.4830566406249996
2.6232421875
2.402490234375
1.5509033203125
0.6533935546874999
0.023364257812499997
0.0217529296875
0.020947265625
0.217529296875
0.3988037109375
0.48581542968749997
0.72509765625
1.0530029296874999
1.2568359375
1.40830078125
1.329345703125
1.3946044921874998
1.4606689453125
1.4791992187499998
0.026586914062499998
0.022558593749999998
0.31904296875
0.8113037109375
0.9095947265625
1.783740234375
2.4032958984375
3.0268798828124996
3.0244628906249997
2.7626220703124997
2.3307861328125
2.1551513671875
1.996435546875
2.0173828124999997
2.07861328125
1.9762939453125
1.867529296875
1.7523193359375
1.7249267578124998
1.6830322265625
1.6081054687499998
1.6177734375
3.0220458984375
2.5894042968749997
2.5402587890625
2.7086425781249996
2.0874755859375
0.75087890625
0.023364257812499997
0.0217529296875
0.017724609375
0.16435546874999998
0.36093749999999997
0.407666015625
0.546240234375
0.881396484375
1.119873046875
1.3905761718749998
1.27294921875
1.4800048828124999
1.5315673828124998
1.545263671875
1.4735595703125
0.027392578124999997
0.0217529296875
0.30051269531249997
0.3762451171875
0.8612548828125
2.280029296875
3.02607421875
3.0244628906249997
3.02607421875
2.689306640625
2.44921875
2.3098388671875
2.2365234375
2.2131591796875
2.18173828125
1.9674316406249999
1.8844482421875
1.8763916015625
1.6798095703125
1.6556396484375
1.6451660156249999
3.0252685546875
3.0252685546875
3.0268798828124996
3.0244628906249997
2.5088378906249997
1.654833984375
0.022558593749999998
0.027392578124999997
0.020947265625
0.02578125
0.040283203125
0.2183349609375
0.11923828125
0.6968994140625
0.9990234375
1.1770751953125
1.3108154296874999
1.3913818359374999
1.461474609375
1.5380126953125
1.47275390625
0.023364257812499997
0.022558593749999998
0.027392578124999997
0.043505859375
0.5341552734375
1.4437499999999999
3.0252685546875
3.0244628906249997
3.0228515624999996
3.0228515624999996
2.6933349609375
2.5805419921875
2.6578857421874997
2.5708740234375
2.5757080078124996
2.2808349609375
2.080224609375
1.9787109374999998
1.8941162109374998
1.796630859375
1.4840332031249999
3.0252685546875
3.027685546875
3.0252685546875
3.0252685546875
2.9688720703125
1.9674316406249999
0.023364257812499997
0.02578125
0.0249755859375
0.023364257812499997
0.026586914062499998
0.027392578124999997
0.026586914062499998
0.9289306640624999
0.8725341796874999
1.0812011718749999
1.400244140625
1.1996337890625
1.1923828125
1.187548828125
1.110205078125
0.0217529296875
0.023364257812499997
0.0169189453125
0.020947265625
0.0249755859375
0.019335937499999997
0.037060546874999996
3.0236572265625
3.02607421875
3.0236572265625
3.021240234375
3.0252685546875
2.9414794921875
3.0244628906249997
3.0244628906249997
3.0284912109374997
3.02607421875
3.0284912109374997
3.01318359375
2.8810546875
2.8874999999999997
3.0188232421874996
3.027685546875
3.0236572265625
3.02607421875
3.0252685546875
3.029296875
3.0204345703124997
0.1426025390625
0.022558593749999998
0.023364257812499997
0.022558593749999998
0.0217529296875
0.022558593749999998
0.022558593749999998
0.022558593749999998
0.0169189453125
0.0217529296875
0.02578125
0.022558593749999998
0.022558593749999998
0.017724609375
0.023364257812499997
0.022558593749999998
0.022558593749999998
0.022558593749999998
0.0281982421875
0.026586914062499998
0.0217529296875
0.0281982421875
0.026586914062499998
0.0217529296875
0.024169921875
0.023364257812499997
0.0281982421875
0.5389892578125
1.1279296875
1.699951171875
2.1696533203125
2.4596923828125
2.8383544921875
3.027685546875
3.021240234375
3.021240234375
3.029296875
3.0244628906249997
3.0204345703124997
3.02607421875
3.0236572265625
3.02607421875
0.2578125
0.0217529296875
0.022558593749999998
0.026586914062499998
0.023364257812499997
0.023364257812499997
0.023364257812499997
0.0169189453125
0.026586914062499998
0.0217529296875
0.022558593749999998
0.0217529296875
0.024169921875
0.022558593749999998
0.027392578124999997
0.022558593749999998
0.0201416015625
0.0169189453125
0.02578125
0.022558593749999998
0.024169921875
0.024169921875
0.024169921875
0.026586914062499998
0.022558593749999998
0.0217529296875
0.0217529296875
0.022558593749999998
0.022558593749999998
1.0997314453125
1.5621826171875
1.98193359375
2.4371337890625
2.834326171875
3.0252685546875
3.02607421875
3.0228515624999996
3.0244628906249997
3.0236572265625
3.02607421875
3.0252685546875
3.0228515624999996
3.0236572265625
0.024169921875
0.024169921875
0.020947265625
0.022558593749999998
0.022558593749999998
0.022558593749999998
0.022558593749999998
0.0217529296875
0.0217529296875
0.023364257812499997
0.023364257812499997
0.022558593749999998
0.0217529296875
0.027392578124999997
0.0217529296875
0.0217529296875
0.022558593749999998
0.023364257812499997
0.023364257812499997
0.0217529296875
0.0217529296875
0.022558593749999998
0.0217529296875
0.023364257812499997
0.026586914062499998
0.0217529296875
0.023364257812499997
0.022558593749999998
0.107958984375
0.9015380859375
1.42119140625
1.9037841796875
2.5080322265625
2.827880859375
3.0204345703124997
3.0236572265625
3.0268798828124996
3.0236572265625
3.02607421875
3.027685546875
3.0268798828124996
3.0228515624999996
0.21672363281249998
0.023364257812499997
0.02578125
0.0249755859375
0.022558593749999998
0.0169189453125
0.0217529296875
0.027392578124999997
0.024169921875
0.023364257812499997
0.023364257812499997
0.027392578124999997
0.020947265625
0.026586914062499998
0.018530273437499998
0.0217529296875
0.0201416015625
0.0281982421875
0.024169921875
0.023364257812499997
0.024169921875
0.020947265625
0.026586914062499998
0.0443115234375
0.10957031249999999
0.1941650390625
0.2570068359375
0.31904296875
0.38913574218749997
0.591357421875
1.2238037109375
1.6427490234375
2.3952392578125
2.7972656249999996
3.0268798828124996
3.0268798828124996
3.0244628906249997
3.01962890625
3.0244628906249997
3.0268798828124996
3.01962890625
3.0268798828124996
0.50595703125
0.027392578124999997
0.024169921875
0.022558593749999998
0.018530273437499998
0.023364257812499997
0.019335937499999997
0.023364257812499997
0.026586914062499998
0.0362548828125
0.022558593749999998
0.017724609375
0.024169921875
0.024169921875
0.0958740234375
0.1740234375
0.24331054687499998
0.339990234375
0.394775390625
0.45358886718749997
0.5067626953125
0.572021484375
0.62197265625
0.6654785156249999
0.7178466796874999
0.75087890625
0.7903564453124999
0.839501953125
0.8709228515624999
0.9007324218749999
1.2221923828124999
1.754736328125
2.176904296875
2.578125
2.9640380859374997
3.0244628906249997
3.02607421875
3.0268798828124996
3.0244628906249997
3.0244628906249997
3.0252685546875
3.02607421875
3.0220458984375
3.0252685546875
1.4679199218749999
0.17885742187499998
0.0201416015625
0.022558593749999998
0.026586914062499998
0.020947265625
0.022558593749999998
0.023364257812499997
0.022558593749999998
0.0217529296875
0.0217529296875
0.022558593749999998
0.024169921875
0.049951171875
0.1554931640625
0.22880859374999998
0.2989013671875
0.36093749999999997
0.44633789062499996
0.5035400390625
0.5567138671874999
0.6211669921874999
0.6678955078125
0.7130126953125
0.7621582031249999
0.8096923828125
0.84755859375
1.5218994140625
1.9859619140625
2.2099365234375
2.7271728515625
3.0325195312499997
3.0236572265625
3.02607421875
3.029296875
3.0252685546875
3.029296875
3.0220458984375
3.0236572265625
3.0236572265625
3.027685546875
3.0236572265625
3.0268798828124996
0.800830078125
0.022558593749999998
0.027392578124999997
0.0217529296875
0.022558593749999998
0.022558593749999998
0.022558593749999998
0.02900390625
0.020947265625
0.0169189453125
0.024169921875
0.023364257812499997
0.0217529296875
0.02578125
0.0249755859375
0.0845947265625
0.18288574218749998
0.25620117187499997
0.3198486328125
0.3875244140625
0.46567382812499997
0.5196533203125
0.5728271484374999
0.6413085937499999
0.6832031249999999
0.7291259765625
1.1561279296875
1.641943359375
2.0230224609375
2.447607421875
3.0268798828124996
3.02607421875
3.0244628906249997
3.0317138671875
3.02607421875
3.0252685546875
3.0244628906249997
3.0252685546875
3.0228515624999996
3.0244628906249997
3.0236572265625
3.0252685546875
1.2624755859374999
0.022558593749999998
0.0169189453125
0.02578125
0.022558593749999998
0.02578125
0.022558593749999998
0.0217529296875
0.023364257812499997
0.022558593749999998
0.024169921875
0.042700195312499994
0.0217529296875
0.0217529296875
0.024169921875
0.069287109375
0.14421386718749998
0.2183349609375
0.2940673828125
0.3746337890625
0.439892578125
0.4970947265625
0.5687988281249999
0.620361328125
0.662255859375
0.7130126953125
0.7661865234374999
1.018359375
1.2205810546875
2.080224609375
2.402490234375
2.7336181640625
2.9575927734375
3.0220458984375
3.0228515624999996
3.0268798828124996
3.0236572265625
3.0236572265625
3.0204345703124997
3.029296875
3.0244628906249997
3.0188232421874996
1.6056884765625
0.0169189453125
0.0217529296875
0.022558593749999998
0.022558593749999998
0.0217529296875
0.023364257812499997
0.0217529296875
0.024169921875
0.020947265625
0.023364257812499997
0.023364257812499997
0.022558593749999998
0.019335937499999997
0.0523681640625
0.15791015625
0.2280029296875
0.2972900390625
0.36577148437499996
0.4406982421875
0.5035400390625
0.55751953125
0.6243896484375
0.6743408203125
0.7162353515625
0.775048828125
0.816943359375
1.3027587890624999
1.7152587890625
2.2051025390625
2.3759033203124997
2.8294921874999996
2.9865966796874996
3.0244628906249997
3.0236572265625
3.0268798828124996
3.029296875
3.027685546875
3.0244628906249997
3.027685546875
3.0236572265625
3.0204345703124997
2.5088378906249997
0.291650390625
0.0217529296875
0.0217529296875
0.0217529296875
0.0217529296875
0.0249755859375
0.0169189453125
0.0201416015625
0.022558593749999998
0.024169921875
0.02578125
0.0217529296875
0.0217529296875
0.018530273437499998
0.078955078125
0.1619384765625
0.2263916015625
0.323876953125
0.38510742187499997
0.45036621093749996
0.5196533203125
0.5768554687499999
0.623583984375
0.688037109375
0.7339599609374999
1.4574462890625
1.828857421875
2.31708984375
2.7086425781249996
2.985791015625
3.0244628906249997
3.0268798828124996
3.0228515624999996
3.027685546875
3.027685546875
3.0244628906249997
3.0268798828124996
3.02607421875
3.0244628906249997
3.02607421875
3.0268798828124996
3.0301025390625
1.010302734375
0.023364257812499997
0.018530273437499998
0.0217529296875
0.023364257812499997
0.023364257812499997
0.020947265625
0.023364257812499997
0.023364257812499997
0.02578125
0.0249755859375
0.022558593749999998
0.026586914062499998
0.023364257812499997
0.018530273437499998
0.022558593749999998
0.0298095703125
0.09345703124999999
0.1716064453125
0.26828613281249997
0.33757324218749996
0.39799804687499996
0.4552001953125
0.5309326171875
0.58974609375
1.2455566406249998
1.8651123046875
2.43310546875
2.69091796875
2.8375488281249996
3.0252685546875
3.0268798828124996
3.0236572265625
3.0252685546875
3.0252685546875
3.0220458984375
3.02607421875
3.0244628906249997
3.0244628906249997
3.021240234375
3.027685546875
3.0284912109374997
1.48564453125
0.022558593749999998
0.023364257812499997
0.0201416015625
0.020947265625
0.022558593749999998
0.022558593749999998
0.026586914062499998
0.022558593749999998
0.0217529296875
0.022558593749999998
0.019335937499999997
0.022558593749999998
0.0217529296875
0.022558593749999998
0.0281982421875
0.023364257812499997
0.026586914062499998
0.07009277343749999
0.17482910156249998
0.2441162109375
0.310986328125
0.39719238281249997
0.4552001953125
0.510791015625
1.51787109375
1.7893798828124998
2.7771240234374996
2.8391601562499997
3.02607421875
3.0252685546875
3.02607421875
3.027685546875
3.0244628906249997
3.0252685546875
3.02607421875
3.0236572265625
3.0228515624999996
3.021240234375
3.0236572265625
3.0284912109374997
3.0228515624999996
1.5436523437499998
0.0346435546875
0.022558593749999998
0.0217529296875
0.023364257812499997
0.01611328125
0.02578125
0.022558593749999998
0.022558593749999998
0.022558593749999998
0.019335937499999997
0.026586914062499998
0.0169189453125
0.023364257812499997
0.020947265625
0.019335937499999997
0.0064453125
0.020947265625
0.0249755859375
0.043505859375
0.1168212890625
0.21591796875
0.2900390625
0.3544921875
0.40927734374999997
1.1915771484375
1.9327880859375
2.4306884765625
2.9108642578125
2.753759765625
3.021240234375
3.0325195312499997
3.0317138671875
3.0244628906249997
3.02607421875
3.0244628906249997
3.027685546875
3.0325195312499997
3.0252685546875
3.0220458984375
3.0244628906249997
3.02607421875
3.0252685546875
0.5615478515625
0.020947265625
0.0217529296875
0.022558593749999998
0.02578125
0.0201416015625
0.022558593749999998
0.017724609375
0.024169921875
0.022558593749999998
0.026586914062499998
0.018530273437499998
0.022558593749999998
0.0217529296875
0.02578125
0.0201416015625
0.022558593749999998
0.020947265625
0.0217529296875
0.0322265625
0.124072265625
0.20463867187499998
0.2731201171875
0.3544921875
0.9676025390624999
1.780517578125
2.1358154296875
2.7247558593749996
2.98740234375
3.02607421875
3.0204345703124997
3.0268798828124996
3.0228515624999996
3.027685546875
3.021240234375
3.0244628906249997
3.0244628906249997
3.0244628906249997
3.0244628906249997
3.0244628906249997
3.0252685546875
3.0236572265625
1.4308593749999998
0.0201416015625
0.02578125
0.020947265625
0.0217529296875
0.027392578124999997
0.024169921875
0.0217529296875
0.017724609375
0.0201416015625
0.020947265625
0.026586914062499998
0.018530273437499998
0.0217529296875
0.017724609375
0.017724609375
0.0169189453125
0.0201416015625
0.018530273437499998
0.024169921875
0.0636474609375
0.13615722656249998
0.2102783203125
0.2989013671875
0.7677978515624999
1.397021484375
1.8344970703124999
2.6836669921875
2.6627197265625
3.029296875
3.0236572265625
3.0252685546875
3.02607421875
3.0268798828124996
3.0244628906249997
3.027685546875
3.029296875
3.0301025390625
3.02607421875
3.0252685546875
3.0252685546875
3.029296875
3.027685546875
0.024169921875
0.022558593749999998
0.018530273437499998
0.02578125
0.023364257812499997
0.027392578124999997
0.024169921875
0.023364257812499997
0.023364257812499997
0.022558593749999998
0.023364257812499997
0.0217529296875
0.0217529296875
0.0169189453125
0.027392578124999997
0.019335937499999997
0.0217529296875
0.022558593749999998
0.0201416015625
0.027392578124999997
0.0620361328125
0.15871582031249998
0.23686523437499998
0.29970703125
1.0094970703125
1.9142578124999998
2.3372314453125
2.7892089843749996
3.0284912109374997
3.0244628906249997
3.0268798828124996
3.02607421875
3.02607421875
3.0244628906249997
3.0228515624999996
3.0228515624999996
3.0236572265625
3.0244628906249997
3.0228515624999996
3.027685546875
3.02607421875
3.0252685546875
0.485009765625
0.0201416015625
0.019335937499999997
0.023364257812499997
0.022558593749999998
0.024169921875
0.041088867187499996
0.017724609375
0.022558593749999998
0.023364257812499997
0.0217529296875
0.022558593749999998
0.0217529296875
0.018530273437499998
0.0169189453125
0.0217529296875
0.0201416015625
0.018530273437499998
0.022558593749999998
0.024169921875
0.0443115234375
0.149853515625
0.22075195312499998
0.2908447265625
0.9240966796875
1.9537353515625
2.5088378906249997
2.6176025390624997
3.0301025390625
3.02607421875
3.0252685546875
3.02607421875
3.02607421875
3.021240234375
3.0252685546875
3.01962890625
3.0244628906249997
3.0244628906249997
3.0268798828124996
3.0252685546875
3.0236572265625
3.02607421875
1.34384765625
0.019335937499999997
0.026586914062499998
0.022558593749999998
0.020947265625
0.02578125
0.026586914062499998
0.0217529296875
0.019335937499999997
0.024169921875
0.022558593749999998
0.0281982421875
0.020947265625
0.0217529296875
0.0217529296875
0.02900390625
0.023364257812499997
0.027392578124999997
0.0217529296875
0.0281982421875
0.024169921875
0.08137207031249999
0.15629882812499998
0.233642578125
0.7242919921875
1.10859375
1.95615234375
2.5918212890624996
2.963232421875
3.0252685546875
3.0244628906249997
3.027685546875
3.02607421875
3.0252685546875
3.0244628906249997
3.0204345703124997
3.02607421875
3.0236572265625
3.0244628906249997
3.0309082031249996
3.0244628906249997
3.0268798828124996
3.02607421875
0.270703125
0.0281982421875
0.026586914062499998
0.027392578124999997
0.022558593749999998
0.02900390625
0.01611328125
0.01611328125
0.01611328125
0.0201416015625
0.026586914062499998
0.022558593749999998
0.017724609375
0.022558593749999998
0.0281982421875
0.024169921875
0.022558593749999998
0.0169189453125
0.0169189453125
0.027392578124999997
0.0475341796875
0.12890625
0.1998046875
0.5857177734375
1.1174560546874999
1.9182861328124998
2.312255859375
2.827880859375
3.0099609375
3.0252685546875
3.02607421875
3.027685546875
3.0244628906249997
3.0172119140625
3.029296875
3.0284912109374997
3.0244628906249997
3.0236572265625
3.02607421875
3.0309082031249996
3.0204345703124997
3.0252685546875
0.9337646484375
0.023364257812499997
0.020947265625
0.019335937499999997
0.0217529296875
0.017724609375
0.022558593749999998
0.022558593749999998
0.020947265625
0.024169921875
0.0217529296875
0.027392578124999997
0.022558593749999998
0.017724609375
0.0217529296875
0.024169921875
0.026586914062499998
0.022558593749999998
0.024169921875
0.022558593749999998
0.0314208984375
0.0990966796875
0.17885742187499998
0.269091796875
0.7339599609374999
1.5887695312499999
2.3718749999999997
2.7489257812499996
2.9519531249999997
3.02607421875
3.02607421875
3.0284912109374997
3.0236572265625
3.0244628906249997
3.0268798828124996
3.0252685546875
3.02607421875
3.0236572265625
3.02607421875
3.0204345703124997
3.0252685546875
3.0244628906249997
1.6089111328124999
0.0201416015625
0.023364257812499997
0.017724609375
0.022558593749999998
0.022558593749999998
0.020947265625
0.023364257812499997
0.0217529296875
0.023364257812499997
0.022558593749999998
0.0201416015625
0.026586914062499998
0.022558593749999998
0.024169921875
0.0217529296875
0.019335937499999997
0.020947265625
0.0249755859375
0.0249755859375
0.0249755859375
0.062841796875
0.1699951171875
0.24089355468749998
0.8693115234375
1.7152587890625
1.9827392578124998
2.85849609375
3.021240234375
3.029296875
3.02607421875
3.0268798828124996
3.029296875
3.01962890625
3.0228515624999996
3.0236572265625
3.0244628906249997
3.0244628906249997
3.0268798828124996
3.027685546875
3.0252685546875
3.0236572265625
2.9849853515625
0.307763671875
0.026586914062499998
0.018530273437499998
0.022558593749999998
0.023364257812499997
0.024169921875
0.0249755859375
0.0217529296875
0.022558593749999998
0.022558593749999998
0.024169921875
0.020947265625
0.0217529296875
0.022558593749999998
0.0217529296875
0.017724609375
0.023364257812499997
0.022558593749999998
0.022558593749999998
0.019335937499999997
0.023364257812499997
0.0966796875
0.1699951171875
0.2457275390625
1.1480712890625
1.9521240234375
2.2341064453125
2.914892578125
3.02607421875
3.0284912109374997
3.0220458984375
3.021240234375
3.0268798828124996
3.0252685546875
3.0228515624999996
3.0244628906249997
3.0244628906249997
3.0268798828124996
3.027685546875
3.0268798828124996
3.0236572265625
3.0244628906249997
0.7436279296874999
0.022558593749999998
0.023364257812499997
0.0201416015625
0.0249755859375
0.022558593749999998
0.022558593749999998
0.0201416015625
0.026586914062499998
0.023364257812499997
0.022558593749999998
0.019335937499999997
0.024169921875
0.024169921875
0.022558593749999998
0.027392578124999997
0.022558593749999998
0.022558593749999998
0.020947265625
0.023364257812499997
0.024169921875
0.0684814453125
0.1474365234375
0.21591796875
0.8644775390624999
1.3212890625
1.7474853515625
2.7086425781249996
2.88427734375
2.9737060546875
3.0236572265625
3.02607421875
2.9737060546875
3.027685546875
3.0244628906249997
3.0284912109374997
3.0236572265625
3.02607421875
3.0252685546875
3.0284912109374997
3.0244628906249997
3.027685546875
1.5847412109374999
0.020947265625
0.026586914062499998
0.020947265625
0.019335937499999997
0.00322265625
0.022558593749999998
0.023364257812499997
0.0201416015625
0.0249755859375
0.024169921875
0.023364257812499997
0.022558593749999998
0.023364257812499997
0.0217529296875
0.0217529296875
0.024169921875
0.023364257812499997
0.0217529296875
0.023364257812499997
0.024169921875
0.07412109374999999
0.1426025390625
0.2457275390625
0.8967041015624999
1.5186767578125
2.2308837890624997
2.7666503906249997
3.011572265625
3.0252685546875
3.0268798828124996
3.0252685546875
3.0252685546875
3.0244628906249997
3.02607421875
3.0244628906249997
3.0236572265625
3.027685546875
3.0252685546875
3.0236572265625
3.0252685546875
3.0244628906249997
3.0236572265625
0.4922607421875
0.0217529296875
0.027392578124999997
0.020947265625
0.0201416015625
0.0217529296875
0.024169921875
0.022558593749999998
0.022558593749999998
0.020947265625
0.02578125
0.022558593749999998
0.022558593749999998
0.019335937499999997
0.022558593749999998
0.022558593749999998
0.022558593749999998
0.023364257812499997
0.022558593749999998
0.022558593749999998
0.022558593749999998
0.0636474609375
0.1699951171875
0.240087890625
0.610693359375
1.5299560546875
1.87236328125
2.392822265625
2.6321044921874996
2.78759765625
3.0220458984375
2.8689697265625
3.0284912109374997
2.544287109375
3.0252685546875
3.0268798828124996
3.0244628906249997
3.0228515624999996
3.0252685546875
3.0252685546875
3.0252685546875
3.0252685546875
0.022558593749999998
0.022558593749999998
0.02578125
0.023364257812499997
0.020947265625
0.023364257812499997
0.0217529296875
0.022558593749999998
0.023364257812499997
0.023364257812499997
0.019335937499999997
0.023364257812499997
0.022558593749999998
0.027392578124999997
0.023364257812499997
0.018530273437499998
0.0217529296875
0.022558593749999998
0.0668701171875
0.1506591796875
0.22075195312499998
0.294873046875
0.37382812499999996
0.436669921875
0.4922607421875
1.4638916015624999
1.989990234375
2.360595703125
2.698974609375
2.7884033203125
2.977734375
3.0252685546875
3.0244628906249997
3.0244628906249997
3.0252685546875
3.0228515624999996
3.01962890625
3.0252685546875
3.02607421875
3.0220458984375
3.0244628906249997
3.0244628906249997
0.862060546875
0.022558593749999998
0.0249755859375
0.0217529296875
0.022558593749999998
0.022558593749999998
0.023364257812499997
0.0217529296875
0.023364257812499997
0.023364257812499997
0.026586914062499998
0.022558593749999998
0.0249755859375
0.020947265625
0.022558593749999998
0.023364257812499997
0.0217529296875
0.024169921875
0.08540039062499999
0.16032714843749998
0.233642578125
0.323876953125
0.38510742187499997
0.443115234375
0.5220703125
1.432470703125
2.101171875
2.5958496093749996
2.9479248046874997
3.02607421875
3.021240234375
3.0268798828124996
3.0244628906249997
3.027685546875
3.02607421875
3.0252685546875
3.0244628906249997
3.0244628906249997
3.0309082031249996
3.0252685546875
3.0284912109374997
3.0244628906249997
2.20107421875
0.022558593749999998
0.022558593749999998
0.023364257812499997
0.0217529296875
0.020947265625
0.023364257812499997
0.022558593749999998
0.0217529296875
0.022558593749999998
0.0217529296875
0.0169189453125
0.022558593749999998
0.02578125
0.023364257812499997
0.0217529296875
0.0217529296875
0.026586914062499998
0.024169921875
0.041088867187499996
0.11923828125
0.22075195312499998
0.28842773437499997
0.3544921875
1.2205810546875
1.75634765625
2.5330078124999997
2.9825683593749996
3.0244628906249997
3.02607421875
3.02607421875
3.0236572265625
3.0220458984375
3.0244628906249997
3.027685546875
3.02607421875
3.0301025390625
3.029296875
3.02607421875
3.0244628906249997
3.0244628906249997
3.01962890625
3.0236572265625
1.3180664062499998
0.018530273437499998
0.0217529296875
0.0217529296875
0.024169921875
0.023364257812499997
0.0298095703125
0.026586914062499998
0.0249755859375
0.023364257812499997
0.022558593749999998
0.0249755859375
0.023364257812499997
0.0217529296875
0.02578125
0.0217529296875
0.02900390625
0.024169921875
0.0217529296875
0.023364257812499997
0.0298095703125
0.0314208984375
0.104736328125
0.20463867187499998
1.0570312499999999
1.7015624999999999
2.7166992187499996
2.8834716796874997
3.0268798828124996
3.0236572265625
3.0252685546875
3.0244628906249997
3.0244628906249997
3.0268798828124996
3.0252685546875
3.0244628906249997
3.0236572265625
3.0244628906249997
3.0252685546875
3.021240234375
3.02607421875
3.0236572265625
2.9221435546874996
0.018530273437499998
0.023364257812499997
0.0217529296875
0.0217529296875
0.018530273437499998
0.022558593749999998
0.02578125
0.020947265625
0.022558593749999998
0.019335937499999997
0.017724609375
0.023364257812499997
0.02578125
0.017724609375
0.024169921875
0.020947265625
0.02578125
0.0217529296875
0.0217529296875
0.01611328125
0.024169921875
0.056396484375
0.1353515625
0.5994140625
1.1303466796875
1.9956298828124999
2.5676513671874996
2.8778320312499996
3.0204345703124997
3.0228515624999996
3.02607421875
3.0252685546875
3.0284912109374997
3.02607421875
3.0252685546875
3.02607421875
3.027685546875
3.029296875
3.0228515624999996
3.0236572265625
3.021240234375
3.0284912109374997
0.38188476562499996
0.022558593749999998
0.0281982421875
0.022558593749999998
0.022558593749999998
0.0217529296875
0.0217529296875
0.023364257812499997
0.027392578124999997
0.02578125
0.02578125
0.022558593749999998
0.023364257812499997
0.023364257812499997
0.019335937499999997
0.024169921875
0.023364257812499997
0.024169921875
0.0217529296875
0.020947265625
0.0249755859375
0.041088867187499996
0.11279296875
0.578466796875
1.3881591796875
2.1245361328125
2.4749999999999996
2.914892578125
3.02607421875
3.0244628906249997
3.0252685546875
3.0244628906249997
3.0244628906249997
3.02607421875
3.0228515624999996
3.0268798828124996
3.0244628906249997
3.0236572265625
3.02607421875
3.0252685546875
3.0244628906249997
3.0236572265625
1.155322265625
0.022558593749999998
0.0217529296875
0.027392578124999997
0.020947265625
0.0249755859375
0.023364257812499997
0.0169189453125
0.022558593749999998
0.0217529296875
0.022558593749999998
0.022558593749999998
0.0217529296875
0.026586914062499998
0.022558593749999998
0.0217529296875
0.022558593749999998
0.024169921875
0.0217529296875
0.023364257812499997
0.0217529296875
0.0217529296875
0.0443115234375
0.11843261718749999
0.8789794921874999
1.6322753906249998
1.957763671875
2.7142822265624997
2.979345703125
3.0107666015624996
3.02607421875
3.0252685546875
3.027685546875
3.029296875
3.0309082031249996
3.0252685546875
3.027685546875
3.021240234375
3.02607421875
3.0252685546875
3.0228515624999996
3.0228515624999996
2.4202148437499997
0.2505615234375
0.023364257812499997
0.0201416015625
0.019335937499999997
0.02578125
0.022558593749999998
0.022558593749999998
0.018530273437499998
0.0217529296875
0.022558593749999998
0.02578125
0.0217529296875
0.023364257812499997
0.0217529296875
0.017724609375
0.02578125
0.022558593749999998
0.026586914062499998
0.022558593749999998
0.024169921875
0.023364257812499997
0.0443115234375
0.1393798828125
0.6227783203124999
1.1432373046875
1.9166748046875
2.5338134765625
2.7851806640624996
2.8029052734374997
3.0252685546875
3.0244628906249997
3.0252685546875
3.0268798828124996
3.0301025390625
3.02607421875
3.0252685546875
3.0284912109374997
3.0252685546875
3.02607421875
3.0236572265625
3.0252685546875
3.0244628906249997
0.7677978515624999
0.027392578124999997
0.0217529296875
0.019335937499999997
0.022558593749999998
0.022558593749999998
0.022558593749999998
0.022558593749999998
0.022558593749999998
0.022558593749999998
0.024169921875
0.023364257812499997
0.022558593749999998
0.023364257812499997
0.026586914062499998
0.019335937499999997
0.0201416015625
0.0217529296875
0.022558593749999998
0.022558593749999998
0.018530273437499998
0.050756835937499994
0.14421386718749998
0.2199462890625
0.9724365234375
1.9053955078125
2.2405517578125
2.7884033203125
2.9495361328125
3.0244628906249997
3.0252685546875
3.0164062499999997
3.0188232421874996
3.02607421875
3.0228515624999996
3.0301025390625
3.0236572265625
3.0236572265625
3.021240234375
3.02607421875
3.0236572265625
3.0301025390625
0.9410156249999999
0.022558593749999998
0.02578125
0.02578125
0.024169921875
0.023364257812499997
0.018530273437499998
0.023364257812499997
0.023364257812499997
0.0217529296875
0.023364257812499997
0.022558593749999998
0.023364257812499997
0.02578125
0.023364257812499997
0.0201416015625
0.0217529296875
0.022558593749999998
0.018530273437499998
0.022558593749999998
0.0281982421875
0.02578125
0.11762695312499999
0.18852539062499998
0.8467529296874999
1.8626953124999999
2.0375244140624997
2.7465087890624997
2.7384521484374997
3.0268798828124996
3.02607421875
3.0244628906249997
3.0236572265625
3.0236572265625
3.0284912109374997
3.0236572265625
3.02607421875
3.0204345703124997
3.0244628906249997
3.0284912109374997
3.0236572265625
3.0252685546875
1.480810546875
0.024169921875
0.022558593749999998
0.017724609375
0.022558593749999998
0.026586914062499998
0.023364257812499997
0.017724609375
0.01611328125
0.019335937499999997
0.02578125
0.017724609375
0.0217529296875
0.0217529296875
0.02578125
0.0217529296875
0.022558593749999998
0.023364257812499997
0.027392578124999997
0.017724609375
0.023364257812499997
0.023364257812499997
0.0620361328125
0.146630859375
0.6260009765625
1.4284423828125
2.022216796875
2.5386474609375
2.9414794921875
3.0268798828124996
3.02607421875
3.0244628906249997
3.0228515624999996
3.0252685546875
3.0228515624999996
3.0252685546875
3.029296875
3.0220458984375
3.0284912109374997
3.0228515624999996
3.027685546875
3.027685546875
3.0244628906249997
0.1152099609375
0.020947265625
0.023364257812499997
0.022558593749999998
0.023364257812499997
0.023364257812499997
0.026586914062499998
0.026586914062499998
0.027392578124999997
0.022558593749999998
0.023364257812499997
0.024169921875
0.022558593749999998
0.017724609375
0.020947265625
0.020947265625
0.022558593749999998
0.026586914062499998
0.022558593749999998
0.022558593749999998
0.018530273437499998
0.0539794921875
0.12568359375
0.201416015625
0.42861328125
1.3430419921874999
1.944873046875
2.3436767578124997
2.4967529296874997
2.7021972656249997
2.795654296875
2.43955078125
2.4814453125
2.47177734375
3.02607421875
3.027685546875
3.0236572265625
3.0244628906249997
3.02607421875
3.0244628906249997
3.0244628906249997
3.027685546875
0.022558593749999998
0.0201416015625
0.0217529296875
0.02900390625
0.023364257812499997
0.022558593749999998
0.026586914062499998
0.023364257812499997
0.018530273437499998
0.022558593749999998
0.023364257812499997
0.022558593749999998
0.017724609375
0.026586914062499998
0.0217529296875
0.020947265625
0.023364257812499997
0.069287109375
0.149853515625
0.23525390624999998
0.31662597656249997
0.3794677734375
0.44553222656249997
0.517236328125
0.5647705078124999
1.2076904296875
1.7200927734375
2.3710693359375
2.657080078125
2.8351318359374997
2.96484375
3.02607421875
3.0252685546875
3.02607421875
3.029296875
3.0252685546875
3.0244628906249997
3.0228515624999996
3.0228515624999996
3.02607421875
3.0236572265625
3.0268798828124996
1.0078857421875
0.020947265625
0.022558593749999998
0.022558593749999998
0.022558593749999998
0.022558593749999998
0.0249755859375
0.0249755859375
0.019335937499999997
0.0201416015625
0.027392578124999997
0.020947265625
0.024169921875
0.022558593749999998
0.022558593749999998
0.02578125
0.024169921875
0.0765380859375
0.15791015625
0.22719726562499998
0.32065429687499997
0.3843017578125
0.4487548828125
0.5204589843749999
0.5768554687499999
1.16337890625
1.9062011718749998
2.5708740234375
2.9302001953124996
3.0268798828124996
3.0268798828124996
3.0236572265625
3.0228515624999996
3.02607421875
3.02607421875
3.01962890625
3.029296875
3.0236572265625
3.0236572265625
3.0252685546875
3.0244628906249997
3.0252685546875
3.0236572265625
3.02607421875
3.02607421875
3.0244628906249997
3.0244628906249997
3.02607421875
3.029296875
3.029296875
3.0228515624999996
3.0252685546875
3.0228515624999996
3.0244628906249997
3.0236572265625
3.0236572265625
0.022558593749999998
3.021240234375
3.0236572265625
3.0244628906249997
3.0252685546875
3.0228515624999996
3.0204345703124997
3.0244628906249997
3.0252685546875
3.0268798828124996
3.0244628906249997
3.02607421875
3.018017578125
3.0309082031249996
3.02607421875
3.0244628906249997
3.0220458984375
3.0301025390625
3.02607421875
3.0244628906249997
3.02607421875
3.027685546875
3.0228515624999996
3.0244628906249997
3.0244628906249997
3.0220458984375
3.0268798828124996
3.0244628906249997
1.9489013671875
1.3237060546875
1.7426513671875
2.333203125
3.0252685546875
3.0252685546875
3.021240234375
3.029296875
3.0236572265625
3.0244628906249997
3.01962890625
3.0252685546875
3.0236572265625
3.0220458984375
0.023364257812499997
0.027392578124999997
0.0281982421875
0.022558593749999998
0.5164306640624999
1.9118408203125
3.027685546875
3.0228515624999996
3.0284912109374997
3.0204345703124997
3.0301025390625
3.027685546875
3.0220458984375
3.027685546875
3.0252685546875
3.02607421875
3.0236572265625
2.914892578125
2.784375
2.550732421875
2.3323974609375
3.02607421875
3.021240234375
3.0268798828124996
3.02607421875
3.0228515624999996
2.183349609375
0.40927734374999997
0.023364257812499997
0.0249755859375
0.022558593749999998
0.0201416015625
0.0249755859375
0.023364257812499997
0.0201416015625
0.027392578124999997
0.022558593749999998
0.091845703125
0.022558593749999998
0.08056640625
0.2360595703125
0.15629882812499998
0.023364257812499997
0.0249755859375
0.0217529296875
0.022558593749999998
0.0217529296875
0.95390625
2.5974609374999997
3.02607421875
3.02607421875
3.0228515624999996
3.0252685546875
2.6788330078125
2.354150390625
2.1487060546875
2.07216796875
1.8409423828125
1.52109375
1.43408203125
1.3390136718749999
1.152099609375
1.071533203125
0.9804931640625
3.0244628906249997
3.0244628906249997
3.0309082031249996
3.029296875
1.8087158203125
0.4068603515625
0.02578125
0.022558593749999998
0.022558593749999998
0.027392578124999997
0.024169921875
0.027392578124999997
0.020947265625
0.10231933593749999
0.14824218749999998
0.265869140625
0.2634521484375
0.31904296875
0.40605468749999996
0.475341796875
0.5051513671875
0.023364257812499997
0.022558593749999998
0.026586914062499998
0.022558593749999998
0.88623046875
1.9658203125
3.0252685546875
3.0268798828124996
3.02607421875
3.0228515624999996
2.6901123046874997
2.10439453125
2.1906005859374997
1.9666259765624998
1.844970703125
1.5919921874999998
1.482421875
1.3390136718749999
1.206884765625
1.1537109374999999
1.134375
3.0309082031249996
3.0220458984375
3.02607421875
3.0236572265625
2.6208251953125
1.6830322265625
0.022558593749999998
0.027392578124999997
0.023364257812499997
0.022558593749999998
0.022558593749999998
0.0217529296875
0.0217529296875
0.451171875
0.5083740234374999
0.6823974609375
0.849169921875
0.936181640625
1.0530029296874999
1.1239013671875
1.05380859375
0.023364257812499997
0.024169921875
0.022558593749999998
0.022558593749999998
0.6509765624999999
1.8095214843749998
3.0252685546875
3.0244628906249997
3.0244628906249997
3.0236572265625
2.6901123046874997
2.3904052734375
2.384765625
2.1358154296875
2.10439453125
1.883642578125
1.6927001953124998
1.6234130859375
1.5525146484374999
1.4550292968749998
1.284228515625
3.0236572265625
3.0309082031249996
3.0236572265625
3.0252685546875
2.642578125
1.609716796875
0.020947265625
0.019335937499999997
0.0217529296875
0.024169921875
0.022558593749999998
0.0580078125
0.022558593749999998
0.42539062499999997
0.5921630859375
0.865283203125
1.1335693359374999
1.184326171875
1.2785888671874999
1.3398193359375
1.31162109375
0.0217529296875
0.0217529296875
0.023364257812499997
0.022558593749999998
0.32065429687499997
1.4445556640625
3.021240234375
3.0309082031249996
3.027685546875
3.0244628906249997
2.8149902343749997
2.4282714843749997
2.3581787109375
2.2663330078125
2.2373291015625
2.0455810546874997
1.6483886718749998
1.6806152343749998
1.658056640625
1.5839355468749998
1.5492919921875
1.5460693359375
3.0268798828124996
3.0252685546875
2.947119140625
3.0268798828124996
1.7748779296875
0.69287109375
0.022558593749999998
0.022558593749999998
0.022558593749999998
0.042700195312499994
0.0845947265625
0.169189453125
0.32871093749999997
0.6985107421875
1.0562255859375
1.3212890625
1.4042724609375
1.4477783203124999
1.4928955078125
1.4872558593749998
1.3728515625
0.0217529296875
0.027392578124999997
0.023364257812499997
0.141796875
1.4558349609374999
2.5209228515624997
3.0244628906249997
3.0244628906249997
3.029296875
2.8053222656249996
2.4749999999999996
2.26875
2.273583984375
2.2034912109375
2.1076171875
1.9585693359374998
1.85947265625
1.80791015625
1.6967285156249998
1.525927734375
1.606494140625
3.02607421875
3.0244628906249997
3.005126953125
3.018017578125
2.41376953125
1.50498046875
0.022558593749999998
0.023364257812499997
0.022558593749999998
0.023364257812499997
0.07814941406249999
0.24089355468749998
0.08056640625
0.7500732421874999
0.9144287109375
1.219775390625
1.4252197265625
1.4389160156249998
1.5090087890625
1.5533203125
1.4373046875
0.023364257812499997
0.027392578124999997
0.1168212890625
0.18449707031249998
0.823388671875
1.7507080078125
3.0236572265625
3.02607421875
3.02607421875
2.7626220703124997
2.586181640625
2.3912109375
2.495947265625
2.3662353515625
2.2349121093749997
2.0431640625
1.8264404296874999
1.8828369140624999
1.7442626953125
1.6089111328124999
1.5815185546875
3.02607421875
3.027685546875
2.8995849609374997
2.9438964843749997
2.5515380859374996
1.6048828124999999
0.022558593749999998
0.023364257812499997
0.022558593749999998
0.0217529296875
0.0837890625
0.24733886718749998
0.1152099609375
0.7806884765625
0.8451416015625
1.2455566406249998
1.3825195312499998
1.4381103515625
1.6669189453125
1.5895751953125
1.51787109375
0.0217529296875
0.024169921875
0.026586914062499998
0.116015625
0.631640625
1.944873046875
3.029296875
3.029296875
3.0268798828124996
2.9221435546874996
2.5555664062499996
2.431494140625
2.386376953125
2.0552490234375
2.193017578125
2.0496093749999997
1.883642578125
1.8602783203125
1.7877685546875
1.6854492187499999
1.62744140625
3.0244628906249997
3.0244628906249997
2.7465087890624997
2.72958984375
2.57490234375
1.5541259765625
0.49467773437499996
0.022558593749999998
0.0249755859375
0.019335937499999997
0.08137207031249999
0.2376708984375
0.31340332031249996
0.5099853515625
0.910400390625
1.1577392578124999
1.3430419921874999
1.3688232421875
1.53076171875
1.593603515625
1.546875
0.0217529296875
0.022558593749999998
0.023364257812499997
0.1941650390625
0.42861328125
1.5718505859374998
2.60068359375
3.02607421875
3.029296875
3.0236572265625
2.591015625
2.4242431640624997
2.2792236328124997
2.3017822265625
2.415380859375
2.205908203125
2.0109375
1.8780029296874998
1.8506103515624999
1.7724609375
1.5412353515625
1.590380859375
3.0244628906249997
2.95517578125
2.6578857421874997
2.9430908203125
2.157568359375
0.549462890625
0.0217529296875
0.019335937499999997
0.022558593749999998
0.214306640625
0.169189453125
0.26748046875
0.4326416015625
0.760546875
0.968408203125
1.264892578125
1.4461669921875
1.464697265625
1.5001464843749999
1.474365234375
1.3994384765624999
0.026586914062499998
0.023364257812499997
0.26828613281249997
0.30937499999999996
0.9160400390625
2.5354248046874996
3.0204345703124997
3.0268798828124996
3.0204345703124997
2.7585937499999997
2.5225341796875
2.3726806640625
2.392822265625
2.2905029296875
2.24619140625
1.989990234375
1.9279541015625
1.8667236328124999
1.74345703125
1.7128417968749998
1.6943115234375
3.0252685546875
3.0252685546875
2.8955566406249997
2.908447265625
2.333203125
1.4945068359375
0.0217529296875
0.024169921875
0.0169189453125
0.024169921875
0.165966796875
0.34885253906249997
0.21672363281249998
0.7355712890624999
1.0376953125
1.3043701171875
1.4348876953124998
1.4598632812499999
1.5275390624999998
1.5509033203125
1.4373046875
0.027392578124999997
0.022558593749999998
0.020947265625
0.2731201171875
0.765380859375
1.8498046874999998
3.0252685546875
3.0244628906249997
3.0268798828124996
2.8834716796874997
2.5587890625
2.3468994140625
2.463720703125
2.408935546875
2.2228271484374997
2.0310791015625
1.8908935546874999
1.87236328125
1.8570556640625
1.7893798828124998
1.6604736328124998
3.0244628906249997
3.0204345703124997
2.7892089843749996
2.9720947265624997
2.5402587890625
1.332568359375
0.019335937499999997
0.0217529296875
0.022558593749999998
0.022558593749999998
0.0394775390625
0.275537109375
0.278759765625
0.8741455078125
0.9216796875
1.0852294921874999
1.4026611328124998
1.413134765625
1.5017578125
1.5597656249999998
1.46953125
0.022558593749999998
0.018530273437499998
0.023364257812499997
0.175634765625
0.5567138671874999
1.7764892578125
3.0252685546875
3.0252685546875
3.0284912109374997
2.8383544921875
2.6272705078125
2.3291748046875
2.3227294921875
2.135009765625
2.333203125
2.1696533203125
1.9569580078125
1.8715576171875
1.8143554687499999
1.71123046875
1.6491943359374999
2.0302734375
3.0268798828124996
2.7497314453125
2.7400634765625
2.8931396484375
1.5718505859374998
0.510791015625
0.023364257812499997
0.0201416015625
0.0217529296875
0.0459228515625
0.217529296875
0.327099609375
0.5260986328125
0.7806884765625
1.1384033203125
1.3583496093749998
1.456640625
1.513037109375
1.5726562499999999
1.5355957031249998
0.992578125
0.022558593749999998
0.023364257812499997
0.269091796875
0.233642578125
1.561376953125
2.5088378906249997
3.0244628906249997
3.0244628906249997
3.02607421875
2.7352294921875
2.4911132812499996
2.3307861328125
2.487890625
2.33642578125
2.230078125
2.0230224609375
1.896533203125
1.844970703125
1.6765869140624998
1.6927001953124998
1.6306640625
3.0284912109374997
3.02607421875
2.9704833984374996
2.876220703125
2.165625
1.400244140625
0.024169921875
0.024169921875
0.027392578124999997
0.02578125
0.15227050781249998
0.2892333984375
0.1297119140625
0.7790771484375
1.0973144531249999
1.2947021484374999
1.4679199218749999
1.4590576171874998
1.5138427734375
1.561376953125
1.3986328124999998
0.02578125
0.022558593749999998
0.11359863281249999
0.22880859374999998
0.8266113281249999
1.7490966796874998
3.0301025390625
3.029296875
3.027685546875
2.744091796875
2.6530517578125
2.4177978515625
2.450830078125
2.338037109375
2.3074218749999997
2.135009765625
1.972265625
1.893310546875
1.812744140625
1.7297607421874999
1.6781982421875
3.0244628906249997
3.0228515624999996
2.889111328125
2.9559814453124997
2.616796875
1.5799072265624998
0.0281982421875
0.022558593749999998
0.027392578124999997
0.022558593749999998
0.061230468749999996
0.22719726562499998
0.09345703124999999
0.7984130859374999
0.9224853515625
1.2318603515625
1.4155517578124999
1.4107177734374998
1.5009521484375
1.5782958984375
1.47275390625
0.0201416015625
0.020947265625
0.019335937499999997
0.0733154296875
0.6469482421874999
1.740234375
3.0284912109374997
3.0236572265625
3.0252685546875
2.88427734375
2.69091796875
2.3807373046875
2.5450927734374997
2.1728759765625
2.2695556640625
2.10439453125
1.9279541015625
1.9529296875
1.8949218749999999
1.7660156249999999
1.699951171875
3.0188232421874996
3.0244628906249997
2.7126708984374996
2.9197265624999997
2.6039062499999996
1.5726562499999999
0.6695068359374999
0.022558593749999998
0.0217529296875
0.020947265625
0.0829833984375
0.2666748046875
0.2586181640625
0.44553222656249997
0.8789794921874999
1.14404296875
1.319677734375
1.4655029296875
1.5444580078124999
1.5637939453124998
1.5509033203125
0.022558593749999998
0.023364257812499997
0.022558593749999998
0.1740234375
0.5454345703125
1.5968261718749999
2.663525390625
3.0236572265625
3.0252685546875
3.0252685546875
2.737646484375
2.5249511718749997
2.38154296875
2.20751953125
2.389599609375
2.1841552734375
1.9537353515625
1.915869140625
1.896533203125
1.7692382812499998
1.6773925781249999
1.899755859375
3.0252685546875
2.85205078125
2.7626220703124997
2.9116699218749997
2.131787109375
0.5841064453125
0.024169921875
0.022558593749999998
0.022558593749999998
0.088623046875
0.1409912109375
0.36899414062499997
0.472119140625
0.8580322265625
1.095703125
1.4469726562499998
1.4389160156249998
1.4461669921875
1.4767822265625
1.4703369140625
1.0465576171875
0.022558593749999998
0.023364257812499997
0.17885742187499998
0.1458251953125
0.8830078124999999
2.502392578125
3.0268798828124996
3.0236572265625
3.02607421875
2.7650390624999996
2.582958984375
2.3138671875
2.4065185546875
2.2614990234375
2.255859375
2.0254394531249997
1.9295654296875
1.8820312499999998
1.7934082031249998
1.722509765625
1.6773925781249999
3.029296875
3.0204345703124997
2.8391601562499997
2.9785400390624996
2.3638183593749997
1.482421875
0.0249755859375
0.022558593749999998
0.026586914062499998
0.023364257812499997
0.08540039062499999
0.223974609375
0.1571044921875
0.6936767578124999
0.9740478515625
1.1754638671875
1.2906738281249999
1.3929931640625
1.49853515625
1.6089111328124999
1.4928955078125
0.0169189453125
0.022558593749999998
0.022558593749999998
0.12165527343749999
0.646142578125
1.5509033203125
3.0236572265625
3.01962890625
3.02607421875
3.0043212890624997
2.6788330078125
2.5007812499999997
2.5845703125
2.3533447265625
2.292919921875
2.152734375
1.9424560546874998
1.9271484374999999
1.867529296875
1.7587646484375
1.66611328125
3.0244628906249997
3.0244628906249997
2.7569824218749996
3.027685546875
2.6224365234375
1.5968261718749999
0.023364257812499997
0.023364257812499997
0.0443115234375
0.018530273437499998
0.054785156249999994
0.030615234374999998
0.0580078125
0.7178466796874999
0.7839111328124999
1.1899658203124999
1.239111328125
1.3656005859375
1.4493896484375
1.5355957031249998
1.4284423828125
0.017724609375
0.022558593749999998
0.0249755859375
0.0684814453125
0.485009765625
1.5380126953125
3.0309082031249996
3.0236572265625
3.0244628906249997
3.018017578125
2.8037109375
2.6361328124999996
2.4532470703125
2.32998046875
2.4419677734375
2.312255859375
2.0713623046875
2.075390625
1.899755859375
1.7490966796874998
1.703173828125
3.0228515624999996
3.0252685546875
2.9181152343749996
3.0236572265625
3.0107666015624996
1.6975341796874999
0.5663818359375
0.022558593749999998
0.0217529296875
0.020947265625
0.053173828124999996
0.09426269531249999
0.107958984375
0.43344726562499997
0.7073730468749999
0.9490722656249999
1.2101074218749999
1.2955078125
1.3768798828125
1.3849365234375
1.4219970703125
0.24733886718749998
0.018530273437499998
0.022558593749999998
0.027392578124999997
0.1329345703125
1.4703369140625
2.534619140625
3.027685546875
3.02607421875
3.0244628906249997
2.8456054687499996
2.6562744140624996
2.502392578125
2.5289794921874997
2.4661376953125
2.1180908203124997
2.0093261718749997
1.9190917968749999
1.864306640625
1.9343994140624998
1.73056640625
1.662890625
3.0244628906249997
3.0252685546875
3.0244628906249997
3.0244628906249997
2.2212158203125
1.2769775390625
0.023364257812499997
0.020947265625
0.0217529296875
0.022558593749999998
0.024169921875
0.20625
0.1377685546875
0.5051513671875
0.8677001953125
1.095703125
1.2665039062499999
1.3623779296874998
1.4477783203124999
1.5001464843749999
1.2987304687499999
0.0217529296875
0.022558593749999998
0.0217529296875
0.02900390625
0.7146240234375
1.5984375
3.0228515624999996
3.0252685546875
3.0284912109374997
2.99384765625
2.7134765625
2.5386474609375
2.6756103515625
2.4613037109375
2.3871826171875
2.1648193359375
1.9779052734375
1.93681640625
1.812744140625
1.748291015625
1.6967285156249998
3.0268798828124996
3.0244628906249997
3.0228515624999996
3.0252685546875
2.7408691406249996
1.590380859375
0.024169921875
0.022558593749999998
0.023364257812499997
0.0201416015625
0.0281982421875
0.11440429687499999
0.030615234374999998
0.49870605468749996
0.7774658203125
0.984521484375
1.1964111328125
1.3180664062499998
1.4276367187499999
1.5331787109375
1.48564453125
0.0217529296875
0.0201416015625
0.02578125
0.024169921875
0.4713134765625
1.5275390624999998
3.0244628906249997
3.0220458984375
3.02607421875
3.0091552734375
2.76181640625
2.5467041015625
2.6844726562499996
2.5338134765625
2.4041015624999997
2.260693359375
2.1003662109375
2.0520263671875
2.0246337890625
1.79501953125
1.6951171875
3.021240234375
3.0236572265625
2.8302978515625
3.0252685546875
2.7223388671874997
1.6379150390625
0.33837890625
0.0217529296875
0.023364257812499997
0.022558593749999998
0.023364257812499997
0.1200439453125
0.0620361328125
0.43747558593749997
0.7395996093749999
1.013525390625
1.2141357421874999
1.2866455078124999
1.393798828125
1.3551269531249999
1.4026611328124998
0.027392578124999997
0.024169921875
0.022558593749999998
0.02900390625
0.44633789062499996
1.5347900390625
2.6385498046875
3.0252685546875
3.0244628906249997
3.0252685546875
2.889111328125
2.6143798828125
2.5209228515624997
2.5241455078125
2.4604980468749997
2.2550537109374997
2.1019775390624997
1.9472900390624999
1.843359375
1.7652099609374998
1.6862548828125
3.0043212890624997
3.027685546875
3.0268798828124996
3.0268798828124996
3.0204345703124997
2.165625
1.1754638671875
0.022558593749999998
0.0217529296875
0.026586914062499998
0.026586914062499998
0.018530273437499998
0.16032714843749998
0.1393798828125
0.662255859375
0.910400390625
1.158544921875
1.3180664062499998
1.2930908203125
1.4477783203124999
1.4872558593749998
0.314208984375
0.0217529296875
0.027392578124999997
0.024169921875
0.12568359375
0.8064697265624999
1.670947265625
3.0252685546875
3.0252685546875
3.0236572265625
2.8383544921875
2.6603027343749996
2.5241455078125
2.6240478515624996
2.4685546874999997
2.44921875
2.2196044921875
1.9940185546875
2.0649169921875
1.8441650390625
1.7007568359374998
1.6403320312499998
3.029296875
3.0236572265625
3.0252685546875
3.0268798828124996
2.7948486328124997
1.327734375
0.023364257812499997
0.022558593749999998
0.0217529296875
0.022558593749999998
0.0281982421875
0.13857421875
0.0749267578125
0.49790039062499997
0.752490234375
1.0820068359375
1.2181640624999999
1.319677734375
1.4228027343749998
1.5799072265624998
1.4348876953124998
0.022558593749999998
0.022558593749999998
0.0169189453125
0.057202148437499996
0.348046875
1.5275390624999998
3.0244628906249997
3.0204345703124997
3.027685546875
2.96162109375
2.747314453125
2.5434814453124996
2.7303955078124997
2.57490234375
2.4234375
2.2389404296874997
2.0689453125
2.0173828124999997
1.9150634765624999
1.7603759765625
1.6806152343749998
3.0244628906249997
3.0244628906249997
2.85205078125
3.0252685546875
2.9076416015624997
1.7507080078125
0.2376708984375
0.022558593749999998
0.0249755859375
0.022558593749999998
0.0217529296875
0.15146484375
0.027392578124999997
0.41008300781249996
0.733154296875
0.9611572265624999
1.2012451171875
1.155322265625
1.40185546875
1.4920898437499999
1.48564453125
0.0249755859375
0.0281982421875
0.020947265625
0.023364257812499997
0.49870605468749996
1.5686279296874999
2.5410644531249997
3.0244628906249997
3.0252685546875
3.02607421875
2.8141845703125
2.7030029296875
2.6546630859375
2.4371337890625
2.466943359375
2.3307861328125
2.11083984375
2.0069091796875
1.89169921875
1.815966796875
1.7152587890625
3.0244628906249997
3.0244628906249997
3.0188232421874996
3.0236572265625
3.0075439453125
2.028662109375
0.39799804687499996
0.027392578124999997
0.027392578124999997
0.022558593749999998
0.022558593749999998
0.050756835937499994
0.1039306640625
0.34965820312499996
0.61552734375
0.88623046875
1.2101074218749999
1.3011474609375
1.3744628906249998
1.5347900390625
1.4477783203124999
0.027392578124999997
0.0249755859375
0.019335937499999997
0.022558593749999998
0.146630859375
1.0111083984375
2.6014892578124997
3.0236572265625
3.0244628906249997
3.02607421875
2.8778320312499996
2.7142822265624997
2.5555664062499996
2.5708740234375
2.4911132812499996
2.3718749999999997
2.11083984375
2.0004638671875
1.9634033203124999
1.8256347656249998
1.7176757812499999
1.5670166015625
3.0236572265625
3.0236572265625
2.9930419921875
3.02607421875
2.1035888671875
1.135986328125
0.023364257812499997
0.027392578124999997
0.018530273437499998
0.022558593749999998
0.0217529296875
0.146630859375
0.16032714843749998
0.48581542968749997
0.760546875
1.0803955078125
1.2012451171875
1.3390136718749999
1.5017578125
1.5364013671874999
1.590380859375
0.022558593749999998
0.023364257812499997
0.019335937499999997
0.033032226562499996
0.8266113281249999
1.5170654296875
3.021240234375
3.0252685546875
3.0268798828124996
2.94873046875
2.7561767578125
2.4943359375
2.6353271484375
2.5587890625
2.402490234375
2.1906005859374997
2.101171875
1.9311767578124999
1.8747802734374999
1.7370117187499998
1.6669189453125
3.02607421875
3.027685546875
2.9036132812499997
3.0236572265625
2.7835693359375
1.82080078125
0.0249755859375
0.022558593749999998
0.0169189453125
0.022558593749999998
0.023364257812499997
0.09748535156249999
0.022558593749999998
0.41572265625
0.8096923828125
1.0086914062499999
1.2221923828124999
1.3502929687499998
1.4389160156249998
1.4751708984374998
1.41796875
0.020947265625
0.0217529296875
0.022558593749999998
0.072509765625
0.5148193359375
1.590380859375
3.0228515624999996
3.0252685546875
3.0244628906249997
3.021240234375
2.7803466796875
2.6401611328124996
2.65546875
2.5660400390625
2.5732910156249997
2.367041015625
2.1100341796874997
2.0294677734374997
1.9078125
1.767626953125
1.5984375
3.01962890625
3.0252685546875
2.83271484375
3.0228515624999996
2.9140869140624996
1.6540283203125
0.17724609375
0.022558593749999998
0.020947265625
0.022558593749999998
0.023364257812499997
0.041088867187499996
0.0249755859375
0.39396972656249996
0.6646728515625
0.9385986328125
1.2189697265625
1.2914794921875
1.4115234374999999
1.490478515625
1.4977294921875
0.0281982421875
0.0217529296875
0.024169921875
0.027392578124999997
0.165966796875
1.8707519531249999
2.5644287109375
3.02607421875
3.0252685546875
3.0204345703124997
2.8456054687499996
2.679638671875
2.5595947265624996
2.5475097656249996
2.5354248046874996
2.3138671875
2.1245361328125
2.031884765625
1.92392578125
1.754736328125
1.674169921875
1.6242187499999998
3.0244628906249997
3.0284912109374997
2.9326171875
3.0123779296874997
2.070556640625
0.9893554687499999
0.022558593749999998
0.018530273437499998
0.0249755859375
0.02578125
0.0555908203125
0.116015625
0.1313232421875
0.5180419921875
0.9144287109375
1.1641845703125
1.3422363281249998
1.3897705078125
1.4228027343749998
1.4920898437499999
1.4091064453125
0.022558593749999998
0.023364257812499997
0.0217529296875
0.15468749999999998
1.026416015625
1.8667236328124999
3.0252685546875
3.0220458984375
3.0236572265625
2.963232421875
2.753759765625
2.5555664062499996
2.5595947265624996
2.447607421875
2.3718749999999997
2.135009765625
2.060888671875
1.9617919921875
1.848193359375
1.6282470703124998
1.6234130859375
3.0236572265625
3.0244628906249997
3.0244628906249997
3.0252685546875
2.7239501953125
1.7829345703125
0.024169921875
0.0217529296875
0.022558593749999998
0.022558593749999998
0.024169921875
0.18691406249999998
0.0249755859375
0.5115966796875
0.662255859375
1.0111083984375
1.248779296875
1.3180664062499998
1.4195800781249999
1.5025634765625
1.4373046875
0.026586914062499998
0.024169921875
0.020947265625
0.056396484375
0.5526855468749999
1.6105224609375
3.021240234375
3.0252685546875
3.0301025390625
2.9455078125
2.6780273437499997
2.5797363281249996
2.6603027343749996
2.5902099609375
2.4661376953125
2.292919921875
2.0761962890625
1.9464843749999998
1.8876708984375
1.7611816406249998
1.7088134765624998
3.0228515624999996
3.0309082031249996
2.8899169921874996
3.0252685546875
2.8222412109375
1.8240234375
0.1353515625
0.023364257812499997
0.019335937499999997
0.02900390625
0.0217529296875
0.08056640625
0.022558593749999998
0.4068603515625
0.6187499999999999
1.013525390625
1.1923828125
1.3027587890624999
1.3639892578125
1.461474609375
1.4373046875
0.0201416015625
0.022558593749999998
0.022558593749999998
0.023364257812499997
0.2425048828125
1.603271484375
2.8383544921875
3.0268798828124996
3.027685546875
3.02607421875
2.8633300781249997
2.6659423828124997
2.4854736328125
2.570068359375
2.5555664062499996
2.25263671875
2.09150390625
2.0520263671875
1.85302734375
1.7595703125
1.714453125
3.0244628906249997
3.021240234375
3.0228515624999996
2.9656494140625
2.8874999999999997
1.9440673828125
0.8918701171875
0.026586914062499998
0.0249755859375
0.022558593749999998
0.024169921875
0.033032226562499996
0.0837890625
0.1812744140625
0.6823974609375
0.9112060546874999
1.1126220703125
1.3510986328124999
1.361572265625
1.4800048828124999
1.4840332031249999
0.0281982421875
0.024169921875
0.024169921875
0.022558593749999998
0.1716064453125
1.103759765625
2.047998046875
3.0284912109374997
3.02607421875
3.0268798828124996
2.9592041015625
2.6844726562499996
2.5531494140624997
2.7078369140625
2.576513671875
2.405712890625
2.1865722656249997
2.067333984375
1.9593749999999999
1.7958251953125
1.7507080078125
1.683837890625
3.02607421875
3.02607421875
2.9978759765625
3.0284912109374997
2.6216308593749997
0.9474609374999999
0.023364257812499997
0.022558593749999998
0.023364257812499997
0.018530273437499998
0.0217529296875
0.08217773437499999
0.14501953125
0.515625
0.8064697265624999
1.0006347656249999
1.2697265624999998
1.3140380859374998
1.3994384765624999
1.4783935546875
1.4042724609375
0.020947265625
0.0249755859375
0.023364257812499997
0.1168212890625
0.40927734374999997
1.8046875
3.0284912109374997
3.029296875
3.0317138671875
2.9390625
2.8302978515625
2.6530517578125
2.65546875
2.591015625
2.4677490234375
2.2236328125
2.0939208984374997
1.9867675781249998
1.8707519531249999
1.7990478515625
1.714453125
3.0252685546875
3.0244628906249997
3.003515625
3.0236572265625
2.737646484375
1.8812255859375
0.022558593749999998
0.0201416015625
0.02578125
0.022558593749999998
0.020947265625
0.07814941406249999
0.024169921875
0.530126953125
0.7951904296875
1.0368896484374999
1.2769775390625
1.35673828125
1.4461669921875
1.474365234375
1.4469726562499998
0.020947265625
0.022558593749999998
0.020947265625
0.16838378906249998
0.5373779296875
1.6161621093749998
2.9181152343749996
3.0244628906249997
3.0268798828124996
3.0188232421874996
2.78759765625
2.6691650390625
2.6304931640625
2.69091796875
2.4484130859374997
2.2534423828125
2.0947265625
1.972265625
1.8908935546874999
1.7901855468749999
1.7039794921875
3.0236572265625
3.0252685546875
2.8625244140625
3.0244628906249997
2.8391601562499997
1.796630859375
0.057202148437499996
0.02578125
0.022558593749999998
0.024169921875
0.023364257812499997
0.0926513671875
0.088623046875
0.37302246093749997
0.631640625
0.8000244140624999
1.2350830078125
1.2826171874999999
1.3583496093749998
1.41796875
1.3978271484375
0.022558593749999998
0.022558593749999998
0.023364257812499997
0.023364257812499997
