0.5180419921875
0.813720703125
1.0385009765625
1.2906738281249999
1.4308593749999998
1.48564453125
1.5533203125
1.53076171875
0.022558593749999998
0.0201416015625
0.022558593749999998
0.546240234375
0.5953857421875
1.2665039062499999
2.5064208984375
3.02607421875
3.0252685546875
3.0083496093749997
2.592626953125
2.3879882812499997
2.292919921875
2.27197265625
2.241357421875
2.14306640625
1.9182861328124998
1.8667236328124999
1.8361083984375
1.719287109375
1.6185791015625
1.6137451171875
3.0236572265625
2.8238525390625
2.6417724609374997
2.9100585937499996
2.0101318359375
1.0812011718749999
0.017724609375
0.023364257812499997
0.0281982421875
0.02578125
0.1313232421875
0.339990234375
0.38671875
0.7412109375
0.9732421874999999
1.2439453125
1.3905761718749998
1.364794921875
1.4542236328125
1.4896728515625
1.4187744140624998
0.02900390625
0.018530273437499998
0.5518798828125
0.5607421874999999
1.1690185546875
1.8280517578125
3.0252685546875
3.0204345703124997
3.021240234375
2.7158935546875
2.4725830078124997
2.292919921875
2.3936279296875
2.2244384765625
2.1164794921875
1.9666259765624998
1.8828369140624999
1.7982421874999999
1.71123046875
1.6572509765624999
1.5887695312499999
3.0284912109374997
3.0252685546875
2.8012939453124996
2.8705810546875
2.6224365234375
1.770849609375
0.027392578124999997
0.017724609375
0.024169921875
0.0281982421875
0.11843261718749999
0.23525390624999998
0.1893310546875
0.742822265625
0.9821044921875
1.1964111328125
1.33740234375
1.4058837890625
1.44052734375
1.5017578125
1.4493896484375
0.026586914062499998
0.027392578124999997
0.5389892578125
0.46970214843749997
0.8129150390625
1.6862548828125
3.0236572265625
3.0244628906249997
3.0244628906249997
2.721533203125
2.5563720703125
2.309033203125
2.360595703125
2.2614990234375
2.1599853515625
2.0109375
1.8876708984375
1.835302734375
1.8038818359375
1.687060546875
1.622607421875
3.021240234375
3.02607421875
2.7497314453125
2.9092529296875
2.6538574218749997
1.8119384765625
0.0217529296875
0.024169921875
0.026586914062499998
0.023364257812499997
0.0829833984375
0.1998046875
0.169189453125
0.6413085937499999
0.8628662109374999
1.1593505859375
1.35673828125
1.3881591796875
1.4477783203124999
1.5041748046874999
1.458251953125
0.017724609375
0.018530273437499998
0.64453125
0.4890380859375
0.8258056640625
1.6403320312499998
2.63291015625
3.0252685546875
3.01962890625
2.753759765625
2.6200195312499996
2.3235351562499997
2.3638183593749997
2.1245361328125
2.0278564453125
2.0020751953125
1.85625
1.8538330078124998
1.79501953125
1.69833984375
1.6451660156249999
3.0244628906249997
3.0252685546875
2.747314453125
2.9173095703125
2.6675537109375
1.9408447265625
0.3311279296875
0.024169921875
0.022558593749999998
0.022558593749999998
0.062841796875
0.17885742187499998
0.2578125
0.6171386718749999
0.8104980468749999
1.06025390625
1.2205810546875
1.353515625
1.43408203125
1.4912841796874998
1.46630859375
0.022558593749999998
0.026586914062499998
0.017724609375
0.5776611328125
0.6654785156249999
1.3551269531249999
2.5394531249999996
3.0268798828124996
3.029296875
3.043798828125
2.5805419921875
2.4065185546875
2.2469970703124997
2.225244140625
2.20751953125
2.0906982421875
1.93359375
1.8949218749999999
1.8175781249999998
1.6967285156249998
1.6322753906249998
1.5863525390625
3.02607421875
2.8157958984375
2.6691650390625
2.91650390625
2.0745849609375
1.04736328125
0.022558593749999998
0.026586914062499998
0.0169189453125
0.019335937499999997
0.09023437499999999
0.2650634765625
0.39638671875
0.71865234375
1.0030517578125
1.2576416015624998
1.4308593749999998
1.3527099609375
1.5114257812499998
1.5090087890625
1.4284423828125
0.0249755859375
0.027392578124999997
0.549462890625
0.4890380859375
1.206884765625
1.8949218749999999
3.0236572265625
3.0244628906249997
3.02607421875
2.6933349609375
2.43955078125
2.2905029296875
2.3477050781249997
2.1849609375
2.0947265625
1.915869140625
1.85947265625
1.8151611328125
1.7313720703125
1.687060546875
1.641943359375
3.02607421875
3.0284912109374997
2.8423828125
2.8713867187499997
2.5289794921874997
1.7337890624999999
0.024169921875
0.018530273437499998
0.022558593749999998
0.022558593749999998
0.1168212890625
0.30615234375
0.2199462890625
0.7404052734375
0.9949951171875
1.203662109375
1.3341796874999998
1.3865478515624998
1.4397216796874999
1.4832275390624998
1.4300537109375
0.020947265625
0.0217529296875
0.7001220703125
0.57041015625
0.8306396484374999
1.590380859375
3.02607421875
3.027685546875
3.0252685546875
2.6683593749999996
2.4806396484374997
2.312255859375
2.3694580078125
2.2292724609375
2.038330078125
1.993212890625
1.8538330078124998
1.8135498046874998
1.796630859375
1.7047851562499998
1.687060546875
3.02607421875
3.0236572265625
2.7569824218749996
2.8858886718749996
2.6619140624999997
1.8199951171875
0.023364257812499997
0.022558593749999998
0.022558593749999998
0.0249755859375
0.049951171875
0.18369140625
0.1554931640625
0.7597412109374999
0.920068359375
1.17626953125
1.2914794921875
1.3583496093749998
1.40830078125
1.4864501953125
1.4550292968749998
0.0217529296875
0.02578125
0.6638671875
0.53173828125
0.7114013671874999
1.6717529296875
2.69091796875
3.027685546875
3.0244628906249997
2.79404296875
2.6055175781249997
2.367041015625
2.34931640625
2.086669921875
2.1221191406249997
2.0109375
1.8780029296874998
1.8304687499999999
1.7716552734375
1.699951171875
1.6298583984375
3.027685546875
3.0244628906249997
2.6941406249999997
2.666748046875
2.6611083984375
1.8087158203125
0.9514892578124999
0.02578125
0.0217529296875
0.022558593749999998
0.024169921875
0.18369140625
0.294873046875
0.46970214843749997
0.82177734375
1.084423828125
1.255224609375
1.345458984375
1.480810546875
1.4703369140625
1.4671142578124998
0.0217529296875
0.02578125
0.018530273437499998
0.49870605468749996
0.5905517578125
1.4074951171874999
2.22041015625
3.0252685546875
3.0244628906249997
2.995458984375
2.6441894531249996
2.447607421875
2.305810546875
2.238134765625
2.2260498046875
2.0794189453125
1.9198974609375
1.880419921875
1.7764892578125
1.75634765625
1.6540283203125
1.6443603515624998
3.021240234375
2.7416748046875
2.69736328125
2.91650390625
2.338037109375
0.9949951171875
0.0217529296875
0.022558593749999998
0.0201416015625
0.0523681640625
0.14824218749999998
0.2876220703125
0.4680908203125
0.7782714843749999
1.0086914062499999
1.2640869140625
1.36962890625
1.3784912109374998
1.474365234375
1.4638916015624999
1.384130859375
0.0217529296875
0.020947265625
0.514013671875
0.4962890625
1.3317626953125
2.044775390625
3.0244628906249997
3.02607421875
3.0252685546875
2.6860839843749997
2.49755859375
2.241357421875
2.2905029296875
2.14306640625
2.0496093749999997
1.9311767578124999
1.8393310546875
1.832080078125
1.7329833984374998
1.6564453124999998
1.6129394531249999
3.0228515624999996
3.0236572265625
2.8713867187499997
2.8947509765625
2.441162109375
1.66611328125
0.022558593749999998
0.01611328125
0.0217529296875
0.018530273437499998
0.111181640625
0.2972900390625
0.24814453125
0.77666015625
0.9901611328125
1.197216796875
1.3317626953125
1.413134765625
1.4703369140625
1.5218994140625
1.4381103515625
0.020947265625
0.022558593749999998
0.7395996093749999
0.45358886718749997
0.7879394531249999
1.5911865234375
3.0244628906249997
3.0244628906249997
3.0252685546875
2.7521484375
2.5201171875
2.30419921875
2.3920166015624997
2.2083251953125
2.180126953125
2.0689453125
1.928759765625
1.8062988281249999
1.735400390625
1.6540283203125
1.6048828124999999
3.027685546875
3.0317138671875
2.8286865234375
2.856884765625
2.6159912109374996
1.7257324218749999
0.017724609375
0.02900390625
0.022558593749999998
0.0249755859375
0.038671874999999994
0.201416015625
0.1571044921875
0.781494140625
0.8805908203124999
1.1045654296875
1.300341796875
1.3768798828125
1.42119140625
1.5170654296875
1.4606689453125
0.023364257812499997
0.022558593749999998
0.7565185546875
0.472119140625
0.8016357421875
1.590380859375
2.824658203125
3.02607421875
3.0268798828124996
2.7521484375
2.679638671875
2.3807373046875
2.32998046875
2.0979492187499997
2.160791015625
1.9907958984374998
1.851416015625
1.877197265625
1.7764892578125
1.714453125
1.6894775390624999
2.534619140625
3.0268798828124996
2.66513671875
2.818212890625
2.6627197265625
1.7499023437499999
0.8515869140625
0.022558593749999998
0.0217529296875
0.018530273437499998
0.0604248046875
0.2263916015625
0.2360595703125
0.54140625
0.8685058593749999
1.1093994140624999
1.2568359375
1.327734375
1.413134765625
1.5017578125
1.48564453125
0.0169189453125
0.022558593749999998
0.020947265625
0.5438232421875
0.694482421875
1.5057861328125
2.263916015625
3.021240234375
3.0252685546875
2.9455078125
2.5885986328125
2.384765625
2.2880859375
2.230078125
2.2026855468749997
2.0375244140624997
1.92392578125
1.8248291015625
1.7958251953125
1.7499023437499999
1.674169921875
1.88525390625
3.0244628906249997
3.0236572265625
2.7610107421874996
2.8230468749999997
2.2260498046875
0.97646484375
0.024169921875
0.023364257812499997
0.022558593749999998
0.049951171875
0.1200439453125
0.2908447265625
0.533349609375
0.7702148437499999
1.0336669921875
1.2785888671874999
1.3712402343749999
1.38896484375
1.4574462890625
1.4751708984374998
1.1617675781249999
0.0217529296875
0.019335937499999997
0.562353515625
0.49306640625
0.8910644531249999
2.2067138671874997
3.0252685546875
3.0244628906249997
2.99384765625
2.6659423828124997
2.4814453125
2.2880859375
2.3203125
2.2051025390625
2.1293701171875
1.93681640625
1.8369140625
1.8014648437499998
1.75634765625
1.6483886718749998
1.6105224609375
3.0252685546875
3.029296875
2.8697753906249996
2.9189208984375
2.3477050781249997
1.53076171875
0.02900390625
0.023364257812499997
0.022558593749999998
0.0217529296875
0.0668701171875
0.28359375
0.2650634765625
0.7283203125
0.9821044921875
1.1819091796874999
1.3083984375
1.3728515625
1.4477783203124999
1.46953125
1.480810546875
0.022558593749999998
0.026586914062499998
0.7073730468749999
0.5422119140625
0.9128173828124999
1.5807128906249999
3.0252685546875
3.0244628906249997
3.0252685546875
2.776318359375
2.3614013671875
2.27841796875
2.3485107421875
2.1922119140625
2.1358154296875
1.9779052734375
1.883642578125
1.7668212890625
1.7797119140625
1.6781982421875
1.6250244140624999
3.0244628906249997
3.0284912109374997
2.5845703125
2.8166015625
2.6361328124999996
1.754736328125
0.0281982421875
0.0249755859375
0.0217529296875
0.022558593749999998
0.0668701171875
0.2199462890625
0.15791015625
0.765380859375
0.9369873046874999
1.1545166015625
1.327734375
1.38896484375
1.4332763671875
1.4953124999999998
1.4767822265625
0.024169921875
0.017724609375
0.8121093749999999
0.5986083984375
0.8225830078124999
1.6669189453125
3.0204345703124997
3.027685546875
3.02607421875
2.7408691406249996
2.5458984375
2.328369140625
2.3243408203125
2.135009765625
2.1599853515625
2.0584716796875
1.8820312499999998
1.8635009765625
1.7901855468749999
1.683837890625
1.5879638671874998
3.0236572265625
3.0244628906249997
2.6377441406249997
2.8609130859375
2.7303955078124997
1.7200927734375
0.736376953125
0.022558593749999998
0.022558593749999998
0.0217529296875
0.04833984375
0.124072265625
0.18691406249999998
0.5478515625
0.7234863281249999
1.11826171875
1.271337890625
1.35673828125
1.4228027343749998
1.5001464843749999
1.4848388671875
0.0217529296875
0.022558593749999998
0.022558593749999998
0.46164550781249997
0.4278076171875
1.5299560546875
2.367041015625
3.02607421875
3.0228515624999996
2.9946533203124996
2.7223388671874997
2.4419677734375
2.3396484374999997
2.2872802734374997
2.225244140625
2.1003662109375
1.9658203125
1.8441650390625
1.8014648437499998
1.73056640625
1.658056640625
2.45888671875
3.0252685546875
3.0244628906249997
2.776318359375
2.85205078125
2.18173828125
1.2826171874999999
0.023364257812499997
0.023364257812499997
0.022558593749999998
0.020947265625
0.07734374999999999
0.198193359375
0.21672363281249998
0.7178466796874999
0.9627685546875
1.174658203125
1.2721435546875
1.3551269531249999
1.4542236328125
1.5073974609374998
0.49951171875
0.022558593749999998
0.027392578124999997
0.1780517578125
0.20463867187499998
0.7234863281249999
1.5718505859374998
3.0268798828124996
3.02607421875
3.021240234375
2.8802490234375
2.7166992187499996
2.5934326171874997
2.5950439453125
2.370263671875
2.2647216796875
2.0890869140625
1.9198974609375
1.9279541015625
1.815966796875
1.7499023437499999
1.6185791015625
3.027685546875
3.02607421875
2.9422851562499996
3.0244628906249997
2.900390625
1.5243164062499999
0.022558593749999998
0.020947265625
0.023364257812499997
0.022558593749999998
0.023364257812499997
0.08137207031249999
0.04189453125
0.439892578125
0.7339599609374999
1.019970703125
1.158544921875
1.21171875
1.327734375
1.4630859374999998
1.3913818359374999
0.022558593749999998
0.022558593749999998
0.0217529296875
0.088623046875
0.3802734375
1.2673095703125
3.0244628906249997
3.02607421875
3.027685546875
3.0244628906249997
2.8810546875
2.7650390624999996
2.7884033203125
2.6546630859375
2.5394531249999996
2.2921142578125
2.1744873046874997
2.0906982421875
1.9625976562499998
1.84013671875
1.7345947265625
3.021240234375
3.0236572265625
3.0228515624999996
3.0244628906249997
3.0236572265625
2.20107421875
0.688037109375
0.022558593749999998
0.022558593749999998
0.020947265625
0.0249755859375
0.026586914062499998
0.0217529296875
0.23686523437499998
0.359326171875
0.7234863281249999
0.9418212890625
0.9796874999999999
1.1432373046875
1.2479736328125
1.2753662109375
0.022558593749999998
0.022558593749999998
0.022558593749999998
0.024169921875
0.019335937499999997
0.9555175781249999
1.8949218749999999
3.0236572265625
3.021240234375
3.0252685546875
3.021240234375
3.0236572265625
3.0244628906249997
3.0123779296874997
2.95517578125
2.8423828125
2.642578125
2.487890625
2.392822265625
2.209130859375
2.099560546875
3.029296875
3.0204345703124997
3.0252685546875
3.02607421875
3.02607421875
2.5740966796875
1.1214843749999999
0.022558593749999998
0.0217529296875
0.023364257812499997
0.022558593749999998
0.024169921875
0.022558593749999998
0.0249755859375
0.022558593749999998
0.0249755859375
0.023364257812499997
0.020947265625
0.020947265625
0.037060546874999996
0.023364257812499997
0.023364257812499997
0.022558593749999998
0.022558593749999998
0.023364257812499997
0.020947265625
0.022558593749999998
0.023364257812499997
0.023364257812499997
0.0169189453125
0.022558593749999998
0.022558593749999998
0.019335937499999997
0.026586914062499998
1.055419921875
1.8441650390625
2.2550537109374997
2.6240478515624996
2.99384765625
3.0244628906249997
3.02607421875
3.0236572265625
3.01962890625
3.0301025390625
3.0268798828124996
3.0252685546875
3.02607421875
3.02607421875
3.02607421875
0.6114990234375
0.022558593749999998
0.0201416015625
0.027392578124999997
0.026586914062499998
0.017724609375
0.017724609375
0.023364257812499997
0.018530273437499998
0.023364257812499997
0.0217529296875
0.018530273437499998
0.018530273437499998
0.0217529296875
0.023364257812499997
0.0249755859375
0.0217529296875
0.022558593749999998
0.0217529296875
0.02578125
0.027392578124999997
0.0217529296875
0.0217529296875
0.022558593749999998
0.022558593749999998
0.022558593749999998
0.020947265625
0.0217529296875
0.48178710937499997
1.17626953125
1.6612792968749999
2.244580078125
2.6385498046875
2.9438964843749997
3.0228515624999996
3.027685546875
3.021240234375
3.0236572265625
3.02607421875
3.0252685546875
3.0228515624999996
3.02607421875
2.9519531249999997
0.02578125
0.023364257812499997
0.023364257812499997
0.023364257812499997
0.023364257812499997
0.020947265625
0.026586914062499998
0.0217529296875
0.022558593749999998
0.022558593749999998
0.0217529296875
0.0217529296875
0.022558593749999998
0.018530273437499998
0.0217529296875
0.02578125
0.018530273437499998
0.0201416015625
0.024169921875
0.022558593749999998
0.020947265625
0.023364257812499997
0.019335937499999997
0.024169921875
0.020947265625
0.0217529296875
0.0217529296875
0.027392578124999997
0.6517822265625
1.3422363281249998
1.9376220703125
2.4355224609375
2.7755126953125
3.027685546875
3.0309082031249996
3.0228515624999996
3.0244628906249997
3.0252685546875
3.02607421875
3.0252685546875
3.0244628906249997
3.0244628906249997
0.742822265625
0.018530273437499998
0.02578125
0.019335937499999997
0.023364257812499997
0.018530273437499998
0.026586914062499998
0.0281982421875
0.022558593749999998
0.027392578124999997
0.0201416015625
0.017724609375
0.027392578124999997
0.01611328125
0.022558593749999998
0.0217529296875
0.02578125
0.0217529296875
0.022558593749999998
0.022558593749999998
0.017724609375
0.027392578124999997
0.022558593749999998
0.0217529296875
0.022558593749999998
0.022558593749999998
0.024169921875
0.07734374999999999
0.146630859375
1.042529296875
1.587158203125
2.0044921875
2.528173828125
3.0043212890624997
3.0268798828124996
3.0268798828124996
3.0268798828124996
3.0244628906249997
3.0228515624999996
3.0268798828124996
3.0244628906249997
3.0252685546875
0.7935791015625
0.024169921875
0.022558593749999998
0.0217529296875
0.019335937499999997
0.022558593749999998
0.02578125
0.024169921875
0.022558593749999998
0.022558593749999998
0.026586914062499998
0.020947265625
0.022558593749999998
0.022558593749999998
0.023364257812499997
0.024169921875
0.0652587890625
0.1426025390625
0.23525390624999998
0.2989013671875
0.3585205078125
0.4116943359375
0.4793701171875
0.5309326171875
0.5792724609375
0.6348632812499999
0.6775634765624999
0.7162353515625
0.7557128906249999
0.7984130859374999
1.327734375
1.7297607421874999
2.389599609375
2.7328124999999996
3.0075439453125
3.0244628906249997
3.0301025390625
3.0244628906249997
3.0244628906249997
3.0228515624999996
3.0204345703124997
3.0252685546875
2.5402587890625
0.024169921875
0.022558593749999998
0.0201416015625
0.023364257812499997
0.01611328125
0.0201416015625
0.026586914062499998
0.023364257812499997
0.022558593749999998
0.023364257812499997
0.06606445312499999
0.141796875
0.21672363281249998
0.30937499999999996
0.3762451171875
0.43505859375
0.501123046875
0.57041015625
0.6195556640625
0.6670898437499999
0.7275146484374999
0.768603515625
0.8032470703125
0.8419189453125
0.889453125
0.9192626953124999
0.945849609375
0.98291015625
1.0119140625
1.3913818359374999
1.651611328125
2.212353515625
2.5877929687499996
2.8472167968749997
3.021240234375
3.0236572265625
3.0236572265625
3.0188232421874996
3.027685546875
3.0236572265625
3.02607421875
3.0236572265625
3.0236572265625
1.6620849609375
0.022558593749999998
0.022558593749999998
0.023364257812499997
0.020947265625
0.0201416015625
0.022558593749999998
0.018530273437499998
0.022558593749999998
0.0217529296875
0.024169921875
0.023364257812499997
0.078955078125
0.15468749999999998
0.22880859374999998
0.32548828124999996
0.391552734375
0.4487548828125
0.502734375
0.5824951171875
0.6324462890625
0.6791748046874999
0.7355712890624999
0.7806884765625
0.8121093749999999
0.8507812499999999
0.9047607421874999
0.9321533203125
1.6024658203125
2.1084228515625
2.4145751953125
2.745703125
3.02607421875
3.0236572265625
3.0228515624999996
3.0252685546875
3.021240234375
3.02607421875
3.0236572265625
3.0309082031249996
3.0301025390625
3.0236572265625
1.393798828125
0.022558593749999998
0.022558593749999998
0.017724609375
0.022558593749999998
0.027392578124999997
0.0217529296875
0.020947265625
0.022558593749999998
0.023364257812499997
0.019335937499999997
0.024169921875
0.024169921875
0.0362548828125
0.111181640625
0.214306640625
0.28359375
0.35368652343749996
0.4318359375
0.49467773437499996
0.5486572265624999
0.59619140625
0.6678955078125
0.7138183593749999
0.7516845703124999
0.8096923828125
0.8443359374999999
0.881396484375
1.5315673828124998
1.9078125
2.31708984375
2.560400390625
2.8697753906249996
3.02607421875
3.0228515624999996
3.0236572265625
3.0284912109374997
3.0236572265625
3.0228515624999996
3.0244628906249997
3.02607421875
3.0252685546875
3.0244628906249997
0.394775390625
0.01611328125
0.023364257812499997
0.0281982421875
0.018530273437499998
0.023364257812499997
0.027392578124999997
0.026586914062499998
0.023364257812499997
0.023364257812499997
0.024169921875
0.023364257812499997
0.023364257812499997
0.11923828125
0.191748046875
0.2634521484375
0.33273925781249997
0.420556640625
0.476953125
0.533349609375
0.605859375
0.6566162109375
0.6977050781249999
0.7460449218749999
0.7984130859374999
0.833056640625
0.8709228515624999
0.9192626953124999
1.5122314453124999
1.8296630859374998
2.199462890625
2.479833984375
2.5813476562499997
2.7771240234374996
3.0228515624999996
3.0301025390625
3.027685546875
3.0252685546875
3.0252685546875
3.0244628906249997
3.0244628906249997
3.01962890625
0.7903564453124999
0.0217529296875
0.0217529296875
0.0201416015625
0.022558593749999998
0.022558593749999998
0.0249755859375
0.022558593749999998
0.020947265625
0.0281982421875
0.0217529296875
0.0346435546875
0.130517578125
0.2118896484375
0.2811767578125
0.34885253906249997
0.43022460937499996
0.49467773437499996
0.5454345703125
0.6171386718749999
0.6654785156249999
0.7138183593749999
0.7613525390625
0.8104980468749999
0.8419189453125
0.8886474609374999
0.9305419921875
1.416357421875
1.6346923828125
1.9311767578124999
2.39443359375
2.6119628906249996
2.760205078125
2.8794433593749997
2.953564453125
3.0252685546875
3.02607421875
3.021240234375
3.0244628906249997
3.029296875
3.02607421875
3.0284912109374997
1.4655029296875
0.026586914062499998
0.019335937499999997
0.0281982421875
0.020947265625
0.026586914062499998
0.023364257812499997
0.022558593749999998
0.022558593749999998
0.023364257812499997
0.02578125
0.022558593749999998
0.07734374999999999
0.15468749999999998
0.233642578125
0.3198486328125
0.391552734375
0.4519775390625
0.50595703125
0.5768554687499999
0.6372802734374999
0.6823974609375
0.7436279296874999
0.7839111328124999
0.8201660156249999
0.8604492187499999
1.6403320312499998
1.9029785156249999
2.3936279296875
2.682861328125
2.8391601562499997
3.0228515624999996
3.0309082031249996
3.0268798828124996
3.0228515624999996
3.0301025390625
3.02607421875
3.0236572265625
3.0252685546875
3.0252685546875
3.02607421875
3.0204345703124997
1.93681640625
0.017724609375
0.023364257812499997
0.017724609375
0.0249755859375
0.017724609375
0.020947265625
0.0217529296875
0.017724609375
0.019335937499999997
0.020947265625
0.017724609375
0.0249755859375
0.0249755859375
0.0249755859375
0.08942871093749999
0.16274414062499998
0.24089355468749998
0.33193359375
0.38994140624999996
0.4519775390625
0.5325439453124999
0.5873291015625
0.6340576171875
0.6832031249999999
1.0997314453125
1.6725585937499998
1.8546386718749999
2.60712890625
2.7916259765625
2.8536621093749996
3.0228515624999996
3.0236572265625
3.0244628906249997
3.0244628906249997
3.0236572265625
3.02607421875
3.0244628906249997
3.0244628906249997
3.0236572265625
3.0236572265625
3.0220458984375
3.0252685546875
0.44553222656249997
0.022558593749999998
0.023364257812499997
0.023364257812499997
0.017724609375
0.024169921875
0.022558593749999998
0.026586914062499998
0.022558593749999998
0.019335937499999997
0.023364257812499997
0.0217529296875
0.027392578124999997
0.020947265625
0.022558593749999998
0.022558593749999998
0.10634765624999999
0.18369140625
0.2553955078125
0.3158203125
0.404443359375
0.46647949218749996
0.5204589843749999
0.588134765625
0.6421142578125
1.3269287109374999
1.9537353515625
2.4298828125
2.721533203125
2.8625244140625
3.0244628906249997
3.0228515624999996
3.02607421875
3.0236572265625
3.0252685546875
3.0236572265625
3.021240234375
3.0252685546875
3.0236572265625
3.029296875
3.0309082031249996
3.0244628906249997
1.2673095703125
0.0249755859375
0.022558593749999998
0.022558593749999998
0.0217529296875
0.022558593749999998
0.026586914062499998
0.023364257812499997
0.022558593749999998
0.0217529296875
0.0217529296875
0.026586914062499998
0.022558593749999998
0.022558593749999998
0.0217529296875
0.0217529296875
0.02578125
0.091845703125
0.17241210937499998
0.2650634765625
0.33273925781249997
0.39638671875
0.475341796875
0.5277099609375
0.845947265625
1.2689208984375
2.0343017578125
2.4032958984375
2.7505371093749997
2.8802490234375
2.9221435546874996
3.0204345703124997
3.0268798828124996
3.021240234375
3.0188232421874996
3.0252685546875
3.0252685546875
3.02607421875
3.02607421875
3.027685546875
3.0236572265625
3.0244628906249997
1.3075927734375
0.0217529296875
0.023364257812499997
0.022558593749999998
0.022558593749999998
0.017724609375
0.022558593749999998
0.027392578124999997
0.026586914062499998
0.0201416015625
0.017724609375
0.022558593749999998
0.0217529296875
0.0201416015625
0.0217529296875
0.0169189453125
0.023364257812499997
0.023364257812499997
0.1087646484375
0.1861083984375
0.252978515625
0.32065429687499997
0.40605468749999996
0.46647949218749996
0.5220703125
1.1013427734374999
1.8393310546875
2.328369140625
2.6522460937499996
2.7803466796875
2.8721923828125
2.9962646484374997
3.02607421875
3.021240234375
3.0002929687499997
3.0284912109374997
3.0252685546875
3.0228515624999996
3.0252685546875
3.0236572265625
3.0244628906249997
3.0236572265625
3.0252685546875
0.1200439453125
0.023364257812499997
0.0217529296875
0.022558593749999998
0.026586914062499998
0.024169921875
0.024169921875
0.018530273437499998
0.023364257812499997
0.0217529296875
0.0249755859375
0.0201416015625
0.018530273437499998
0.022558593749999998
0.0217529296875
0.022558593749999998
0.022558593749999998
0.0910400390625
0.165966796875
0.2376708984375
0.33354492187499996
0.388330078125
0.44956054687499997
0.523681640625
0.9007324218749999
1.482421875
1.9513183593749999
2.52978515625
2.7642333984375
2.9028076171875
3.0284912109374997
3.029296875
3.0252685546875
2.9769287109375
3.0244628906249997
3.02607421875
3.0220458984375
3.0228515624999996
3.0244628906249997
3.0252685546875
3.021240234375
3.027685546875
1.058642578125
0.023364257812499997
0.0249755859375
0.022558593749999998
0.023364257812499997
0.018530273437499998
0.023364257812499997
0.0201416015625
0.022558593749999998
0.018530273437499998
0.0217529296875
0.023364257812499997
0.0217529296875
0.023364257812499997
0.02578125
0.0217529296875
0.022558593749999998
0.0523681640625
0.1264892578125
0.19658203124999998
0.2989013671875
0.362548828125
0.42619628906249996
0.5019287109375
1.0763671875
1.2665039062499999
1.9513183593749999
2.4935302734375
2.72314453125
2.8375488281249996
3.0091552734375
3.0228515624999996
3.0252685546875
3.029296875
3.0075439453125
3.01962890625
3.0268798828124996
3.0252685546875
3.0244628906249997
3.0252685546875
3.0228515624999996
3.027685546875
2.6603027343749996
0.022558593749999998
0.02578125
0.022558593749999998
0.02578125
0.022558593749999998
0.023364257812499997
0.022558593749999998
0.023364257812499997
0.0217529296875
0.024169921875
0.0201416015625
0.0217529296875
0.024169921875
0.023364257812499997
0.0217529296875
0.0217529296875
0.022558593749999998
0.0797607421875
0.17482910156249998
0.2513671875
0.31904296875
0.37785644531249996
0.4640625
0.5204589843749999
0.9966064453125
1.8796142578125
2.42666015625
2.6981689453124997
2.8391601562499997
3.0067382812499996
3.01962890625
3.02607421875
3.01962890625
3.0228515624999996
3.0244628906249997
3.0252685546875
3.0244628906249997
3.0268798828124996
3.0244628906249997
3.0228515624999996
3.02607421875
3.02607421875
0.02578125
0.022558593749999998
0.0217529296875
0.022558593749999998
0.0217529296875
0.0217529296875
0.0217529296875
0.027392578124999997
0.0217529296875
0.019335937499999997
0.022558593749999998
0.026586914062499998
0.017724609375
0.027392578124999997
0.02578125
0.024169921875
0.020947265625
0.0362548828125
0.1377685546875
0.2118896484375
0.285205078125
0.3714111328125
0.4318359375
0.48984374999999997
1.1537109374999999
1.7692382812499998
2.20751953125
2.6441894531249996
2.872998046875
2.9712890625
3.02607421875
3.0252685546875
3.02607421875
3.0204345703124997
3.0228515624999996
3.027685546875
3.027685546875
3.0301025390625
3.02607421875
3.0220458984375
3.0252685546875
3.0244628906249997
0.9547119140625
0.0201416015625
0.022558593749999998
0.022558593749999998
0.020947265625
0.023364257812499997
0.02578125
0.0201416015625
0.027392578124999997
0.022558593749999998
0.020947265625
0.0217529296875
0.022558593749999998
0.020947265625
0.020947265625
0.017724609375
0.0217529296875
0.023364257812499997
0.062841796875
0.14501953125
0.2376708984375
0.3069580078125
0.3714111328125
0.43344726562499997
0.8435302734375
1.3212890625
1.9464843749999998
2.5257568359375
2.7328124999999996
2.8536621093749996
2.9914306640625
3.0228515624999996
3.027685546875
2.9712890625
2.9608154296875
3.0236572265625
3.0164062499999997
3.0244628906249997
3.0252685546875
3.0268798828124996
3.0228515624999996
3.0236572265625
1.506591796875
0.020947265625
0.022558593749999998
0.023364257812499997
0.022558593749999998
0.022558593749999998
0.023364257812499997
0.018530273437499998
0.022558593749999998
0.023364257812499997
0.020947265625
0.026586914062499998
0.022558593749999998
0.026586914062499998
0.023364257812499997
0.0217529296875
0.017724609375
0.02900390625
0.058813476562499994
0.1329345703125
0.23283691406249998
0.29970703125
0.3665771484375
0.443115234375
0.50595703125
1.1287353515625
1.85625
2.215576171875
2.70380859375
2.8383544921875
3.0204345703124997
3.0244628906249997
3.02607421875
3.0268798828124996
2.9978759765625
3.0244628906249997
3.0236572265625
3.0244628906249997
3.0244628906249997
3.0236572265625
3.0252685546875
3.0244628906249997
3.0236572265625
0.2956787109375
0.023364257812499997
0.020947265625
0.023364257812499997
0.0217529296875
0.02578125
0.017724609375
0.020947265625
0.0217529296875
0.022558593749999998
0.022558593749999998
0.022558593749999998
0.024169921875
0.023364257812499997
0.0217529296875
0.023364257812499997
0.019335937499999997
0.03544921875
0.104736328125
0.2054443359375
0.2715087890625
0.33757324218749996
0.4245849609375
0.48017578125
0.9635742187499999
1.8506103515624999
1.8054931640624998
2.63291015625
2.8609130859375
2.9672607421875
3.0236572265625
3.029296875
3.0204345703124997
2.9994873046875
3.0244628906249997
3.021240234375
3.0252685546875
3.0301025390625
3.0244628906249997
3.0236572265625
3.021240234375
3.0236572265625
0.5760498046875
0.019335937499999997
0.022558593749999998
0.026586914062499998
0.022558593749999998
0.0217529296875
0.027392578124999997
0.023364257812499997
0.022558593749999998
0.023364257812499997
0.023364257812499997
0.022558593749999998
0.020947265625
0.018530273437499998
0.0217529296875
0.02578125
0.022558593749999998
0.024169921875
0.078955078125
0.1506591796875
0.217529296875
0.31259765624999997
0.37785644531249996
0.44150390624999997
0.8870361328124999
1.5114257812499998
2.0737792968749997
2.5338134765625
2.827880859375
2.9463134765624996
3.0284912109374997
3.0252685546875
3.0244628906249997
3.0252685546875
2.995458984375
3.02607421875
3.02607421875
3.0244628906249997
3.0228515624999996
3.0228515624999996
3.02607421875
3.0236572265625
1.2544189453124999
0.0217529296875
0.022558593749999998
0.02900390625
0.022558593749999998
0.022558593749999998
0.022558593749999998
0.0217529296875
0.020947265625
0.0217529296875
0.018530273437499998
0.027392578124999997
0.027392578124999997
0.022558593749999998
0.02578125
0.0201416015625
0.0217529296875
0.020947265625
0.0281982421875
0.09829101562499999
0.169189453125
0.27392578125
0.34160156249999996
0.4004150390625
0.48017578125
1.1150390625
1.9053955078125
2.4274658203125
2.7078369140625
2.860107421875
3.01962890625
3.027685546875
3.01962890625
3.02607421875
3.0301025390625
3.021240234375
3.021240234375
3.02607421875
3.0252685546875
3.0268798828124996
3.01962890625
3.0244628906249997
3.02607421875
0.4004150390625
0.01611328125
0.0217529296875
0.019335937499999997
0.0217529296875
0.02578125
0.023364257812499997
0.026586914062499998
0.0217529296875
0.017724609375
0.020947265625
0.0217529296875
0.026586914062499998
0.0217529296875
0.022558593749999998
0.018530273437499998
0.022558593749999998
0.024169921875
0.0652587890625
0.133740234375
0.23283691406249998
0.307763671875
0.37302246093749997
0.452783203125
0.9063720703125
1.496923828125
2.031884765625
2.5982666015625
2.8319091796875
2.9358398437499997
3.0244628906249997
3.0301025390625
2.9334228515625
3.018017578125
3.0252685546875
3.0228515624999996
3.0236572265625
3.0244628906249997
3.0244628906249997
3.0236572265625
3.0252685546875
3.0204345703124997
1.2544189453124999
0.0169189453125
0.024169921875
0.020947265625
0.017724609375
0.0249755859375
0.023364257812499997
0.019335937499999997
0.0217529296875
0.022558593749999998
0.019335937499999997
0.022558593749999998
0.02578125
0.022558593749999998
0.023364257812499997
0.0281982421875
0.024169921875
0.023364257812499997
0.0314208984375
0.136962890625
0.207861328125
0.2779541015625
0.3440185546875
0.42861328125
0.9224853515625
1.4920898437499999
2.2026855468749997
2.719921875
2.9334228515625
3.0252685546875
3.0244628906249997
3.0268798828124996
3.0228515624999996
3.018017578125
2.9753173828125
3.018017578125
3.0236572265625
3.02607421875
3.01962890625
3.0236572265625
3.029296875
3.0252685546875
3.0252685546875
0.02578125
0.022558593749999998
0.02900390625
0.017724609375
0.0217529296875
0.022558593749999998
0.018530273437499998
0.022558593749999998
0.026586914062499998
0.019335937499999997
0.0217529296875
0.023364257812499997
0.022558593749999998
0.022558593749999998
0.0169189453125
0.022558593749999998
0.019335937499999997
0.023364257812499997
0.0475341796875
0.124072265625
0.19497070312499998
0.2940673828125
0.3552978515625
0.4197509765625
1.0530029296874999
1.90458984375
2.22041015625
2.6764160156249996
2.8689697265625
3.02607421875
3.0284912109374997
3.0284912109374997
3.0252685546875
3.0075439453125
3.0268798828124996
3.0244628906249997
3.027685546875
3.027685546875
3.02607421875
3.0228515624999996
3.0236572265625
3.0268798828124996
0.314208984375
0.020947265625
0.017724609375
0.022558593749999998
0.026586914062499998
0.022558593749999998
0.0217529296875
0.024169921875
0.027392578124999997
0.017724609375
0.018530273437499998
0.023364257812499997
0.023364257812499997
0.0217529296875
0.019335937499999997
0.022558593749999998
0.0217529296875
0.018530273437499998
0.0362548828125
0.1119873046875
0.18046874999999998
0.2795654296875
0.34482421874999997
0.41008300781249996
1.0634765625
1.7297607421874999
2.1052001953125
2.63291015625
2.86494140625
2.9519531249999997
3.0252685546875
3.02607421875
3.0268798828124996
3.027685546875
3.0244628906249997
3.021240234375
3.0244628906249997
3.0268798828124996
3.0252685546875
3.0236572265625
3.0252685546875
3.02607421875
1.1666015625
0.017724609375
0.022558593749999998
0.022558593749999998
0.0217529296875
0.022558593749999998
0.022558593749999998
0.022558593749999998
0.0169189453125
0.023364257812499997
0.026586914062499998
0.020947265625
0.02578125
0.022558593749999998
0.0217529296875
0.027392578124999997
0.022558593749999998
0.019335937499999997
0.023364257812499997
0.06767578125
0.1474365234375
0.240087890625
0.30937499999999996
0.3794677734375
0.8290283203125
1.4244140625
2.1261474609374997
2.6643310546874996
2.8576904296874996
2.9882080078124997
3.02607421875
3.0244628906249997
3.0252685546875
3.02607421875
3.003515625
3.0252685546875
3.0268798828124996
3.0268798828124996
3.01962890625
3.02607421875
3.0252685546875
3.0244628906249997
2.69091796875
0.0249755859375
0.022558593749999998
0.0201416015625
0.022558593749999998
0.023364257812499997
0.0217529296875
0.0217529296875
0.0217529296875
0.026586914062499998
0.0217529296875
0.02578125
0.022558593749999998
0.022558593749999998
0.022558593749999998
0.0249755859375
0.0201416015625
0.022558593749999998
0.024169921875
0.027392578124999997
0.120849609375
0.1957763671875
0.26425781249999997
0.33515625
0.41330566406249997
1.09892578125
1.8667236328124999
2.2236328125
2.785986328125
2.9205322265625
3.0244628906249997
3.0244628906249997
3.0228515624999996
3.02607421875
3.011572265625
3.027685546875
3.0244628906249997
3.0268798828124996
3.029296875
3.0244628906249997
3.0244628906249997
3.0220458984375
3.0228515624999996
0.620361328125
0.022558593749999998
0.020947265625
0.024169921875
0.004833984374999999
0.0201416015625
0.022558593749999998
0.022558593749999998
0.022558593749999998
0.0217529296875
0.0249755859375
0.020947265625
0.020947265625
0.017724609375
0.0249755859375
0.0217529296875
0.024169921875
0.022558593749999998
0.024169921875
0.09990234375
0.182080078125
0.24733886718749998
0.3391845703125
0.4004150390625
0.7774658203125
1.4123291015625
2.0254394531249997
2.576513671875
2.7988769531249997
2.8697753906249996
3.0244628906249997
3.02607421875
3.0284912109374997
3.0236572265625
3.021240234375
3.0252685546875
3.0204345703124997
3.02607421875
3.0252685546875
3.0236572265625
3.018017578125
3.0236572265625
1.3833251953124999
0.0217529296875
0.023364257812499997
0.022558593749999998
0.022558593749999998
0.019335937499999997
0.022558593749999998
0.0249755859375
0.022558593749999998
0.0217529296875
0.0217529296875
0.022558593749999998
0.022558593749999998
0.024169921875
0.022558593749999998
0.01611328125
0.022558593749999998
0.023364257812499997
0.024169921875
0.0845947265625
0.1611328125
0.22880859374999998
0.32468261718749997
0.38671875
0.4487548828125
1.3792968749999999
1.9545410156249998
2.466943359375
2.7529541015624996
2.98740234375
3.0244628906249997
3.021240234375
3.0204345703124997
3.0252685546875
3.0156005859375
3.0236572265625
3.0244628906249997
3.0236572265625
3.0252685546875
3.0244628906249997
3.0252685546875
3.0284912109374997
1.58232421875
0.022558593749999998
0.0249755859375
0.0217529296875
0.019335937499999997
0.020947265625
0.0169189453125
0.023364257812499997
0.020947265625
0.020947265625
0.027392578124999997
0.022558593749999998
0.022558593749999998
0.024169921875
0.022558593749999998
0.020947265625
0.022558593749999998
0.022558593749999998
0.024169921875
0.0580078125
0.13212890624999998
0.20705566406249998
0.301318359375
0.3665771484375
0.42941894531249997
1.0578369140625
1.8659179687499998
2.434716796875
2.70703125
3.0236572265625
3.02607421875
3.02607421875
3.0220458984375
3.0268798828124996
3.01962890625
3.02607421875
3.0244628906249997
3.0244628906249997
3.021240234375
3.0284912109374997
3.0317138671875
3.029296875
3.02607421875
0.3802734375
0.0217529296875
0.027392578124999997
0.022558593749999998
0.0281982421875
0.0201416015625
0.024169921875
0.020947265625
0.023364257812499997
0.019335937499999997
0.022558593749999998
0.022558593749999998
0.0217529296875
0.022558593749999998
0.0281982421875
0.026586914062499998
0.024169921875
0.023364257812499997
0.050756835937499994
0.1264892578125
0.2255859375
0.2892333984375
0.3544921875
0.443115234375
0.91845703125
1.5662109375
2.1309814453125
2.6997802734375
2.9205322265625
3.0268798828124996
3.0236572265625
3.0244628906249997
3.0301025390625
3.0236572265625
3.029296875
3.029296875
3.0244628906249997
3.02607421875
3.0244628906249997
3.0244628906249997
3.0244628906249997
3.0284912109374997
1.174658203125
0.019335937499999997
0.026586914062499998
0.022558593749999998
0.0217529296875
0.026586914062499998
0.019335937499999997
0.023364257812499997
0.0281982421875
0.02900390625
0.022558593749999998
0.0217529296875
0.02578125
0.023364257812499997
0.0201416015625
0.020947265625
0.024169921875
0.023364257812499997
0.022558593749999998
0.069287109375
0.17482910156249998
0.2384765625
0.3117919921875
0.39799804687499996
0.837890625
1.3212890625
2.028662109375
2.5950439453125
2.8560791015625
2.9841796874999997
3.0244628906249997
3.0220458984375
3.02607421875
3.02607421875
3.0244628906249997
3.02607421875
3.02607421875
3.027685546875
3.0284912109374997
3.0244628906249997
3.029296875
3.0228515624999996
3.02607421875
0.022558593749999998
0.022558593749999998
0.022558593749999998
0.019335937499999997
0.0217529296875
0.018530273437499998
0.018530273437499998
0.023364257812499997
0.022558593749999998
0.018530273437499998
0.022558593749999998
0.0217529296875
0.022558593749999998
0.023364257812499997
0.017724609375
0.0201416015625
0.0217529296875
0.022558593749999998
0.0378662109375
0.11762695312499999
0.1861083984375
0.26425781249999997
0.35126953125
0.4084716796875
1.00224609375
1.8626953124999999
2.1946289062499997
2.6901123046874997
2.8536621093749996
3.0252685546875
3.0236572265625
3.0244628906249997
3.0252685546875
3.0228515624999996
3.0220458984375
3.0220458984375
3.0244628906249997
3.02607421875
3.027685546875
3.02607421875
3.0252685546875
3.0244628906249997
0.20625
0.022558593749999998
0.0217529296875
0.022558593749999998
0.022558593749999998
0.020947265625
0.022558593749999998
0.026586914062499998
0.0217529296875
0.0217529296875
0.027392578124999997
0.0201416015625
0.02578125
0.0217529296875
0.020947265625
0.022558593749999998
0.026586914062499998
0.02578125
0.033837890625
0.10554199218749999
0.18369140625
0.252978515625
0.34562988281249996
0.41008300781249996
0.984521484375
1.8715576171875
2.05927734375
2.7062255859374997
2.9640380859374997
3.0244628906249997
3.0268798828124996
3.0220458984375
3.02607421875
3.0220458984375
3.0244628906249997
3.0228515624999996
3.029296875
3.027685546875
3.0236572265625
3.0244628906249997
3.021240234375
3.0244628906249997
1.18271484375
0.0217529296875
0.02578125
0.023364257812499997
0.023364257812499997
0.022558593749999998
0.023364257812499997
0.0281982421875
0.0217529296875
0.022558593749999998
0.026586914062499998
0.0217529296875
0.01611328125
0.023364257812499997
0.0217529296875
0.023364257812499997
0.022558593749999998
0.0217529296875
0.024169921875
0.04189453125
0.1119873046875
0.21914062499999998
0.28842773437499997
0.3544921875
0.8032470703125
1.29228515625
1.9223144531249998
2.2623046875
2.6844726562499996
2.8593017578124997
2.9108642578125
3.0252685546875
3.0309082031249996
3.02607421875
3.0236572265625
3.0252685546875
3.0252685546875
3.0244628906249997
3.0244628906249997
3.0244628906249997
3.0309082031249996
3.02607421875
2.5233398437499996
0.026586914062499998
0.023364257812499997
0.022558593749999998
0.023364257812499997
0.027392578124999997
0.022558593749999998
0.023364257812499997
0.02578125
0.02578125
0.023364257812499997
0.020947265625
0.022558593749999998
0.020947265625
0.019335937499999997
0.022558593749999998
0.023364257812499997
0.026586914062499998
0.027392578124999997
0.053173828124999996
0.12810058593749998
0.2296142578125
0.29970703125
0.36174316406249996
0.44553222656249997
1.0288330078124999
1.8336914062499998
2.3839599609374997
2.7166992187499996
2.8713867187499997
3.02607421875
3.02607421875
3.0236572265625
3.02607421875
3.02607421875
3.0301025390625
3.0244628906249997
3.0268798828124996
3.0204345703124997
3.0228515624999996
3.0228515624999996
3.02607421875
3.021240234375
0.5687988281249999
0.0217529296875
0.0217529296875
0.027392578124999997
0.023364257812499997
0.023364257812499997
0.0217529296875
0.022558593749999998
0.024169921875
0.0169189453125
0.0217529296875
0.023364257812499997
0.0201416015625
0.022558593749999998
0.0217529296875
0.022558593749999998
0.022558593749999998
0.026586914062499998
0.041088867187499996
0.13857421875
0.2135009765625
0.2860107421875
0.372216796875
0.43505859375
0.84755859375
1.448583984375
2.228466796875
2.5813476562499997
2.8802490234375
2.9946533203124996
3.0220458984375
3.02607421875
3.0220458984375
3.0099609375
3.01962890625
3.029296875
3.02607421875
3.0252685546875
3.02607421875
3.0268798828124996
3.0244628906249997
3.0204345703124997
1.229443359375
0.023364257812499997
0.022558593749999998
0.023364257812499997
0.027392578124999997
0.026586914062499998
0.022558593749999998
0.0217529296875
0.023364257812499997
0.022558593749999998
0.0249755859375
0.023364257812499997
0.0217529296875
0.0217529296875
0.0217529296875
0.0217529296875
0.017724609375
0.022558593749999998
0.027392578124999997
0.1248779296875
0.19497070312499998
0.26748046875
0.3633544921875
0.4229736328125
0.7726318359375
1.3253173828125
2.0939208984374997
2.5966552734375
2.8883056640625
3.0252685546875
3.0252685546875
3.0252685546875
3.0252685546875
3.027685546875
3.005126953125
3.0220458984375
3.0236572265625
3.0252685546875
3.0252685546875
3.0236572265625
3.0252685546875
3.02607421875
1.332568359375
0.023364257812499997
0.0217529296875
0.022558593749999998
0.0217529296875
0.023364257812499997
0.02578125
0.02900390625
0.023364257812499997
0.023364257812499997
0.015307617187499999
0.017724609375
0.023364257812499997
0.022558593749999998
0.02578125
0.023364257812499997
0.022558593749999998
0.02578125
0.024169921875
0.0555908203125
0.1297119140625
0.22880859374999998
0.2972900390625
0.3665771484375
0.8588378906249999
1.7539306640624999
2.4943359375
2.96162109375
3.0204345703124997
3.0244628906249997
3.02607421875
3.0236572265625
3.0244628906249997
3.02607421875
3.0228515624999996
3.027685546875
3.0236572265625
3.0252685546875
3.027685546875
3.0228515624999996
3.0252685546875
3.021240234375
3.0236572265625
1.077978515625
0.0169189453125
0.0217529296875
0.0281982421875
0.023364257812499997
0.0217529296875
0.020947265625
0.022558593749999998
0.022558593749999998
0.0217529296875
0.022558593749999998
0.022558593749999998
0.0217529296875
0.022558593749999998
0.018530273437499998
0.019335937499999997
0.018530273437499998
0.020947265625
0.022558593749999998
0.0217529296875
0.023364257812499997
0.0539794921875
1.4542236328125
3.0252685546875
3.0268798828124996
3.01962890625
3.02607421875
3.0244628906249997
3.0268798828124996
3.0252685546875
3.0236572265625
3.021240234375
3.0228515624999996
3.0188232421874996
3.0244628906249997
3.0244628906249997
3.021240234375
3.0252685546875
3.02607421875
3.0228515624999996
3.0244628906249997
3.0252685546875
3.0252685546875
3.0236572265625
3.0252685546875
3.0228515624999996
3.02607421875
3.0252685546875
3.0252685546875
3.0244628906249997
3.0236572265625
3.027685546875
3.0252685546875
3.0268798828124996
3.0228515624999996
3.027685546875
0.022558593749999998
1.9601806640625
2.8423828125
3.0244628906249997
3.0228515624999996
3.0244628906249997
3.0244628906249997
3.0252685546875
3.0244628906249997
3.02607421875
3.02607421875
3.0236572265625
3.0236572265625
3.02607421875
3.027685546875
3.0236572265625
3.0268798828124996
3.0228515624999996
3.0252685546875
3.0252685546875
3.0236572265625
3.0244628906249997
3.0252685546875
3.0244628906249997
3.0244628906249997
3.01962890625
3.0228515624999996
0.17644042968749998
0.022558593749999998
0.0281982421875
0.023364257812499997
0.026586914062499998
0.21108398437499998
0.34079589843749997
0.9071777343749999
1.3422363281249998
1.69189453125
1.9666259765624998
2.135009765625
2.2598876953125
2.2566650390625
0.022558593749999998
0.022558593749999998
0.017724609375
0.0217529296875
0.024169921875
0.81533203125
1.9835449218749999
3.027685546875
3.02607421875
3.0236572265625
3.0268798828124996
3.0252685546875
3.029296875
3.02607421875
3.02607421875
3.0309082031249996
3.0244628906249997
2.977734375
2.9785400390624996
2.8294921874999996
2.6377441406249997
2.4355224609375
3.02607421875
3.021240234375
3.0228515624999996
3.0252685546875
3.029296875
1.748291015625
0.026586914062499998
0.0201416015625
0.017724609375
0.024169921875
0.024169921875
0.02578125
0.022558593749999998
0.019335937499999997
0.1007080078125
0.13857421875
0.32065429687499997
0.36093749999999997
0.42619628906249996
0.5373779296875
0.4793701171875
0.022558593749999998
0.020947265625
0.026586914062499998
0.0217529296875
0.022558593749999998
1.3688232421875
3.0236572265625
3.0268798828124996
3.0236572265625
3.02607421875
3.0244628906249997
2.8294921874999996
2.872998046875
2.7408691406249996
2.560400390625
2.2308837890624997
2.0665283203125
1.8780029296874998
1.6620849609375
1.5315673828124998
1.3865478515624998
3.027685546875
3.0244628906249997
3.02607421875
3.0284912109374997
3.0244628906249997
2.1857666015625
0.0217529296875
0.022558593749999998
0.023364257812499997
0.02900390625
0.023364257812499997
0.023364257812499997
0.023364257812499997
0.0443115234375
0.11843261718749999
0.2827880859375
0.42539062499999997
0.4310302734375
0.502734375
0.6163330078125
0.639697265625
0.022558593749999998
0.026586914062499998
0.020947265625
0.0281982421875
0.1458251953125
1.2955078125
2.6280761718749996
3.0236572265625
3.0244628906249997
3.0244628906249997
2.898779296875
2.537841796875
2.4443847656249997
2.5209228515624997
2.3267578125
2.1261474609374997
1.9223144531249998
1.7233154296875
1.6153564453125
1.2673095703125
1.327734375
3.0228515624999996
3.0244628906249997
3.0244628906249997
3.0309082031249996
3.0075439453125
2.102783203125
0.17482910156249998
0.017724609375
0.022558593749999998
0.024169921875
0.0217529296875
0.023364257812499997
0.022558593749999998
0.024169921875
0.24895019531249998
0.4842041015625
0.67998046875
0.8225830078124999
0.9345703125
1.06025390625
1.090869140625
0.023364257812499997
0.027392578124999997
0.023364257812499997
0.023364257812499997
0.1345458984375
1.1279296875
2.18818359375
3.0252685546875
3.0244628906249997
3.021240234375
3.0228515624999996
2.8214355468749996
2.6063232421875
2.470166015625
2.4435791015625
2.23974609375
2.0729736328125
1.88525390625
1.7893798828124998
1.6693359374999999
1.6024658203125
1.52109375
3.0220458984375
3.02607421875
3.02607421875
3.0252685546875
2.7158935546875
1.0385009765625
0.026586914062499998
0.023364257812499997
0.027392578124999997
0.023364257812499997
0.022558593749999998
0.022558593749999998
0.023364257812499997
0.2715087890625
0.47856445312499996
0.8588378906249999
1.106982421875
1.1222900390625
1.219775390625
1.3027587890624999
1.2431396484375
0.022558593749999998
0.0217529296875
0.0217529296875
0.02900390625
0.476953125
2.0391357421875
3.0236572265625
3.0236572265625
3.02607421875
3.0268798828124996
2.8480224609375
2.6723876953124996
2.6200195312499996
2.5225341796875
2.4274658203125
2.1785156249999997
1.993212890625
1.8707519531249999
1.7023681640625
1.6346923828125
1.5621826171875
3.027685546875
3.021240234375
3.021240234375
3.0252685546875
2.7481201171875
1.8925048828125
0.02578125
0.023364257812499997
0.024169921875
0.0217529296875
0.0201416015625
0.078955078125
0.027392578124999997
0.51884765625
0.610693359375
0.9369873046874999
1.139208984375
1.2076904296875
1.3156494140625
1.377685546875
1.3382080078124998
0.026586914062499998
0.0201416015625
0.022558593749999998
0.023364257812499997
0.4962890625
1.5323730468749999
3.021240234375
3.0228515624999996
3.0244628906249997
3.0244628906249997
2.8947509765625
2.6232421875
2.6538574218749997
2.3662353515625
2.3565673828125
2.1406494140625
1.9513183593749999
1.8739746093749998
1.8119384765625
1.6781982421875
1.6806152343749998
3.0252685546875
3.0244628906249997
3.0244628906249997
3.0268798828124996
2.8069335937499997
1.9352050781249999
0.023364257812499997
0.022558593749999998
0.0217529296875
0.022558593749999998
0.023364257812499997
0.03544921875
0.0217529296875
0.29648437499999997
0.6348632812499999
0.9079833984375
1.1295410156249999
1.297119140625
1.3897705078125
1.4638916015624999
1.448583984375
0.023364257812499997
0.0169189453125
0.0249755859375
0.020947265625
0.37785644531249996
1.4308593749999998
3.0284912109374997
3.0268798828124996
3.0204345703124997
3.0268798828124996
2.8713867187499997
2.6321044921874996
2.5064208984375
2.276806640625
2.4016845703125
2.2349121093749997
1.9746826171874998
1.9996582031249999
1.883642578125
1.7974365234374998
1.6363037109374998
1.9916015624999999
3.0236572265625
3.0236572265625
2.9825683593749996
3.029296875
1.893310546875
0.8515869140625
0.022558593749999998
0.02578125
0.023364257812499997
0.0217529296875
0.0523681640625
0.143408203125
0.30937499999999996
0.6098876953125
0.8741455078125
1.1754638671875
1.34384765625
1.3978271484375
1.4719482421874999
1.4767822265625
1.0094970703125
0.02578125
0.0217529296875
0.023364257812499997
0.15227050781249998
1.3865478515624998
2.415380859375
3.0252685546875
3.0309082031249996
3.027685546875
2.8294921874999996
2.640966796875
2.410546875
2.4234375
2.2953369140624997
2.2429687499999997
2.05927734375
1.9029785156249999
1.8699462890624998
1.77568359375
1.6854492187499999
1.6161621093749998
3.0228515624999996
3.0244628906249997
3.0252685546875
3.0228515624999996
2.3984619140625
1.4542236328125
0.020947265625
0.020947265625
0.027392578124999997
0.027392578124999997
0.09023437499999999
0.2578125
0.1571044921875
0.5776611328125
0.8838134765625
1.1206787109375
1.2858398437499998
1.3921875
1.5106201171875
1.5621826171875
1.49853515625
0.02578125
0.023364257812499997
0.020947265625
0.2215576171875
0.7734375
1.603271484375
3.021240234375
3.0268798828124996
3.0252685546875
2.9414794921875
2.6490234375
2.4298828125
2.4830566406249996
2.309033203125
2.254248046875
2.0947265625
1.96904296875
1.899755859375
1.780517578125
1.6967285156249998
1.625830078125
3.0252685546875
3.0252685546875
3.01962890625
2.91328125
2.7336181640625
1.7619873046874999
0.018530273437499998
0.023364257812499997
0.0217529296875
0.0201416015625
0.0249755859375
0.1611328125
0.0958740234375
0.6388916015624999
0.8274169921875
1.09892578125
1.3470703124999999
1.3913818359374999
1.56298828125
1.5557373046874998
1.5170654296875
0.022558593749999998
0.022558593749999998
0.022558593749999998
0.2940673828125
0.69609375
1.69833984375
3.0220458984375
3.0268798828124996
3.0244628906249997
2.92939453125
2.6949462890625
2.5152832031249996
2.5168945312499997
2.2751953124999997
2.2590820312499997
2.1140624999999997
1.8892822265625
1.88525390625
1.8240234375
1.7257324218749999
1.6564453124999998
3.0244628906249997
3.0228515624999996
2.7497314453125
2.96484375
2.80048828125
1.6056884765625
0.34965820312499996
0.0217529296875
0.024169921875
0.023364257812499997
0.018530273437499998
0.1635498046875
0.15468749999999998
0.4648681640625
0.7710205078125
1.0650878906249999
1.2721435546875
1.3728515625
1.5073974609374998
1.5428466796875
1.50498046875
0.023364257812499997
0.018530273437499998
0.02578125
0.223974609375
0.34160156249999996
1.56298828125
2.624853515625
3.02607421875
3.0236572265625
3.0244628906249997
2.792431640625
2.4830566406249996
2.3146728515625
2.3597900390624997
2.27841796875
2.183349609375
2.018994140625
1.899755859375
1.8457763671874998
1.767626953125
1.7072021484375
2.889111328125
3.0244628906249997
3.0309082031249996
2.8270751953124997
2.8472167968749997
2.0665283203125
1.069921875
0.023364257812499997
0.022558593749999998
0.0169189453125
0.0217529296875
0.15871582031249998
0.23928222656249998
0.24733886718749998
0.7718261718749999
1.0159423828125
1.2342773437499999
1.3905761718749998
1.4397216796874999
1.4993408203124998
1.546875
0.02578125
0.02900390625
0.02578125
0.2715087890625
0.38510742187499997
0.9869384765625
1.8336914062499998
3.02607421875
3.0309082031249996
3.027685546875
2.7561767578125
2.5209228515624997
2.357373046875
2.3146728515625
2.2244384765625
2.1938232421875
2.05283203125
1.893310546875
1.8828369140624999
1.79501953125
1.714453125
1.6532226562499999
3.0268798828124996
3.029296875
2.785986328125
2.8319091796875
2.616796875
1.1657958984374999
0.023364257812499997
0.023364257812499997
0.0217529296875
0.022558593749999998
0.1248779296875
0.3279052734375
0.4004150390625
0.6598388671875
0.95390625
1.1883544921875
1.316455078125
1.3946044921874998
1.42119140625
1.5114257812499998
1.4558349609374999
0.01611328125
0.023364257812499997
0.2666748046875
0.3520751953125
0.8096923828125
1.7660156249999999
3.0244628906249997
3.0228515624999996
3.0244628906249997
2.8029052734374997
2.5853759765624997
2.3315917968749997
2.4685546874999997
2.341259765625
2.2631103515624997
2.1035888671875
1.96904296875
1.9166748046875
1.7942138671874999
1.7047851562499998
1.6403320312499998
3.01962890625
3.0244628906249997
2.663525390625
2.9382568359374996
2.6232421875
1.65
0.017724609375
0.0217529296875
0.017724609375
0.0217529296875
0.0475341796875
0.20625
0.069287109375
0.5647705078124999
0.9385986328125
1.1867431640625
1.413134765625
1.4228027343749998
1.4840332031249999
1.5194824218749998
1.48564453125
0.023364257812499997
0.018530273437499998
0.02578125
0.310986328125
0.768603515625
1.8473876953125
2.818212890625
3.0236572265625
3.0244628906249997
3.0059326171875
2.6546630859375
2.4274658203125
2.34287109375
2.33642578125
2.2598876953125
2.1382324218749997
2.0181884765625
1.8973388671875
1.8465820312499999
1.7579589843749999
1.6371093749999999
3.0244628906249997
3.0244628906249997
2.663525390625
2.9463134765624996
2.6401611328124996
1.8183837890624999
0.2634521484375
0.023364257812499997
0.023364257812499997
0.01611328125
0.04833984375
0.146630859375
0.20947265625
0.523681640625
0.781494140625
1.0449462890624999
1.3382080078124998
1.3688232421875
1.461474609375
1.5194824218749998
1.5082031249999999
0.026586914062499998
0.024169921875
0.023364257812499997
0.38913574218749997
0.5204589843749999
1.335791015625
2.7722900390625
3.0228515624999996
3.0252685546875
3.0244628906249997
2.7142822265624997
2.4613037109375
2.3614013671875
2.321923828125
2.3267578125
2.2018798828125
2.018994140625
1.9102294921874998
1.8731689453125
1.7571533203124998
1.6765869140624998
1.6379150390625
3.02607421875
3.0244628906249997
2.6901123046874997
2.8713867187499997
1.87236328125
0.837890625
0.02578125
0.022558593749999998
0.027392578124999997
0.020947265625
0.0684814453125
0.2360595703125
0.2280029296875
0.6533935546874999
1.029638671875
1.2834228515625
1.4300537109375
1.4816162109375
1.5355957031249998
1.606494140625
1.4767822265625
0.022558593749999998
0.026586914062499998
0.030615234374999998
0.43022460937499996
1.2963134765625
2.1221191406249997
3.0252685546875
3.0244628906249997
3.0252685546875
2.824658203125
2.4919189453125
2.3984619140625
2.5031982421874996
2.3557617187499997
2.2614990234375
2.0560546875
1.9569580078125
1.8981445312499998
1.7740722656249999
1.7136474609374999
1.6636962890625
3.0301025390625
3.02607421875
2.6788330078125
2.8544677734375
2.5555664062499996
1.6588623046875
0.0217529296875
0.022558593749999998
0.023364257812499997
0.022558593749999998
0.0378662109375
0.24895019531249998
0.0797607421875
0.69287109375
0.9869384765625
1.1859374999999999
1.4034667968749999
1.429248046875
1.47275390625
1.5251220703125
1.4236083984374999
0.022558593749999998
0.024169921875
0.024169921875
0.31259765624999997
0.8427246093749999
1.92392578125
3.0228515624999996
3.0268798828124996
3.0244628906249997
2.8222412109375
2.5894042968749997
2.4121582031249997
2.534619140625
2.3984619140625
2.14306640625
2.0471923828125
1.960986328125
1.9086181640625
1.861083984375
1.7603759765625
1.6975341796874999
3.0252685546875
3.02607421875
2.6780273437499997
2.8947509765625
2.4991699218749996
1.6322753906249998
0.0217529296875
0.023364257812499997
0.0201416015625
0.017724609375
0.0604248046875
0.2118896484375
0.088623046875
0.5994140625
0.7951904296875
1.2028564453125
1.3833251953124999
1.41796875
1.464697265625
1.533984375
1.477587890625
0.020947265625
0.022558593749999998
0.022558593749999998
0.23203125
0.6348632812499999
1.989990234375
3.029296875
3.0228515624999996
3.0252685546875
3.0204345703124997
2.7239501953125
2.4427734375
2.4838623046875
2.3718749999999997
2.39765625
2.1704589843749997
2.0036865234375
1.9787109374999998
1.8715576171875
1.764404296875
1.7184814453125
3.0252685546875
3.0268798828124996
2.8721923828125
2.5531494140624997
2.5160888671875
1.66611328125
0.5373779296875
0.0169189453125
0.022558593749999998
0.023364257812499997
0.0717041015625
0.217529296875
0.28842773437499997
0.451171875
0.8177490234375
1.0594482421875
1.2769775390625
1.3744628906249998
1.4461669921875
1.49853515625
1.4703369140625
0.022558593749999998
0.0169189453125
0.0217529296875
0.165966796875
0.6018310546875
1.5782958984375
2.6296874999999997
3.0252685546875
3.02607421875
3.0204345703124997
2.7980712890625
2.5233398437499996
2.441162109375
2.4814453125
2.410546875
2.2236328125
2.0729736328125
1.980322265625
1.9311767578124999
1.832080078125
1.7595703125
1.716064453125
3.029296875
3.0252685546875
2.56845703125
2.8375488281249996
2.260693359375
0.7073730468749999
0.018530273437499998
0.023364257812499997
0.022558593749999998
0.0910400390625
0.0837890625
0.2376708984375
0.3802734375
0.6968994140625
0.9063720703125
1.2157470703125
1.332568359375
1.3502929687499998
1.426025390625
1.4429443359374998
1.37607421875
0.023364257812499997
0.0169189453125
0.020947265625
0.32951660156249996
0.797607421875
2.434716796875
3.0228515624999996
3.0252685546875
3.0268798828124996
2.8657470703124996
2.6498291015624997
2.4854736328125
2.5805419921875
2.4161865234374997
2.4363281249999997
2.128564453125
2.0423583984375
1.9698486328125
1.8054931640624998
1.7732666015624998
1.7176757812499999
3.0236572265625
3.02607421875
2.8464111328125
2.8939453124999996
2.5322021484375
1.6137451171875
0.0169189453125
0.024169921875
0.023364257812499997
0.023364257812499997
0.022558593749999998
0.19658203124999998
0.050756835937499994
0.671923828125
0.8177490234375
1.055419921875
1.1939941406249999
1.2906738281249999
1.380908203125
1.4437499999999999
1.38896484375
0.02578125
0.0249755859375
0.024169921875
0.2344482421875
0.7299316406249999
1.835302734375
3.0244628906249997
3.0252685546875
3.0252685546875
3.0244628906249997
2.737646484375
2.570068359375
2.6772216796875
2.528173828125
2.4500244140625
2.26552734375
2.0745849609375
2.023828125
1.9666259765624998
1.8441650390625
1.7450683593749998
3.027685546875
3.029296875
2.9068359375
3.01318359375
2.698974609375
1.6371093749999999
0.024169921875
0.030615234374999998
0.017724609375
0.022558593749999998
0.023364257812499997
0.09345703124999999
0.057202148437499996
0.7114013671874999
0.734765625
0.9595458984374999
1.2141357421874999
1.26328125
1.3462646484374998
1.393798828125
1.3752685546874999
0.027392578124999997
0.020947265625
0.023364257812499997
0.0845947265625
0.5873291015625
1.606494140625
3.0252685546875
3.0228515624999996
3.02607421875
3.0244628906249997
2.88427734375
2.6594970703125
2.666748046875
2.3307861328125
2.513671875
2.30419921875
2.0923095703125
2.0729736328125
1.972265625
1.8167724609375
1.7378173828124999
2.1712646484375
3.0244628906249997
2.9189208984375
2.8552734374999997
2.9076416015624997
1.7023681640625
0.6711181640624999
0.027392578124999997
0.022558593749999998
0.022558593749999998
0.023364257812499997
0.09990234375
0.1087646484375
0.37705078124999997
0.6791748046874999
0.97646484375
1.1529052734375
1.2826171874999999
1.3019531249999998
1.3929931640625
1.384130859375
0.7903564453124999
0.018530273437499998
0.0217529296875
0.023364257812499997
0.3633544921875
1.529150390625
2.591015625
3.021240234375
3.02607421875
3.02607421875
2.8721923828125
2.6619140624999997
2.5144775390625
2.591015625
2.466943359375
2.3646240234375
2.2002685546875
2.022216796875
1.9376220703125
1.8618896484374998
1.7539306640624999
1.7442626953125
3.0244628906249997
3.0252685546875
2.937451171875
2.9414794921875
2.2711669921874997
1.3027587890624999
0.022558593749999998
0.022558593749999998
0.019335937499999997
0.020947265625
0.04833984375
0.19013671875
0.1200439453125
0.6614501953124999
0.849169921875
1.094091796875
1.2866455078124999
1.29228515625
1.3656005859375
1.4308593749999998
1.2560302734375
0.0217529296875
0.0249755859375
0.019335937499999997
0.3440185546875
0.8362792968749999
1.7450683593749998
3.0268798828124996
3.0244628906249997
3.0252685546875
2.8447998046875
2.6232421875
2.47177734375
2.5958496093749996
2.4725830078124997
2.4041015624999997
2.193017578125
2.054443359375
2.01416015625
1.9505126953124998
1.786962890625
1.7217041015624999
3.02607421875
3.0252685546875
2.9825683593749996
2.9430908203125
2.6756103515625
1.5017578125
0.024169921875
0.0217529296875
0.027392578124999997
0.0201416015625
0.0281982421875
0.12810058593749998
0.049951171875
0.6195556640625
0.7710205078125
1.0892578124999999
1.222998046875
1.3019531249999998
1.3631835937499999
1.442138671875
1.3736572265625
0.017724609375
0.023364257812499997
0.0217529296875
0.270703125
0.7210693359375
1.6967285156249998
3.0252685546875
3.0252685546875
3.0268798828124996
3.0204345703124997
2.81982421875
2.544287109375
2.6361328124999996
2.4661376953125
2.437939453125
2.2623046875
2.0600830078125
2.02705078125
1.920703125
1.8498046874999998
1.7120361328125
3.027685546875
3.0188232421874996
2.75537109375
3.0244628906249997
2.6723876953124996
1.5847412109374999
0.3343505859375
0.02578125
0.023364257812499997
0.02578125
0.02578125
0.1232666015625
0.023364257812499997
0.4189453125
0.7323486328125
0.9877441406249999
1.21171875
1.2914794921875
1.345458984375
1.4123291015625
1.42119140625
0.023364257812499997
0.017724609375
0.023364257812499997
0.19094238281249998
0.7097900390624999
1.764404296875
2.8294921874999996
3.0252685546875
3.0244628906249997
3.0244628906249997
2.7851806640624996
2.6055175781249997
2.4927246093749997
2.3356201171874997
2.437939453125
2.28486328125
2.10439453125
2.015771484375
1.9198974609375
1.84013671875
1.7426513671875
3.0244628906249997
3.029296875
2.7658447265625
2.8818603515624996
2.763427734375
1.9545410156249998
0.4390869140625
0.024169921875
0.023364257812499997
0.022558593749999998
0.026586914062499998
0.058813476562499994
0.191748046875
0.423779296875
0.6912597656249999
0.8999267578125
1.1996337890625
1.2826171874999999
1.36962890625
1.413134765625
1.4493896484375
0.0249755859375
0.02578125
0.022558593749999998
0.058813476562499994
0.4004150390625
1.1255126953124999
2.745703125
3.0252685546875
3.02607421875
3.027685546875
2.8367431640625
2.634521484375
2.4766113281249997
2.489501953125
2.39765625
2.383154296875
2.1333984375
2.0020751953125
2.0085205078125
1.9013671875
1.7716552734375
1.7265380859375
3.029296875
3.0204345703124997
2.8174072265624996
2.8955566406249997
2.0649169921875
1.087646484375
0.01611328125
0.01611328125
0.022558593749999998
0.026586914062499998
0.04833984375
0.23203125
0.2118896484375
0.554296875
0.90556640625
1.135986328125
1.27939453125
1.3229003906249999
1.400244140625
1.4437499999999999
1.3913818359374999
0.027392578124999997
0.0217529296875
0.018530273437499998
0.3826904296875
1.0433349609375
1.915869140625
3.0228515624999996
3.0268798828124996
3.0301025390625
2.8883056640625
2.640966796875
2.441162109375
2.5587890625
2.44599609375
2.3420654296875
2.1543457031249997
2.0625
1.9730712890625
1.877197265625
1.7772949218749998
1.699951171875
3.02607421875
3.0244628906249997
2.6240478515624996
2.7988769531249997
2.582958984375
1.6153564453125
0.024169921875
0.0217529296875
0.023364257812499997
0.026586914062499998
0.09426269531249999
0.2384765625
0.08620605468749999
0.6179443359375
0.8346679687499999
1.1045654296875
1.29228515625
1.3470703124999999
1.4139404296875
1.4791992187499998
1.4074951171874999
0.017724609375
0.023364257812499997
0.022558593749999998
0.37302246093749997
0.8983154296875
1.996435546875
3.0252685546875
3.0309082031249996
3.029296875
2.843994140625
2.6756103515625
2.454052734375
2.4500244140625
2.4822509765625
2.3839599609374997
2.2147705078124997
2.0616943359374997
1.9682373046875
1.9013671875
1.751513671875
1.6910888671875
3.02607421875
3.02607421875
2.5410644531249997
2.8480224609375
2.5322021484375
1.4848388671875
0.09990234375
0.022558593749999998
0.0249755859375
0.022558593749999998
0.0322265625
0.169189453125
0.1232666015625
0.6090820312499999
0.8266113281249999
1.094091796875
1.2665039062499999
1.2745605468749999
1.3784912109374998
1.4655029296875
1.4155517578124999
0.0217529296875
0.022558593749999998
0.026586914062499998
0.346435546875
0.5470458984375
1.9432617187499999
2.9277832031249997
3.0268798828124996
3.0244628906249997
3.029296875
2.70380859375
2.576513671875
2.39765625
2.3477050781249997
2.3936279296875
2.2131591796875
2.0423583984375
1.9625976562499998
1.8731689453125
1.78857421875
1.7039794921875
1.6653076171874999
3.02607421875
3.0099609375
2.5708740234375
2.5716796874999996
1.72734375
0.7323486328125
0.019335937499999997
0.026586914062499998
0.023364257812499997
0.0684814453125
0.182080078125
0.2940673828125
0.3875244140625
0.662255859375
1.023193359375
1.2350830078125
1.3583496093749998
1.397021484375
1.4711425781249998
1.4558349609374999
0.022558593749999998
0.022558593749999998
0.026586914062499998
0.16677246093749998
0.526904296875
1.340625
2.2985595703125
3.01962890625
3.02607421875
3.0252685546875
2.7916259765625
2.4709716796875
2.3477050781249997
2.4677490234375
2.3662353515625
2.2776123046875
2.144677734375
1.9376220703125
1.9384277343749998
1.7942138671874999
1.7176757812499999
1.6636962890625
3.027685546875
3.0252685546875
2.5902099609375
2.7336181640625
2.405712890625
0.8531982421875
0.0201416015625
0.019335937499999997
0.027392578124999997
0.0515625
0.1377685546875
0.36174316406249996
0.38107910156249997
0.6832031249999999
0.9402099609375
1.1794921875
1.3672119140624999
1.368017578125
1.456640625
1.480810546875
1.4091064453125
0.022558593749999998
0.023364257812499997
0.1812744140625
0.510791015625
0.9394042968749999
2.08505859375
3.0228515624999996
3.0244628906249997
3.0309082031249996
2.8045166015625
2.5595947265624996
2.373486328125
2.3960449218749997
2.333203125
2.2856689453125
2.0737792968749997
1.9746826171874998
1.925537109375
1.8336914062499998
1.7893798828124998
1.738623046875
3.02607421875
3.01962890625
2.615185546875
2.7835693359375
2.4564697265624997
1.611328125
0.017724609375
0.022558593749999998
0.023364257812499997
0.027392578124999997
0.12890625
0.31340332031249996
0.124072265625
0.6348632812499999
0.9345703125
1.168212890625
1.33740234375
1.3462646484374998
1.4316650390624999
1.4864501953125
1.4195800781249999
0.023364257812499997
0.023364257812499997
0.020947265625
0.4084716796875
0.9547119140625
1.94970703125
3.029296875
3.0268798828124996
3.027685546875
2.848828125
2.6699707031249997
2.4129638671875
2.4242431640624997
2.3291748046875
2.3235351562499997
2.13984375
1.9779052734375
1.915869140625
1.8522216796875
1.7507080078125
1.6886718749999998
3.01962890625
3.0268798828124996
2.695751953125
2.7424804687499997
2.4709716796875
1.5782958984375
0.023364257812499997
0.022558593749999998
0.022558593749999998
0.0217529296875
0.10231933593749999
