3.02607421875
3.0268798828124996
2.4121582031249997
2.4951416015624996
2.27841796875
1.27294921875
0.02578125
0.02578125
0.022558593749999998
0.201416015625
0.451171875
0.7130126953125
0.581689453125
1.10859375
1.2906738281249999
1.3913818359374999
1.4735595703125
1.509814453125
1.5218994140625
1.5412353515625
1.4558349609374999
0.022558593749999998
0.020947265625
1.3446533203125
1.03125
1.2020507812499999
2.1333984375
3.0268798828124996
3.0244628906249997
3.0309082031249996
2.25263671875
1.9593749999999999
1.957763671875
2.04638671875
1.9835449218749999
2.018994140625
1.9078125
1.716064453125
1.7442626953125
1.716064453125
1.6040771484374998
1.5782958984375
3.029296875
3.0244628906249997
2.0971435546875
2.5410644531249997
2.270361328125
1.2286376953125
0.043505859375
0.022558593749999998
0.020947265625
0.018530273437499998
0.265869140625
0.515625
0.591357421875
0.9031494140624999
1.1754638671875
1.4244140625
1.5057861328125
1.4461669921875
1.4880615234374999
1.525927734375
1.5621826171875
0.026586914062499998
0.0217529296875
1.3720458984375
1.0916748046875
1.1738525390624999
2.2453857421875
2.9624267578124996
3.0252685546875
3.0252685546875
2.354150390625
2.093115234375
1.9489013671875
1.9166748046875
1.9352050781249999
1.93359375
1.8949218749999999
1.7853515624999998
1.7724609375
1.6910888671875
1.6314697265625
1.611328125
3.02607421875
3.0220458984375
2.2598876953125
2.176904296875
2.2534423828125
1.4977294921875
0.6574218749999999
0.023364257812499997
0.020947265625
0.022558593749999998
0.3544921875
0.6195556640625
0.7452392578125
0.752490234375
1.198828125
1.3744628906249998
1.4638916015624999
1.4961181640624999
1.5380126953125
1.542041015625
1.5186767578125
0.018530273437499998
0.022558593749999998
0.7597412109374999
1.2101074218749999
1.1134277343749999
1.6379150390625
2.2067138671874997
3.02607421875
3.0236572265625
2.576513671875
2.1946289062499997
1.98837890625
1.844970703125
1.9303710937499998
2.0109375
1.9343994140624998
1.8248291015625
1.6822265625
1.6572509765624999
1.6363037109374998
1.6089111328124999
1.5782958984375
3.0301025390625
2.286474609375
2.286474609375
2.3775146484375
2.0633056640625
0.6993164062499999
0.02900390625
0.023364257812499997
0.023364257812499997
0.3150146484375
0.476953125
0.760546875
0.700927734375
1.0409179687499999
1.2656982421874998
1.5323730468749999
1.5396240234374998
1.4912841796874998
1.4961181640624999
1.4759765624999999
1.4558349609374999
0.0217529296875
0.404443359375
1.2616699218749998
1.1190673828125
1.174658203125
2.1809326171875
3.0268798828124996
3.029296875
2.5902099609375
2.2727783203125
1.9714599609374999
1.8626953124999999
2.0278564453125
1.98837890625
1.9029785156249999
1.78857421875
1.6725585937499998
1.6910888671875
1.6105224609375
1.7072021484375
1.5919921874999998
3.0252685546875
3.0252685546875
2.2308837890624997
2.4355224609375
2.1487060546875
1.2447509765625
0.022558593749999998
0.022558593749999998
0.022558593749999998
0.14501953125
0.38994140624999996
0.7412109375
0.5824951171875
1.1593505859375
1.3237060546875
1.44052734375
1.5283447265624999
1.5138427734375
1.53076171875
1.558154296875
1.5541259765625
0.0249755859375
0.0281982421875
1.3019531249999998
1.084423828125
1.2109130859375
2.05927734375
2.9608154296875
3.0220458984375
3.0228515624999996
2.3517333984374997
2.0375244140624997
1.8796142578125
1.9134521484375
1.719287109375
1.96904296875
1.8385253906249999
1.699951171875
1.7265380859375
1.674169921875
1.5960205078124998
1.5960205078124998
3.0252685546875
3.0268798828124996
2.1624023437499997
2.5483154296875
2.2244384765625
1.2439453125
0.0217529296875
0.0217529296875
0.022558593749999998
0.027392578124999997
0.34160156249999996
0.5857177734375
0.7395996093749999
1.103759765625
1.19560546875
1.397021484375
1.5702392578125
1.5001464843749999
1.5001464843749999
1.5428466796875
1.5146484375
0.023364257812499997
0.023364257812499997
1.3510986328124999
1.1859374999999999
1.1593505859375
1.8369140625
2.9600097656249997
3.0244628906249997
3.021240234375
2.3291748046875
2.1060058593749997
1.9078125
1.925537109375
1.7716552734375
1.98515625
1.85625
1.7378173828124999
1.7426513671875
1.7281494140625
1.5976318359375
1.546875
1.619384765625
3.027685546875
2.1535400390625
2.1986572265624997
2.3912109375
1.3261230468749998
0.5534912109375
0.023364257812499997
0.022558593749999998
0.024169921875
0.285205078125
0.5003173828124999
0.7621582031249999
0.9160400390625
1.2383056640624999
1.3382080078124998
1.4316650390624999
1.5404296874999999
1.4550292968749998
1.5750732421875
1.522705078125
1.327734375
0.0249755859375
1.3704345703124998
1.2906738281249999
1.1464599609375
1.8361083984375
2.4065185546875
3.0252685546875
3.027685546875
2.5273681640624996
2.20751953125
1.920703125
1.8473876953125
1.93359375
1.9110351562499999
1.864306640625
1.8071044921875
1.7015624999999999
1.658056640625
1.6000488281249998
1.5807128906249999
1.5557373046874998
3.02607421875
2.6433837890625
2.36220703125
2.3678466796874997
1.9182861328124998
1.103759765625
0.022558593749999998
0.018530273437499998
0.019335937499999997
0.259423828125
0.5631591796875
0.6872314453124999
0.6082763671875
1.1319580078125
1.3720458984375
1.461474609375
1.5162597656249999
1.4864501953125
1.53076171875
1.561376953125
1.5146484375
0.0249755859375
0.02578125
1.316455078125
1.1529052734375
1.2826171874999999
1.9198974609375
3.02607421875
3.0228515624999996
2.9438964843749997
2.2469970703124997
1.9271484374999999
1.803076171875
1.9311767578124999
1.893310546875
1.9029785156249999
1.8095214843749998
1.7313720703125
1.7136474609374999
1.6773925781249999
1.5895751953125
1.5428466796875
3.0301025390625
2.7505371093749997
2.3130615234375
2.34287109375
2.118896484375
1.224609375
0.02578125
0.02900390625
0.02578125
0.21108398437499998
0.45842285156249996
0.710595703125
0.631640625
1.22138671875
1.2818115234374998
1.4735595703125
1.5017578125
1.5283447265624999
1.5807128906249999
1.5847412109374999
1.5073974609374998
0.0217529296875
0.026586914062499998
1.4920898437499999
1.1271240234375
1.3092041015625
1.9593749999999999
3.0228515624999996
3.0236572265625
2.9946533203124996
2.3477050781249997
2.0826416015625
1.82080078125
1.928759765625
1.7764892578125
1.8522216796875
1.7378173828124999
1.6798095703125
1.7080078125
1.6508056640625
1.5750732421875
1.558154296875
3.01962890625
3.029296875
2.1132568359375
2.431494140625
2.101171875
1.1303466796875
0.33273925781249997
0.02578125
0.022558593749999998
0.027392578124999997
0.375439453125
0.6550048828124999
0.6896484374999999
0.984521484375
1.2769775390625
1.42119140625
1.5476806640624998
1.5194824218749998
1.5090087890625
1.5057861328125
1.4711425781249998
0.0217529296875
0.022558593749999998
1.4719482421874999
1.1456542968749999
1.1295410156249999
1.8667236328124999
3.0252685546875
3.021240234375
3.02607421875
2.3984619140625
2.064111328125
1.9062011718749998
1.8248291015625
1.716064453125
1.9190917968749999
1.8578613281249998
1.7281494140625
1.6975341796874999
1.6636962890625
1.6556396484375
1.6056884765625
2.358984375
3.0204345703124997
2.1325927734375
2.2993652343749997
2.3517333984374997
1.5525146484374999
0.41411132812499996
0.022558593749999998
0.027392578124999997
0.023364257812499997
0.39316406249999997
0.5679931640625
0.7758544921874999
0.9692138671874999
1.22138671875
1.3752685546874999
1.3986328124999998
1.5355957031249998
1.5911865234375
1.5976318359375
1.5645996093749999
0.3673828125
0.024169921875
1.5968261718749999
1.29228515625
1.1134277343749999
2.0093261718749997
2.5724853515625
3.0228515624999996
3.0284912109374997
2.4226318359375
2.109228515625
1.8820312499999998
1.85625
1.9166748046875
1.893310546875
1.8441650390625
1.7047851562499998
1.667724609375
1.6935058593749999
1.6322753906249998
1.5839355468749998
1.5678222656249998
3.0236572265625
2.402490234375
2.289697265625
2.3162841796875
1.716064453125
0.9313476562499999
0.0217529296875
0.027392578124999997
0.022558593749999998
0.3262939453125
0.55751953125
0.79921875
0.7412109375
1.1698242187499999
1.3768798828125
1.4961181640624999
1.5275390624999998
1.4671142578124998
1.4912841796874998
1.5323730468749999
1.4977294921875
0.017724609375
0.30937499999999996
1.43408203125
1.0578369140625
1.3801025390625
1.993212890625
3.0220458984375
3.01962890625
2.711865234375
2.2389404296874997
1.9456787109375
1.7990478515625
1.9553466796874999
1.9150634765624999
1.8739746093749998
1.799853515625
1.6717529296875
1.6878662109375
1.6290527343749999
1.6056884765625
1.5412353515625
3.0252685546875
3.0204345703124997
2.302587890625
2.4282714843749997
2.1019775390624997
1.0248046874999999
0.027392578124999997
0.023364257812499997
0.017724609375
0.291650390625
0.49064941406249996
0.7283203125
0.6727294921875
1.1923828125
1.3398193359375
1.4671142578124998
1.5323730468749999
1.5428466796875
1.5323730468749999
1.5283447265624999
1.4550292968749998
0.02578125
0.023364257812499997
1.5001464843749999
1.094091796875
1.3502929687499998
1.993212890625
3.0252685546875
3.027685546875
3.027685546875
2.2083251953125
1.948095703125
1.8240234375
1.941650390625
1.8780029296874998
1.9053955078125
1.7426513671875
1.6588623046875
1.6693359374999999
1.65
1.6121337890624998
1.5927978515624999
3.0301025390625
3.0228515624999996
2.035107421875
2.4298828125
2.1309814453125
1.1802978515625
0.1635498046875
0.022558593749999998
0.023364257812499997
0.078955078125
0.3601318359375
0.7476562499999999
0.6977050781249999
1.058642578125
1.2568359375
1.432470703125
1.5364013671874999
1.474365234375
1.5243164062499999
1.5517089843749998
1.4630859374999998
0.018530273437499998
0.023364257812499997
1.545263671875
1.268115234375
1.2947021484374999
2.099560546875
2.689306640625
3.0252685546875
3.0301025390625
2.3904052734375
2.11728515625
1.8546386718749999
1.8361083984375
1.880419921875
1.8659179687499998
1.7740722656249999
1.6645019531249998
1.6556396484375
1.6701416015625
1.6435546875
1.6024658203125
3.0252685546875
3.027685546875
2.2228271484374997
2.3614013671875
2.2292724609375
1.4767822265625
0.6872314453124999
0.026586914062499998
0.017724609375
0.019335937499999997
0.41008300781249996
0.639697265625
0.7597412109374999
0.8467529296874999
1.2705322265624999
1.4107177734374998
1.506591796875
1.4840332031249999
1.5057861328125
1.558154296875
1.5404296874999999
0.024169921875
0.023364257812499997
1.1287353515625
1.2093017578125
1.0691162109374999
1.6451660156249999
2.6578857421874997
3.0244628906249997
3.02607421875
2.5571777343749997
2.1068115234375
1.8312744140625
1.8280517578125
1.8828369140624999
1.912646484375
1.8224121093749999
1.7039794921875
1.6314697265625
1.6733642578124999
1.6185791015625
1.6000488281249998
1.554931640625
3.021240234375
2.3009765625
2.1583740234374997
2.3098388671875
1.5138427734375
0.7565185546875
0.018530273437499998
0.022558593749999998
0.022558593749999998
0.33193359375
0.49870605468749996
0.7822998046874999
0.7581298828124999
1.19560546875
1.332568359375
1.4622802734375
1.49853515625
1.4800048828124999
1.593603515625
1.6427490234375
1.4711425781249998
0.020947265625
0.8443359374999999
1.3784912109374998
1.1617675781249999
1.4107177734374998
2.0576660156249997
3.0252685546875
3.0268798828124996
2.63935546875
2.25263671875
1.9948242187499998
1.796630859375
1.9601806640625
1.8457763671874998
1.8256347656249998
1.7619873046874999
1.5911865234375
1.6564453124999998
1.6306640625
1.61455078125
1.5460693359375
3.0268798828124996
2.9358398437499997
2.152734375
2.4081298828124997
2.1519287109375
1.3124267578125
0.022558593749999998
0.0249755859375
0.022558593749999998
0.2038330078125
0.533349609375
0.7629638671875
0.6147216796875
1.1674072265625
1.300341796875
1.4413330078125
1.5517089843749998
1.5017578125
1.5396240234374998
1.5436523437499998
1.4928955078125
0.022558593749999998
0.022558593749999998
1.496923828125
1.116650390625
1.3269287109374999
2.147900390625
3.0252685546875
3.0244628906249997
3.02607421875
2.3477050781249997
2.060888671875
1.8167724609375
1.843359375
1.883642578125
1.8377197265624998
1.78857421875
1.72412109375
1.706396484375
1.67578125
1.558154296875
1.5323730468749999
3.0284912109374997
3.01962890625
2.0689453125
2.40732421875
2.18173828125
1.2753662109375
0.022558593749999998
0.022558593749999998
0.027392578124999997
0.15791015625
0.43425292968749996
0.684814453125
0.6582275390625
1.1053710937499999
1.2205810546875
1.38896484375
1.5492919921875
1.5025634765625
1.546875
1.585546875
1.5251220703125
0.024169921875
0.024169921875
1.4574462890625
1.1931884765625
1.300341796875
2.102783203125
2.7529541015624996
3.0268798828124996
3.0268798828124996
2.34931640625
2.1019775390624997
1.84013671875
1.915869140625
1.8473876953125
1.9489013671875
1.7901855468749999
1.7104248046875
1.6806152343749998
1.67578125
1.609716796875
1.5670166015625
1.56298828125
3.0252685546875
2.1519287109375
2.1100341796874997
2.141455078125
1.3792968749999999
0.55751953125
0.0281982421875
0.022558593749999998
0.019335937499999997
0.36577148437499996
0.6131103515624999
0.7758544921874999
0.8548095703124999
1.213330078125
1.3946044921874998
1.5170654296875
1.5476806640624998
1.533984375
1.5509033203125
1.5001464843749999
0.023364257812499997
0.022558593749999998
1.4622802734375
1.2673095703125
1.100537109375
1.6935058593749999
2.344482421875
3.0268798828124996
3.0220458984375
2.5177001953125
2.051220703125
1.896533203125
1.7370117187499998
1.8989501953124999
1.8699462890624998
1.8312744140625
1.7499023437499999
1.662890625
1.6943115234375
1.6379150390625
1.61455078125
1.6137451171875
3.02607421875
2.6176025390624997
2.17529296875
2.386376953125
1.9553466796874999
0.6678955078125
0.023364257812499997
0.020947265625
0.022558593749999998
0.3520751953125
0.55751953125
0.8064697265624999
0.94423828125
1.2374999999999998
1.351904296875
1.5670166015625
1.5267333984375
1.4284423828125
1.5162597656249999
1.554931640625
1.4574462890625
0.024169921875
1.3229003906249999
1.2858398437499998
1.029638671875
1.2310546875
2.2405517578125
3.0244628906249997
3.0244628906249997
2.4613037109375
2.222021484375
2.0359130859375
1.85302734375
1.9190917968749999
1.9053955078125
1.8626953124999999
1.667724609375
1.6927001953124998
1.6669189453125
1.5718505859374998
1.5678222656249998
1.5573486328125
3.0228515624999996
2.7771240234374996
2.2872802734374997
2.4846679687499997
2.1301757812499997
1.2737548828124998
0.026586914062499998
0.022558593749999998
0.0217529296875
0.19497070312499998
0.46728515625
0.7774658203125
0.694482421875
1.2238037109375
1.3148437499999999
1.3639892578125
1.4800048828124999
1.5218994140625
1.4872558593749998
1.538818359375
1.5235107421874998
0.023364257812499997
0.0217529296875
1.493701171875
1.15693359375
1.3390136718749999
2.0818359374999997
3.0244628906249997
3.0252685546875
2.99384765625
2.3452880859375
1.9795166015624999
1.8119384765625
1.8755859375
1.8755859375
1.9472900390624999
1.7635986328125
1.674169921875
1.66611328125
1.674169921875
1.638720703125
1.5194824218749998
3.0268798828124996
3.0244628906249997
2.1277587890625
2.34931640625
2.1309814453125
1.21494140625
0.022558593749999998
0.023364257812499997
0.0217529296875
0.1893310546875
0.485009765625
0.6711181640624999
0.7371826171875
1.1802978515625
1.239111328125
1.38896484375
1.5597656249999998
1.5517089843749998
1.5460693359375
1.5186767578125
1.4759765624999999
0.023364257812499997
0.0281982421875
1.538818359375
1.1206787109375
1.26005859375
2.1068115234375
2.995458984375
3.029296875
3.027685546875
2.392822265625
2.0536376953124997
1.87236328125
1.8860595703124998
1.7281494140625
1.9029785156249999
1.7466796875
1.6636962890625
1.6701416015625
1.6306640625
1.6072998046875
1.56943359375
1.899755859375
3.0284912109374997
2.19140625
2.2856689453125
2.1132568359375
1.1980224609374999
0.46245117187499996
0.023364257812499997
0.026586914062499998
0.023364257812499997
0.3520751953125
0.630029296875
0.7283203125
0.9861328125
1.2125244140625
1.4074951171874999
1.542041015625
1.5323730468749999
1.51787109375
1.5001464843749999
1.4783935546875
1.087646484375
0.0217529296875
1.5235107421874998
1.3156494140625
1.2463623046874999
1.851416015625
2.5370361328124997
3.02607421875
3.02607421875
2.4870849609374996
2.1301757812499997
1.8312744140625
1.7958251953125
1.85947265625
1.89169921875
1.848193359375
1.7337890624999999
1.7337890624999999
1.6653076171874999
1.6910888671875
1.56943359375
1.6346923828125
3.0244628906249997
2.470166015625
2.1720703125
2.3235351562499997
1.7990478515625
0.95390625
0.022558593749999998
0.020947265625
0.023364257812499997
0.34482421874999997
0.5679931640625
0.7541015624999999
0.7839111328124999
1.2350830078125
1.32451171875
1.4381103515625
1.5162597656249999
1.5218994140625
1.496923828125
1.60166015625
1.5194824218749998
0.0217529296875
0.02578125
1.20849609375
1.119873046875
1.3712402343749999
1.9327880859375
3.0301025390625
3.0252685546875
2.8810546875
2.1487060546875
1.9021728515624998
1.7378173828124999
2.0536376953124997
1.9134521484375
1.9053955078125
1.8062988281249999
1.590380859375
1.63388671875
1.6612792968749999
1.6056884765625
1.6169677734374999
3.027685546875
2.6321044921874996
2.215576171875
2.454052734375
2.14306640625
1.100537109375
0.022558593749999998
0.024169921875
0.019335937499999997
0.2811767578125
0.4036376953125
0.7049560546875
0.6533935546874999
1.1593505859375
1.3543212890624998
1.48564453125
1.5138427734375
1.4977294921875
1.5605712890624999
1.6306640625
1.5162597656249999
0.023364257812499997
0.0217529296875
1.4373046875
1.1674072265625
1.3059814453124998
2.0737792968749997
3.0188232421874996
3.0244628906249997
2.9156982421874997
2.2405517578125
1.9754882812499999
1.8071044921875
1.8240234375
1.9424560546874998
1.9529296875
1.80791015625
1.7128417968749998
1.714453125
1.6830322265625
1.5412353515625
1.53720703125
3.0284912109374997
3.0220458984375
2.018994140625
2.4403564453124997
2.1591796875
1.1158447265625
0.08217773437499999
0.022558593749999998
0.027392578124999997
0.0169189453125
0.310986328125
0.7291259765625
0.6227783203124999
0.8870361328124999
1.332568359375
1.4332763671875
1.690283203125
1.525927734375
1.4711425781249998
1.542041015625
1.4622802734375
0.022558593749999998
0.022558593749999998
0.9603515625
1.019970703125
1.2109130859375
2.1462890624999997
2.8866943359375
3.0244628906249997
3.0244628906249997
2.5821533203125
2.0987548828125
1.8425537109374999
1.7934082031249998
1.8441650390625
1.9110351562499999
2.086669921875
1.8715576171875
1.6878662109375
1.6693359374999999
1.5839355468749998
1.59521484375
3.0220458984375
3.027685546875
2.5209228515624997
2.487890625
2.39765625
1.609716796875
0.0926513671875
0.020947265625
0.022558593749999998
0.023364257812499997
0.38107910156249997
0.555908203125
0.646142578125
0.8080810546874999
1.1287353515625
1.271337890625
1.58232421875
1.6669189453125
1.6250244140624999
1.6330810546874999
1.7595703125
0.023364257812499997
0.024169921875
0.023364257812499997
0.5091796875
0.8451416015625
1.593603515625
3.0228515624999996
3.0252685546875
3.0268798828124996
2.576513671875
2.44599609375
2.1132568359375
2.04638671875
2.0939208984374997
2.0625
1.92392578125
1.7531249999999998
1.7724609375
1.7507080078125
1.7362060546875
1.6209960937499999
1.6943115234375
3.0268798828124996
3.029296875
2.6280761718749996
2.640966796875
1.8602783203125
0.549462890625
0.020947265625
0.023364257812499997
0.023364257812499997
0.1893310546875
0.240087890625
0.443115234375
0.45439453124999996
0.894287109375
1.1883544921875
1.4791992187499998
1.5927978515624999
1.482421875
1.5686279296874999
1.6636962890625
1.4526123046875
0.0217529296875
0.023364257812499997
0.517236328125
0.5260986328125
1.3237060546875
2.19140625
3.0252685546875
3.0236572265625
3.0244628906249997
2.6860839843749997
2.3614013671875
2.209130859375
2.34609375
2.27197265625
2.1865722656249997
2.0230224609375
1.7877685546875
1.7579589843749999
1.7047851562499998
1.6620849609375
1.6218017578125
3.0204345703124997
3.027685546875
2.5168945312499997
2.8230468749999997
2.4161865234374997
1.4638916015624999
0.0217529296875
0.0217529296875
0.0249755859375
0.0249755859375
0.0797607421875
0.3601318359375
0.2376708984375
0.7404052734375
1.013525390625
1.3398193359375
1.46630859375
1.6218017578125
1.5831298828125
1.641943359375
1.4840332031249999
0.018530273437499998
0.026586914062499998
0.022558593749999998
0.30615234375
0.734765625
1.8892822265625
3.0252685546875
3.0220458984375
3.0228515624999996
3.005126953125
2.6433837890625
2.4298828125
2.4371337890625
2.4427734375
2.305810546875
2.1648193359375
1.9553466796874999
1.928759765625
1.7958251953125
1.7410400390624998
1.6540283203125
3.02607421875
3.0252685546875
2.8947509765625
3.0268798828124996
2.98095703125
1.7797119140625
0.022558593749999998
0.024169921875
0.02578125
0.022558593749999998
0.018530273437499998
0.1297119140625
0.022558593749999998
0.41411132812499996
0.62841796875
1.0030517578125
1.2463623046874999
1.300341796875
1.3664062499999998
1.4501953125
1.4147460937499998
0.022558593749999998
0.022558593749999998
0.024169921875
0.022558593749999998
0.0990966796875
1.8868652343749999
3.0268798828124996
3.02607421875
3.027685546875
3.0244628906249997
3.0268798828124996
2.8254638671874996
2.8383544921875
2.7811523437499996
2.7908203124999997
2.4556640625
2.2260498046875
2.128564453125
1.972265625
1.84013671875
1.7297607421874999
1.6427490234375
3.02607421875
3.01962890625
3.02607421875
3.0236572265625
1.9634033203124999
0.7234863281249999
0.027392578124999997
0.023364257812499997
0.023364257812499997
0.024169921875
0.0281982421875
0.0443115234375
0.1699951171875
0.47050781249999996
0.7677978515624999
1.0078857421875
1.181103515625
1.2608642578125
1.36962890625
1.429248046875
0.022558593749999998
0.024169921875
0.022558593749999998
0.022558593749999998
0.09990234375
1.2665039062499999
2.3082275390625
3.0317138671875
3.0252685546875
3.02607421875
3.0301025390625
2.908447265625
2.8166015625
2.8858886718749996
2.8029052734374997
2.578125
2.383154296875
2.176904296875
2.144677734375
1.944873046875
1.8232177734375
1.687060546875
3.0252685546875
3.01962890625
3.021240234375
3.0228515624999996
2.8359375
0.894287109375
0.022558593749999998
0.017724609375
0.023364257812499997
0.02578125
0.023364257812499997
0.023364257812499997
0.02578125
0.33676757812499997
0.53818359375
0.7702148437499999
1.0852294921874999
1.09892578125
1.2334716796875
1.319677734375
1.2584472656249999
0.022558593749999998
0.0217529296875
0.022558593749999998
0.022558593749999998
0.024169921875
1.909423828125
3.02607421875
3.021240234375
3.01962890625
3.0236572265625
3.0252685546875
3.021240234375
3.0236572265625
2.9503417968749996
2.9197265624999997
2.5837646484374996
2.431494140625
2.2953369140624997
2.2179931640625
1.9827392578124998
1.8635009765625
3.0284912109374997
3.0228515624999996
3.018017578125
3.0252685546875
3.0244628906249997
2.131787109375
0.022558593749999998
0.024169921875
0.0281982421875
0.023364257812499997
0.023364257812499997
0.01611328125
0.0217529296875
0.50595703125
0.30051269531249997
0.6010253906249999
0.7621582031249999
0.871728515625
0.9853271484374999
1.1134277343749999
1.0739501953125
0.022558593749999998
0.017724609375
0.02578125
0.022558593749999998
0.022558593749999998
0.022558593749999998
2.4564697265624997
3.01962890625
3.0252685546875
3.0244628906249997
3.0244628906249997
3.021240234375
3.0236572265625
2.850439453125
3.02607421875
2.8544677734375
2.6594970703125
2.65546875
2.5152832031249996
2.3074218749999997
2.1922119140625
3.0252685546875
3.0268798828124996
3.0252685546875
3.0252685546875
3.0236572265625
2.12373046875
0.936181640625
0.022558593749999998
0.0281982421875
0.0281982421875
0.022558593749999998
0.0201416015625
0.0169189453125
0.022558593749999998
0.0926513671875
0.28037109374999997
0.4036376953125
0.4310302734375
0.6010253906249999
0.7436279296874999
0.7782714843749999
0.022558593749999998
0.0169189453125
0.020947265625
0.022558593749999998
0.0217529296875
0.0217529296875
0.023364257812499997
3.0228515624999996
3.0301025390625
3.029296875
3.0220458984375
3.0268798828124996
3.0268798828124996
3.0204345703124997
3.0228515624999996
3.0244628906249997
3.02607421875
3.0252685546875
3.0252685546875
3.01962890625
2.882666015625
3.0236572265625
3.0268798828124996
3.0236572265625
3.027685546875
3.0252685546875
3.0228515624999996
3.0244628906249997
0.023364257812499997
0.0201416015625
0.023364257812499997
0.024169921875
0.018530273437499998
0.020947265625
0.0249755859375
0.022558593749999998
0.0249755859375
0.0217529296875
0.0217529296875
0.023364257812499997
0.020947265625
0.027392578124999997
0.023364257812499997
0.026586914062499998
0.0201416015625
0.023364257812499997
0.027392578124999997
0.0217529296875
0.022558593749999998
0.0217529296875
0.023364257812499997
1.3946044921874998
2.7320068359375
3.021240234375
3.027685546875
3.021240234375
3.02607421875
3.0252685546875
3.01962890625
3.0252685546875
3.029296875
3.0252685546875
3.02607421875
3.0220458984375
3.0204345703124997
3.0204345703124997
3.0228515624999996
3.0252685546875
3.0228515624999996
3.0236572265625
0.0217529296875
0.0249755859375
0.017724609375
0.022558593749999998
0.018530273437499998
0.018530273437499998
0.024169921875
0.020947265625
0.0249755859375
0.023364257812499997
0.022558593749999998
0.0217529296875
0.020947265625
0.0217529296875
0.0201416015625
0.022558593749999998
0.023364257812499997
0.018530273437499998
0.022558593749999998
0.023364257812499997
0.024169921875
0.024169921875
0.0281982421875
0.023364257812499997
0.02578125
0.019335937499999997
0.020947265625
0.023364257812499997
0.26425781249999997
1.0223876953125
1.5412353515625
2.044775390625
2.4596923828125
2.8311035156249997
3.0252685546875
3.0284912109374997
3.0268798828124996
3.0268798828124996
3.0244628906249997
3.018017578125
3.0244628906249997
3.0236572265625
3.02607421875
0.027392578124999997
0.020947265625
0.024169921875
0.022558593749999998
0.022558593749999998
0.022558593749999998
0.023364257812499997
0.024169921875
0.023364257812499997
0.022558593749999998
0.022558593749999998
0.027392578124999997
0.022558593749999998
0.030615234374999998
0.0217529296875
0.023364257812499997
0.0217529296875
0.019335937499999997
0.018530273437499998
0.017724609375
0.022558593749999998
0.018530273437499998
0.022558593749999998
0.022558593749999998
0.019335937499999997
0.0217529296875
0.0217529296875
0.023364257812499997
0.022558593749999998
0.7822998046874999
1.44052734375
1.9956298828124999
2.4484130859374997
2.8778320312499996
3.0309082031249996
3.0228515624999996
3.02607421875
3.0252685546875
3.027685546875
3.0228515624999996
3.0236572265625
3.029296875
0.52529296875
0.024169921875
0.019335937499999997
0.023364257812499997
0.018530273437499998
0.022558593749999998
0.0249755859375
0.023364257812499997
0.0217529296875
0.023364257812499997
0.026586914062499998
0.022558593749999998
0.023364257812499997
0.022558593749999998
0.018530273437499998
0.026586914062499998
0.023364257812499997
0.022558593749999998
0.0281982421875
0.0249755859375
0.019335937499999997
0.027392578124999997
0.023364257812499997
0.023364257812499997
0.02900390625
0.022558593749999998
0.0217529296875
0.0201416015625
0.022558593749999998
0.2578125
1.1295410156249999
1.690283203125
2.2276611328125
2.7062255859374997
3.027685546875
3.02607421875
3.0252685546875
3.029296875
3.0236572265625
3.027685546875
3.0268798828124996
3.0252685546875
3.0220458984375
3.0309082031249996
0.022558593749999998
0.024169921875
0.022558593749999998
0.023364257812499997
0.023364257812499997
0.022558593749999998
0.022558593749999998
0.0217529296875
0.022558593749999998
0.022558593749999998
0.019335937499999997
0.0201416015625
0.022558593749999998
0.0217529296875
0.023364257812499997
0.022558593749999998
0.022558593749999998
0.024169921875
0.033032226562499996
0.10231933593749999
0.17482910156249998
0.2537841796875
0.3150146484375
0.3665771484375
0.43828124999999996
0.491455078125
0.543017578125
0.5824951171875
1.3148437499999999
1.699951171875
2.28486328125
2.8617187499999996
3.0220458984375
3.0252685546875
3.0252685546875
3.0244628906249997
3.0284912109374997
3.021240234375
3.0220458984375
3.0236572265625
3.0244628906249997
3.0236572265625
3.02607421875
1.61455078125
0.5696044921875
0.01611328125
0.023364257812499997
0.022558593749999998
0.0249755859375
0.0217529296875
0.024169921875
0.019335937499999997
0.022558593749999998
0.022558593749999998
0.0217529296875
0.015307617187499999
0.019335937499999997
0.027392578124999997
0.023364257812499997
0.0217529296875
0.0394775390625
0.1200439453125
0.214306640625
0.28681640625
0.35288085937499997
0.407666015625
0.48581542968749997
0.53818359375
0.5865234375
0.75732421875
1.4687255859375
1.980322265625
2.376708984375
2.9479248046874997
3.0244628906249997
3.0228515624999996
3.0236572265625
3.027685546875
3.0220458984375
3.02607421875
3.0220458984375
3.0284912109374997
3.0244628906249997
3.0236572265625
3.027685546875
1.8618896484374998
0.41411132812499996
0.022558593749999998
0.023364257812499997
0.0217529296875
0.023364257812499997
0.027392578124999997
0.023364257812499997
0.023364257812499997
0.022558593749999998
0.02578125
0.0217529296875
0.023364257812499997
0.018530273437499998
0.023364257812499997
0.023364257812499997
0.026586914062499998
0.0281982421875
0.0966796875
0.1998046875
0.270703125
0.33193359375
0.33837890625
0.475341796875
0.52529296875
0.5865234375
0.6421142578125
1.490478515625
1.9440673828125
2.454052734375
2.8955566406249997
3.0268798828124996
3.0252685546875
3.0244628906249997
3.0220458984375
3.0236572265625
3.0220458984375
3.0244628906249997
3.0228515624999996
3.01962890625
3.0244628906249997
3.0252685546875
2.415380859375
0.4568115234375
0.0249755859375
0.023364257812499997
0.02578125
0.0281982421875
0.024169921875
0.0217529296875
0.0281982421875
0.024169921875
0.017724609375
0.024169921875
0.022558593749999998
0.024169921875
0.018530273437499998
0.017724609375
0.027392578124999997
0.0322265625
0.10231933593749999
0.20625
0.2747314453125
0.34160156249999996
0.42136230468749997
0.48259277343749996
0.5357666015625
0.6018310546875
0.6550048828124999
1.1786865234375
1.699951171875
2.212353515625
2.6578857421874997
3.0236572265625
3.0236572265625
3.02607421875
3.027685546875
3.0252685546875
3.0284912109374997
3.0236572265625
3.029296875
3.02607421875
3.0244628906249997
3.0252685546875
3.018017578125
0.5196533203125
0.0217529296875
0.022558593749999998
0.023364257812499997
0.026586914062499998
0.02578125
0.0217529296875
0.020947265625
0.022558593749999998
0.023364257812499997
0.023364257812499997
0.023364257812499997
0.019335937499999997
0.022558593749999998
0.018530273437499998
0.024169921875
0.0652587890625
0.1716064453125
0.2376708984375
0.31259765624999997
0.3746337890625
0.452783203125
0.514013671875
0.5647705078124999
0.62841796875
0.6807861328125
0.7178466796874999
1.4308593749999998
1.8328857421875
2.334814453125
2.721533203125
2.9914306640625
3.0252685546875
3.0301025390625
3.0244628906249997
3.018017578125
3.0252685546875
3.0268798828124996
3.0252685546875
3.0252685546875
3.0268798828124996
3.0228515624999996
0.7984130859374999
0.0201416015625
0.022558593749999998
0.0217529296875
0.019335937499999997
0.022558593749999998
0.0217529296875
0.026586914062499998
0.023364257812499997
0.022558593749999998
0.022558593749999998
0.024169921875
0.022558593749999998
0.027392578124999997
0.030615234374999998
0.07009277343749999
0.169189453125
0.2457275390625
0.314208984375
0.38188476562499996
0.45842285156249996
0.517236328125
0.5696044921875
0.6372802734374999
0.6815917968749999
0.72509765625
0.7669921875
0.82177734375
1.2689208984375
1.7176757812499999
2.29453125
2.4806396484374997
2.7811523437499996
3.0172119140625
3.0228515624999996
3.0309082031249996
3.027685546875
3.02607421875
3.0236572265625
3.027685546875
3.0228515624999996
3.0220458984375
1.426025390625
0.06767578125
0.0249755859375
0.018530273437499998
0.024169921875
0.022558593749999998
0.027392578124999997
0.0249755859375
0.01611328125
0.023364257812499997
0.0169189453125
0.018530273437499998
0.023364257812499997
0.041088867187499996
0.1152099609375
0.19094238281249998
0.285205078125
0.3520751953125
0.4189453125
0.49387207031249997
0.549462890625
0.604248046875
0.6533935546874999
0.71220703125
0.7581298828124999
0.7935791015625
1.7450683593749998
2.160791015625
2.52978515625
2.9205322265625
3.0252685546875
3.0244628906249997
3.02607421875
3.02607421875
3.0244628906249997
3.029296875
3.027685546875
3.0284912109374997
3.0228515624999996
3.0244628906249997
3.0252685546875
3.0236572265625
2.7078369140625
0.19497070312499998
0.02578125
0.024169921875
0.022558593749999998
0.020947265625
0.022558593749999998
0.017724609375
0.022558593749999998
0.018530273437499998
0.0217529296875
0.022558593749999998
0.017724609375
0.022558593749999998
0.022558593749999998
0.023364257812499997
0.024169921875
0.0990966796875
0.1740234375
0.26748046875
0.3359619140625
0.3988037109375
0.4793701171875
0.5349609375
0.5889404296874999
1.2262207031249999
1.638720703125
2.3614013671875
2.6868896484375
2.9559814453124997
3.0244628906249997
3.0252685546875
3.029296875
3.02607421875
3.0244628906249997
3.0220458984375
3.029296875
3.0252685546875
3.0244628906249997
3.0244628906249997
3.029296875
3.027685546875
3.0244628906249997
0.4229736328125
0.024169921875
0.019335937499999997
0.023364257812499997
0.026586914062499998
0.027392578124999997
0.022558593749999998
0.018530273437499998
0.0249755859375
0.023364257812499997
0.026586914062499998
0.024169921875
0.020947265625
0.0217529296875
0.02578125
0.0201416015625
0.023364257812499997
0.024169921875
0.08942871093749999
0.1651611328125
0.26022949218749997
0.32548828124999996
0.38671875
0.44956054687499997
0.8999267578125
1.8336914062499998
2.1680419921875
2.85849609375
3.0236572265625
3.0252685546875
3.027685546875
3.0268798828124996
3.01962890625
3.02607421875
3.0252685546875
3.0268798828124996
3.0244628906249997
3.0252685546875
3.0244628906249997
3.0252685546875
3.0244628906249997
3.0268798828124996
1.24072265625
0.023364257812499997
0.022558593749999998
0.022558593749999998
0.023364257812499997
0.026586914062499998
0.023364257812499997
0.023364257812499997
0.024169921875
0.02578125
0.0201416015625
0.024169921875
0.023364257812499997
0.024169921875
0.022558593749999998
0.027392578124999997
0.026586914062499998
0.023364257812499997
0.024169921875
0.018530273437499998
0.11037597656249999
0.18369140625
0.2537841796875
0.2618408203125
0.7806884765625
1.8071044921875
2.4363281249999997
2.9414794921875
3.0309082031249996
3.0228515624999996
3.0309082031249996
3.029296875
3.02607421875
3.02607421875
3.0252685546875
3.02607421875
3.0244628906249997
3.0244628906249997
3.0228515624999996
3.0284912109374997
3.0228515624999996
3.0252685546875
1.915869140625
0.348046875
0.0217529296875
0.022558593749999998
0.023364257812499997
0.0217529296875
0.020947265625
0.023364257812499997
0.022558593749999998
0.017724609375
0.022558593749999998
0.022558593749999998
0.0201416015625
0.023364257812499997
0.023364257812499997
0.019335937499999997
0.022558593749999998
0.0217529296875
0.02578125
0.0249755859375
0.0249755859375
0.042700195312499994
0.124072265625
0.217529296875
0.28842773437499997
1.18916015625
1.7926025390625
2.5636230468749996
2.8697753906249996
3.027685546875
3.0268798828124996
3.0252685546875
3.02607421875
3.0244628906249997
3.0244628906249997
3.0252685546875
3.0228515624999996
3.021240234375
3.02607421875
3.027685546875
3.0220458984375
3.0244628906249997
3.02607421875
0.8677001953125
0.015307617187499999
0.019335937499999997
0.020947265625
0.023364257812499997
0.0281982421875
0.02578125
0.024169921875
0.022558593749999998
0.022558593749999998
0.022558593749999998
0.022558593749999998
0.0217529296875
0.017724609375
0.022558593749999998
0.023364257812499997
0.023364257812499997
0.024169921875
0.022558593749999998
0.023364257812499997
0.022558593749999998
0.0555908203125
0.15871582031249998
0.230419921875
0.8362792968749999
1.7660156249999999
2.3984619140625
2.760205078125
2.9519531249999997
3.02607421875
3.0252685546875
3.0244628906249997
3.0301025390625
3.02607421875
3.0252685546875
3.0268798828124996
3.0268798828124996
3.0228515624999996
3.0268798828124996
3.02607421875
3.02607421875
3.0236572265625
0.8572265625
0.017724609375
0.022558593749999998
0.024169921875
0.0281982421875
0.02578125
0.02578125
0.023364257812499997
0.023364257812499997
0.022558593749999998
0.027392578124999997
0.027392578124999997
0.026586914062499998
0.023364257812499997
0.027392578124999997
0.023364257812499997
0.022558593749999998
0.0217529296875
0.024169921875
0.026586914062499998
0.023364257812499997
0.0314208984375
0.1248779296875
0.19255371093749998
0.359326171875
1.6024658203125
2.2510253906249997
2.602294921875
2.9181152343749996
3.02607421875
3.029296875
3.0252685546875
3.0220458984375
3.0204345703124997
3.02607421875
3.0252685546875
3.02607421875
3.0204345703124997
3.0252685546875
3.0244628906249997
3.02607421875
3.0244628906249997
1.546875
0.19255371093749998
0.019335937499999997
0.019335937499999997
0.024169921875
0.022558593749999998
0.022558593749999998
0.023364257812499997
0.022558593749999998
0.022558593749999998
0.022558593749999998
0.024169921875
0.018530273437499998
0.020947265625
0.022558593749999998
0.018530273437499998
0.022558593749999998
0.0056396484374999995
0.0249755859375
0.026586914062499998
0.023364257812499997
0.03544921875
0.1071533203125
0.1861083984375
0.28359375
1.506591796875
2.0415527343749997
2.6208251953125
2.9455078125
3.0244628906249997
3.0228515624999996
3.0220458984375
3.02607421875
3.0268798828124996
3.0268798828124996
3.0252685546875
3.021240234375
3.0236572265625
3.0204345703124997
3.021240234375
3.02607421875
3.027685546875
3.0252685546875
0.5260986328125
0.022558593749999998
0.022558593749999998
0.022558593749999998
0.022558593749999998
0.0378662109375
0.023364257812499997
0.022558593749999998
0.020947265625
0.0249755859375
0.0249755859375
0.030615234374999998
0.024169921875
0.024169921875
0.0201416015625
0.023364257812499997
0.0281982421875
0.023364257812499997
0.022558593749999998
0.023364257812499997
0.02578125
0.050756835937499994
0.127294921875
0.2255859375
0.9837158203124999
1.8409423828125
2.20751953125
2.8866943359375
3.0268798828124996
3.02607421875
3.0252685546875
3.0268798828124996
3.0252685546875
3.027685546875
3.0236572265625
3.02607421875
3.01962890625
3.029296875
3.0268798828124996
3.0252685546875
3.0244628906249997
3.0252685546875
1.2850341796875
0.023364257812499997
0.023364257812499997
0.018530273437499998
0.020947265625
0.022558593749999998
0.023364257812499997
0.0217529296875
0.0249755859375
0.0169189453125
0.023364257812499997
0.02578125
0.023364257812499997
0.019335937499999997
0.022558593749999998
0.027392578124999997
0.0217529296875
0.022558593749999998
0.0217529296875
0.022558593749999998
0.023364257812499997
0.0249755859375
0.08217773437499999
0.1780517578125
0.6123046875
1.542041015625
1.9916015624999999
2.6603027343749996
2.8874999999999997
2.9922363281249997
3.0244628906249997
3.0244628906249997
3.027685546875
3.0236572265625
3.0252685546875
3.0236572265625
3.021240234375
3.0244628906249997
3.0244628906249997
3.0220458984375
3.029296875
3.02607421875
1.7958251953125
0.0281982421875
0.0201416015625
0.023364257812499997
0.026586914062499998
0.0217529296875
0.023364257812499997
0.023364257812499997
0.022558593749999998
0.024169921875
0.023364257812499997
0.0217529296875
0.0249755859375
0.0217529296875
0.0201416015625
0.0217529296875
0.024169921875
0.024169921875
0.0217529296875
0.024169921875
0.020947265625
0.023364257812499997
0.08137207031249999
0.18369140625
0.2537841796875
1.1657958984374999
1.9013671875
2.5773193359374997
2.850439453125
3.0236572265625
3.027685546875
3.02607421875
3.0244628906249997
3.0268798828124996
3.0268798828124996
3.0268798828124996
3.0228515624999996
3.0236572265625
3.02607421875
3.0268798828124996
3.01962890625
3.01962890625
3.02607421875
0.3504638671875
0.019335937499999997
0.022558593749999998
0.023364257812499997
0.0217529296875
0.023364257812499997
0.019335937499999997
0.024169921875
0.024169921875
0.023364257812499997
0.0249755859375
0.0217529296875
0.023364257812499997
0.026586914062499998
0.026586914062499998
0.018530273437499998
0.022558593749999998
0.023364257812499997
0.0201416015625
0.024169921875
0.024169921875
0.0652587890625
0.1393798828125
0.2102783203125
1.0385009765625
2.0713623046875
2.79404296875
3.02607421875
3.0252685546875
3.02607421875
3.0204345703124997
3.0244628906249997
3.0252685546875
3.0244628906249997
3.0252685546875
3.02607421875
3.0244628906249997
3.0244628906249997
3.0244628906249997
3.02607421875
3.029296875
3.0244628906249997
3.02607421875
3.02607421875
3.0244628906249997
3.0252685546875
3.0252685546875
3.0188232421874996
3.0244628906249997
3.021240234375
3.0204345703124997
3.0268798828124996
3.02607421875
3.0244628906249997
3.02607421875
0.023364257812499997
3.0252685546875
3.0284912109374997
3.0301025390625
3.0244628906249997
3.0244628906249997
3.0252685546875
3.0228515624999996
3.029296875
3.02607421875
3.027685546875
3.02607421875
3.0244628906249997
3.021240234375
3.02607421875
3.0220458984375
3.0268798828124996
3.0252685546875
3.0252685546875
3.0252685546875
3.02607421875
3.02607421875
3.0252685546875
3.029296875
3.02607421875
3.0236572265625
3.029296875
0.9724365234375
0.391552734375
0.022558593749999998
0.420556640625
1.5138427734375
2.392822265625
2.6304931640625
3.0268798828124996
3.0284912109374997
3.021240234375
3.02607421875
3.0244628906249997
3.0244628906249997
3.02607421875
3.02607421875
0.023364257812499997
0.0217529296875
0.024169921875
0.19013671875
1.0900634765625
2.7972656249999996
3.027685546875
3.027685546875
3.029296875
3.0236572265625
3.0252685546875
3.029296875
3.0236572265625
3.0268798828124996
3.0220458984375
2.9277832031249997
2.6047119140625
2.39765625
2.238134765625
1.9521240234375
1.740234375
3.021240234375
3.0284912109374997
3.0252685546875
3.0244628906249997
3.021240234375
1.5380126953125
0.024169921875
0.027392578124999997
0.02578125
0.023364257812499997
0.024169921875
0.022558593749999998
0.023364257812499997
0.02578125
0.038671874999999994
0.043505859375
0.14824218749999998
0.06606445312499999
0.0797607421875
0.20866699218749998
0.17885742187499998
0.022558593749999998
0.022558593749999998
0.017724609375
0.022558593749999998
0.14501953125
1.5460693359375
2.5402587890625
3.0244628906249997
3.0325195312499997
3.0244628906249997
2.486279296875
1.980322265625
1.674169921875
1.577490234375
1.5589599609375
1.27294921875
1.174658203125
1.1545166015625
1.0973144531249999
1.042529296875
1.0143310546875
0.9756591796874999
3.0244628906249997
3.02607421875
2.642578125
2.6240478515624996
1.4501953125
0.1168212890625
0.022558593749999998
0.023364257812499997
0.024169921875
0.022558593749999998
0.022558593749999998
0.022558593749999998
0.056396484375
0.32468261718749997
0.5615478515625
0.717041015625
0.8266113281249999
0.8443359374999999
0.9176513671875
0.9394042968749999
0.8693115234375
0.0201416015625
0.022558593749999998
0.23525390624999998
0.3988037109375
1.3720458984375
2.2623046875
3.027685546875
3.0244628906249997
3.0244628906249997
2.4693603515625
1.909423828125
1.6701416015625
1.7619873046874999
1.6669189453125
1.5589599609375
1.4550292968749998
1.4107177734374998
1.4066894531249998
1.3148437499999999
1.2979248046874998
1.2890625
3.0284912109374997
3.0252685546875
2.321923828125
2.6280761718749996
2.075390625
1.0159423828125
0.022558593749999998
0.022558593749999998
0.020947265625
0.136962890625
0.26103515625
0.391552734375
0.24331054687499998
0.7299316406249999
0.9466552734375
1.1375976562499999
1.2858398437499998
1.3019531249999998
1.3446533203125
1.38896484375
1.2777832031249998
0.018530273437499998
0.020947265625
0.6856201171874999
0.7774658203125
1.27939453125
2.1777099609375
3.02607421875
3.02607421875
3.021240234375
2.260693359375
2.0036865234375
1.7853515624999998
1.8739746093749998
1.7982421874999999
1.8006591796875
1.6379150390625
1.5734619140625
1.5799072265624998
1.533984375
1.4703369140625
1.4510009765624998
3.0244628906249997
3.0268798828124996
2.2268554687499997
2.3074218749999997
1.9456787109375
1.0014404296875
0.022558593749999998
0.019335937499999997
0.019335937499999997
0.141796875
0.3520751953125
0.604248046875
0.5357666015625
1.229443359375
1.2447509765625
1.4598632812499999
1.58232421875
1.53076171875
1.5509033203125
1.5364013671874999
1.4558349609374999
0.0169189453125
0.017724609375
1.1529052734375
1.07958984375
1.4630859374999998
2.3968505859375
3.0268798828124996
3.01962890625
3.0228515624999996
2.14951171875
1.7942138671874999
1.5114257812499998
1.6540283203125
1.474365234375
1.7466796875
1.67900390625
1.60166015625
1.6483886718749998
1.6000488281249998
1.5444580078124999
1.5114257812499998
3.0220458984375
3.0252685546875
1.9529296875
1.977099609375
1.8111328125
0.7822998046874999
0.022558593749999998
0.022558593749999998
0.0201416015625
0.053173828124999996
0.5760498046875
0.98291015625
1.0272216796875
1.3422363281249998
1.59521484375
1.751513671875
1.7982421874999999
1.7176757812499999
1.690283203125
1.6556396484375
1.5879638671874998
0.02578125
0.024169921875
1.7104248046875
1.699951171875
1.9352050781249999
2.65546875
3.0252685546875
3.02607421875
3.0244628906249997
1.9569580078125
1.316455078125
1.1150390625
1.2463623046874999
1.3124267578125
1.61455078125
1.5637939453124998
1.52109375
1.5541259765625
1.5041748046874999
1.5235107421874998
1.4751708984374998
1.6105224609375
3.02607421875
1.606494140625
1.4800048828124999
1.6830322265625
1.0385009765625
0.024169921875
0.023364257812499997
0.0217529296875
0.2360595703125
0.6888427734375
1.023193359375
1.297119140625
1.41796875
1.5927978515624999
1.65
1.6959228515625
1.6693359374999999
1.585546875
1.6072998046875
1.5879638671874998
1.3801025390625
0.022558593749999998
1.9698486328125
2.022216796875
1.828857421875
2.4097412109375
2.9140869140624996
3.02607421875
3.02607421875
1.9569580078125
1.4477783203124999
1.222998046875
1.332568359375
1.5396240234374998
1.5726562499999999
1.6218017578125
1.5492919921875
1.56298828125
1.5927978515624999
1.5267333984375
1.5299560546875
1.4920898437499999
3.021240234375
2.002880859375
1.6806152343749998
1.6959228515625
1.2157470703125
0.6034423828125
0.0249755859375
0.023364257812499997
0.0217529296875
0.6010253906249999
0.942626953125
1.27294921875
1.2173583984375
1.5791015625
1.5968261718749999
1.6854492187499999
1.6443603515624998
1.6072998046875
1.6105224609375
1.59521484375
1.5243164062499999
0.024169921875
0.734765625
2.075390625
1.8151611328125
1.9940185546875
2.415380859375
3.0301025390625
3.0309082031249996
2.3307861328125
1.6524169921874998
1.27294921875
1.2753662109375
1.5380126953125
1.587158203125
1.6588623046875
1.6040771484374998
1.5444580078124999
1.5766845703124999
1.5436523437499998
1.4606689453125
1.4759765624999999
3.0301025390625
3.0236572265625
1.62744140625
1.658056640625
1.4373046875
0.6066650390625
0.022558593749999998
0.022558593749999998
0.023364257812499997
0.5744384765625
0.9555175781249999
1.264892578125
1.1931884765625
1.714453125
1.6854492187499999
1.7337890624999999
1.7152587890625
1.6733642578124999
1.6363037109374998
1.6137451171875
1.5492919921875
0.023364257812499997
0.027392578124999997
2.1970458984375
1.9110351562499999
2.11728515625
2.7328124999999996
3.018017578125
3.0252685546875
3.0156005859375
1.56298828125
1.2777832031249998
1.181103515625
1.4630859374999998
1.42119140625
1.5927978515624999
1.5992431640625
1.5251220703125
1.58232421875
1.5009521484375
1.5082031249999999
1.493701171875
3.0204345703124997
3.0236572265625
1.4953124999999998
1.6330810546874999
1.525927734375
0.6098876953125
0.023364257812499997
0.022558593749999998
0.023364257812499997
0.4004150390625
0.8773681640625
1.1722412109375
1.2125244140625
1.5509033203125
1.6604736328124998
1.7176757812499999
1.735400390625
1.6814208984374999
1.641943359375
1.6234130859375
1.593603515625
0.022558593749999998
0.023364257812499997
2.0375244140624997
1.964208984375
2.002880859375
2.6111572265625
3.0204345703124997
3.0236572265625
2.99384765625
1.8054931640624998
1.3897705078125
1.248779296875
1.3768798828125
1.5033691406249998
1.6749755859375
1.6137451171875
1.5557373046874998
1.5637939453124998
1.5637939453124998
1.538818359375
1.4912841796874998
2.6619140624999997
3.021240234375
1.7740722656249999
1.609716796875
1.6290527343749999
0.9958007812499999
0.36979980468749996
0.023364257812499997
0.0217529296875
0.08540039062499999
0.8588378906249999
1.119873046875
1.2705322265624999
1.3011474609375
1.6105224609375
1.6773925781249999
1.7450683593749998
1.6653076171874999
1.6153564453125
1.606494140625
1.5662109375
0.0249755859375
0.019335937499999997
1.7289550781249998
1.93359375
1.7652099609374998
2.0689453125
2.8367431640625
3.02607421875
3.027685546875
2.1229248046875
1.5283447265624999
1.368017578125
1.3833251953124999
1.574267578125
1.6330810546874999
1.6878662109375
1.5887695312499999
1.542041015625
1.574267578125
1.5645996093749999
1.538818359375
1.52109375
3.0228515624999996
1.880419921875
1.6878662109375
1.8385253906249999
1.1698242187499999
0.48662109374999996
0.020947265625
0.0201416015625
0.027392578124999997
0.6670898437499999
0.9418212890625
1.2423339843749999
1.1794921875
1.4719482421874999
1.5734619140625
1.6693359374999999
1.6532226562499999
1.638720703125
1.6451660156249999
1.6306640625
1.522705078125
0.020947265625
1.4679199218749999
1.9529296875
1.6048828124999999
1.7990478515625
2.2921142578125
3.0204345703124997
3.0252685546875
2.2880859375
1.77890625
1.5202880859374999
1.4219970703125
1.6806152343749998
1.674169921875
1.6765869140624998
1.5976318359375
1.5879638671874998
1.6153564453125
1.5678222656249998
1.5525146484374999
1.5162597656249999
3.0236572265625
2.763427734375
1.72412109375
1.9078125
1.7104248046875
1.018359375
0.023364257812499997
0.02578125
0.020947265625
0.33354492187499996
0.82177734375
1.044140625
0.9571289062499999
1.3881591796875
1.5484863281249999
1.6475830078125
1.7015624999999999
1.6048828124999999
1.6081054687499998
1.5863525390625
1.4953124999999998
0.023364257812499997
0.022558593749999998
1.796630859375
1.5355957031249998
1.6169677734374999
2.3936279296875
3.01962890625
3.021240234375
2.8721923828125
2.0052978515624997
1.6185791015625
1.5090087890625
1.609716796875
1.7281494140625
1.8103271484374999
1.6951171875
1.6443603515624998
1.64677734375
1.619384765625
1.5831298828125
1.5460693359375
3.02607421875
3.0204345703124997
1.7442626953125
2.0625
1.8755859375
0.984521484375
0.024169921875
0.0169189453125
0.024169921875
0.28842773437499997
0.630029296875
0.8886474609374999
1.010302734375
1.297119140625
1.4171630859375
1.5509033203125
1.65
1.5984375
1.6218017578125
1.622607421875
1.5533203125
0.019335937499999997
0.027392578124999997
1.6604736328124998
1.5686279296874999
1.5380126953125
2.3879882812499997
2.9769287109375
3.02607421875
3.0301025390625
2.075390625
1.7772949218749998
1.590380859375
1.609716796875
1.7152587890625
1.8369140625
1.73056640625
1.667724609375
1.65
1.6234130859375
1.5412353515625
1.5235107421874998
1.52109375
3.0284912109374997
1.93681640625
1.8167724609375
1.8900878906249998
1.1142333984375
0.37785644531249996
0.023364257812499997
0.024169921875
0.0217529296875
0.51884765625
0.88623046875
1.0328613281249999
1.1255126953124999
1.3672119140624999
1.5251220703125
1.5654052734375
1.593603515625
1.5678222656249998
1.5283447265624999
1.53720703125
1.48564453125
0.022558593749999998
1.4493896484375
1.6427490234375
1.47275390625
1.9996582031249999
2.5547607421875
3.0252685546875
3.0244628906249997
2.2590820312499997
1.8578613281249998
1.577490234375
1.538818359375
1.7813232421874998
1.8224121093749999
1.8022705078124999
1.6943115234375
1.687060546875
1.6459716796875
1.5146484375
1.5082031249999999
1.5364013671874999
3.0284912109374997
2.49755859375
1.9617919921875
2.1849609375
1.7555419921875
1.0634765625
0.018530273437499998
0.020947265625
0.019335937499999997
0.53818359375
0.7581298828124999
1.007080078125
0.845947265625
1.335791015625
1.4389160156249998
1.5355957031249998
1.6129394531249999
1.5492919921875
1.6081054687499998
1.6363037109374998
1.5202880859374999
0.024169921875
0.02900390625
1.625830078125
1.4284423828125
1.56298828125
2.3436767578124997
3.0228515624999996
3.01962890625
2.779541015625
1.9231201171874999
1.6645019531249998
1.6121337890624998
1.7861572265624999
1.7974365234374998
1.7853515624999998
1.7595703125
1.6298583984375
1.6201904296874998
1.6129394531249999
1.5517089843749998
1.5573486328125
3.027685546875
2.6868896484375
2.0471923828125
2.19140625
1.843359375
1.1045654296875
0.027392578124999997
0.024169921875
0.023364257812499997
0.26425781249999997
0.5824951171875
0.8725341796874999
0.813720703125
1.3688232421875
1.3954101562499999
1.5621826171875
1.6129394531249999
1.554931640625
1.58232421875
1.5887695312499999
1.5162597656249999
0.0217529296875
0.022558593749999998
1.7208984374999998
1.3954101562499999
1.5073974609374998
2.2671386718749997
3.0405761718749997
3.02607421875
2.963232421875
2.131787109375
1.8151611328125
1.6282470703124998
1.77890625
1.6048828124999999
1.7990478515625
1.7136474609374999
1.6330810546874999
1.6822265625
1.6250244140624999
1.5637939453124998
1.5565429687499999
3.0284912109374997
3.02607421875
1.9505126953124998
2.1986572265624997
1.893310546875
1.018359375
0.29326171875
0.023364257812499997
0.023364257812499997
0.057202148437499996
0.5671875
0.8572265625
0.8999267578125
1.1279296875
1.353515625
1.5041748046874999
1.6129394531249999
1.5565429687499999
1.5782958984375
1.6008544921874999
1.5170654296875
0.0281982421875
0.023364257812499997
1.6588623046875
1.3978271484375
1.41796875
2.080224609375
3.0123779296874997
3.0244628906249997
3.02607421875
2.2647216796875
1.8739746093749998
1.6854492187499999
1.6886718749999998
1.6830322265625
1.8489990234375
1.7579589843749999
1.6798095703125
1.6927001953124998
1.6443603515624998
1.611328125
1.571044921875
1.7329833984374998
3.0244628906249997
2.022216796875
2.0020751953125
2.1221191406249997
1.09892578125
0.388330078125
0.022558593749999998
0.023364257812499997
0.023364257812499997
0.4471435546875
0.7017333984374999
1.0119140625
1.0650878906249999
1.3591552734374999
1.4598632812499999
1.5815185546875
1.577490234375
1.4872558593749998
1.587158203125
1.5533203125
1.07958984375
0.024169921875
1.493701171875
1.4364990234375
1.2777832031249998
2.070556640625
2.6280761718749996
3.021240234375
3.02607421875
2.3468994140625
1.98515625
1.751513671875
1.6749755859375
1.8554443359375
1.8618896484374998
1.819189453125
1.6927001953124998
1.6314697265625
1.6411376953124999
1.587158203125
1.5799072265624998
1.5645996093749999
3.029296875
2.3823486328125
2.12373046875
2.193017578125
1.5839355468749998
0.862060546875
0.02578125
0.0217529296875
0.022558593749999998
0.34885253906249997
0.7178466796874999
0.9305419921875
0.8967041015624999
1.3075927734375
1.46630859375
1.5637939453124998
1.5605712890624999
1.554931640625
1.5533203125
1.56943359375
1.4622802734375
0.0217529296875
0.022558593749999998
1.6008544921874999
1.3309570312499999
1.5541259765625
2.1035888671875
3.0236572265625
3.029296875
2.7521484375
2.05283203125
1.6935058593749999
1.6306640625
1.8820312499999998
1.7909912109375
1.7958251953125
1.7587646484375
1.6588623046875
1.6725585937499998
1.6201904296874998
1.5976318359375
1.554931640625
3.021240234375
3.027685546875
2.141455078125
2.1696533203125
1.90458984375
0.9788818359375
0.022558593749999998
0.0249755859375
0.026586914062499998
0.3907470703125
0.6211669921874999
0.849169921875
0.84755859375
1.3180664062499998
1.4026611328124998
1.5299560546875
1.5927978515624999
1.5517089843749998
1.5565429687499999
1.5895751953125
1.5017578125
0.0217529296875
0.023364257812499997
1.6024658203125
1.3873535156249999
1.5315673828124998
2.0842529296875
3.0268798828124996
3.0252685546875
3.02607421875
2.144677734375
1.8538330078124998
1.6773925781249999
1.8336914062499998
1.7958251953125
1.819189453125
1.719287109375
1.6475830078125
1.6508056640625
1.6411376953124999
1.5525146484374999
1.5573486328125
3.0252685546875
3.0284912109374997
1.9078125
2.1938232421875
1.8941162109374998
0.9716308593749999
0.12165527343749999
0.019335937499999997
0.024169921875
0.15227050781249998
0.49306640625
0.849169921875
0.8274169921875
1.174658203125
1.3188720703124999
1.482421875
1.5807128906249999
1.5484863281249999
1.5589599609375
1.5791015625
1.5235107421874998
0.022558593749999998
0.027392578124999997
1.606494140625
1.4598632812499999
1.4598632812499999
2.2268554687499997
2.8593017578124997
3.0236572265625
3.0228515624999996
2.2187988281249997
1.909423828125
1.662890625
1.687060546875
1.78857421875
1.8224121093749999
1.7490966796874998
1.6822265625
1.6991455078125
1.6572509765624999
1.6242187499999998
1.561376953125
3.0228515624999996
3.02607421875
2.1213134765625
2.1325927734375
2.1003662109375
1.3986328124999998
0.185302734375
0.022558593749999998
0.02900390625
0.024169921875
0.4954833984375
0.7420166015624999
0.9563232421875
0.9966064453125
1.3204833984375
1.4364990234375
1.5702392578125
1.5637939453124998
1.5637939453124998
1.56943359375
1.5565429687499999
0.022558593749999998
0.022558593749999998
0.7130126953125
1.4147460937499998
1.3140380859374998
1.7660156249999999
2.7779296875
3.02607421875
3.0220458984375
2.5177001953125
1.9625976562499998
1.7603759765625
1.6411376953124999
1.8369140625
1.84013671875
1.8224121093749999
1.66611328125
1.6451660156249999
1.6701416015625
1.6177734375
1.571044921875
1.5364013671874999
3.02607421875
2.1938232421875
2.0625
2.1680419921875
1.4042724609375
0.6405029296875
0.022558593749999998
0.022558593749999998
0.0281982421875
0.36174316406249996
0.631640625
0.913623046875
0.9385986328125
1.271337890625
1.4107177734374998
1.5662109375
1.5887695312499999
1.5573486328125
1.5645996093749999
1.561376953125
1.4783935546875
0.023364257812499997
0.32951660156249996
1.506591796875
1.3551269531249999
1.72412109375
2.2486083984375
3.02607421875
3.0252685546875
2.6039062499999996
2.0504150390625
1.8038818359375
1.6798095703125
1.8860595703124998
1.8014648437499998
1.7901855468749999
1.7120361328125
1.667724609375
1.67900390625
1.6218017578125
1.5807128906249999
1.5364013671874999
3.029296875
3.01962890625
1.9875732421874999
2.1954345703125
1.9440673828125
1.1375976562499999
0.023364257812499997
0.022558593749999998
0.018530273437499998
0.20947265625
0.591357421875
0.84111328125
0.7839111328124999
1.2858398437499998
1.4429443359374998
1.5396240234374998
1.63388671875
1.571044921875
1.6024658203125
1.593603515625
1.5267333984375
0.027392578124999997
0.023364257812499997
1.545263671875
1.3704345703124998
1.4993408203124998
2.2832519531249997
3.0268798828124996
3.0236572265625
3.0252685546875
2.075390625
1.7829345703125
1.6975341796874999
1.7619873046874999
1.7958251953125
1.78857421875
1.6967285156249998
1.6685302734374998
1.6250244140624999
1.6379150390625
1.5782958984375
1.5476806640624998
3.0220458984375
3.027685546875
1.9617919921875
2.3050048828125
1.9867675781249998
1.055419921875
0.02578125
0.022558593749999998
0.026586914062499998
0.1877197265625
0.5124023437499999
0.800830078125
0.7839111328124999
1.2157470703125
1.3599609375
1.474365234375
1.5807128906249999
1.5323730468749999
1.5557373046874998
1.5702392578125
1.522705078125
0.024169921875
0.0217529296875
1.5090087890625
1.3446533203125
1.4171630859375
2.31708984375
2.9318115234374997
3.0228515624999996
3.0220458984375
2.212353515625
1.9384277343749998
1.6967285156249998
1.7418457031249999
1.7893798828124998
1.8417480468749998
1.7329833984374998
1.6201904296874998
1.6475830078125
1.6048828124999999
1.5621826171875
1.5154541015624998
3.0236572265625
3.0236572265625
2.086669921875
1.98515625
2.05283203125
1.255224609375
0.472119140625
0.022558593749999998
0.022558593749999998
0.0217529296875
0.4519775390625
0.7968017578125
0.9313476562499999
1.0707275390625
1.3253173828125
1.5114257812499998
1.5766845703124999
1.5758789062499998
1.5597656249999998
1.577490234375
1.56943359375
0.023364257812499997
0.019335937499999997
1.3954101562499999
1.3801025390625
1.3672119140624999
1.8489990234375
2.4258544921875
3.0252685546875
3.02607421875
2.4242431640624997
1.9215087890625
1.7168701171874998
1.625830078125
1.8336914062499998
1.85947265625
1.7764892578125
1.662890625
1.6701416015625
1.6886718749999998
1.6177734375
1.5831298828125
1.561376953125
3.029296875
2.5740966796875
1.9811279296875
2.2550537109374997
1.8377197265624998
0.5373779296875
0.023364257812499997
0.02900390625
0.0249755859375
0.4278076171875
0.6493652343749999
0.9007324218749999
1.039306640625
1.3180664062499998
1.41796875
1.5428466796875
1.5525146484374999
1.538818359375
1.5509033203125
1.5750732421875
1.4896728515625
0.023364257812499997
1.271337890625
1.4550292968749998
1.27294921875
1.3825195312499998
2.2518310546875
3.0301025390625
3.0252685546875
2.5007812499999997
2.086669921875
1.815966796875
1.7088134765624998
1.828857421875
1.7716552734375
1.7732666015624998
1.6685302734374998
1.6556396484375
1.6330810546874999
1.5968261718749999
1.574267578125
1.56298828125
3.0252685546875
2.70703125
2.086669921875
2.2268554687499997
1.9142578124999998
1.18271484375
0.023364257812499997
0.022558593749999998
0.020947265625
0.2876220703125
0.5534912109375
0.9015380859375
0.7774658203125
1.3510986328124999
1.4026611328124998
1.5218994140625
1.5831298828125
1.5299560546875
1.5428466796875
1.5484863281249999
1.506591796875
0.022558593749999998
0.0217529296875
1.6081054687499998
1.2528076171875
1.4477783203124999
2.1390380859375
3.0204345703124997
3.0244628906249997
2.86494140625
2.2099365234375
1.861083984375
1.72412109375
1.8385253906249999
1.6854492187499999
1.7853515624999998
1.6830322265625
1.6379150390625
1.619384765625
1.622607421875
1.5621826171875
1.5315673828124998
3.0244628906249997
3.029296875
2.0085205078125
2.247802734375
1.9400390625
1.0731445312499999
0.022558593749999998
0.026586914062499998
0.023364257812499997
0.049145507812499996
0.5285156249999999
0.8282226562499999
0.8870361328124999
1.2656982421874998
1.3631835937499999
1.5251220703125
1.5565429687499999
1.5275390624999998
1.5315673828124998
1.554931640625
1.4993408203124998
0.0249755859375
0.02900390625
1.545263671875
1.2818115234374998
1.3873535156249999
2.035107421875
2.921337890625
3.0204345703124997
3.0284912109374997
2.244580078125
1.9891845703125
1.7539306640624999
1.7893798828124998
1.6403320312499998
1.8441650390625
1.7418457031249999
1.6185791015625
1.6830322265625
1.6701416015625
1.6024658203125
1.574267578125
1.851416015625
3.0228515624999996
2.0109375
2.0391357421875
2.2131591796875
1.1529052734375
0.4165283203125
0.017724609375
0.0249755859375
0.040283203125
0.4519775390625
0.684814453125
0.9168457031249999
1.13115234375
1.3269287109374999
1.474365234375
1.56943359375
1.5662109375
1.5347900390625
1.5484863281249999
1.542041015625
1.190771484375
0.022558593749999998
1.585546875
1.3946044921874998
1.198828125
1.9658203125
2.4983642578125
3.01962890625
3.02607421875
2.4274658203125
2.03671875
1.7345947265625
1.6781982421875
1.87236328125
1.864306640625
1.7499023437499999
1.6556396484375
1.611328125
1.6604736328124998
1.6153564453125
1.5476806640624998
1.5718505859374998
3.0244628906249997
2.328369140625
2.1712646484375
2.2510253906249997
1.6314697265625
0.9410156249999999
0.022558593749999998
0.020947265625
0.024169921875
0.348046875
0.717041015625
0.9329589843749999
0.8950927734374999
1.3011474609375
1.4187744140624998
1.5186767578125
1.5492919921875
1.51787109375
1.5645996093749999
1.6000488281249998
1.4284423828125
0.022558593749999998
0.6735351562499999
1.3575439453125
1.1931884765625
1.4316650390624999
1.98515625
3.0301025390625
3.0252685546875
2.7021972656249997
2.0737792968749997
1.8522216796875
1.7039794921875
1.8409423828125
1.8425537109374999
1.8095214843749998
1.71123046875
1.611328125
1.6201904296874998
1.6000488281249998
1.56943359375
1.5380126953125
3.0244628906249997
2.4226318359375
2.1503173828124997
2.2308837890624997
1.9529296875
1.0417236328125
0.0281982421875
0.026586914062499998
0.024169921875
0.32871093749999997
0.6010253906249999
0.87333984375
0.881396484375
1.332568359375
1.384130859375
1.5122314453124999
1.53720703125
1.4953124999999998
1.52109375
1.5380126953125
1.4920898437499999
0.023364257812499997
0.5220703125
1.5509033203125
1.152099609375
1.35673828125
1.9867675781249998
3.0252685546875
3.0236572265625
2.76826171875
2.1793212890625
1.9537353515625
1.7410400390624998
1.843359375
1.786962890625
1.8393310546875
1.7329833984374998
1.6298583984375
1.6411376953124999
1.6161621093749998
1.5645996093749999
1.5331787109375
3.0268798828124996
3.0220458984375
1.996435546875
2.2365234375
1.9472900390624999
1.0868408203125
0.294873046875
0.020947265625
0.0217529296875
0.167578125
0.55751953125
0.7774658203125
0.7951904296875
1.1512939453125
1.3502929687499998
1.4880615234374999
1.5404296874999999
1.5170654296875
1.5396240234374998
1.5702392578125
1.5017578125
0.020947265625
0.027392578124999997
1.4574462890625
1.1722412109375
1.3736572265625
2.0649169921875
3.027685546875
3.0284912109374997
3.0268798828124996
2.4194091796875
1.9617919921875
1.77890625
1.7611816406249998
1.72734375
1.8409423828125
1.732177734375
1.6040771484374998
1.65
1.6459716796875
1.611328125
1.5509033203125
2.8423828125
3.02607421875
2.0069091796875
2.2034912109375
2.20751953125
1.1013427734374999
0.32468261718749997
0.022558593749999998
0.026586914062499998
0.153076171875
0.44794921875
0.717041015625
0.8531982421875
1.11181640625
1.2818115234374998
1.4332763671875
1.5605712890624999
1.4953124999999998
1.545263671875
1.5492919921875
1.5122314453124999
0.022558593749999998
0.022558593749999998
1.5726562499999999
1.348681640625
1.1706298828125
2.0504150390625
2.50400390625
3.0268798828124996
3.0244628906249997
2.3799316406249997
2.0302734375
1.7942138671874999
1.7345947265625
1.8111328125
1.8054931640624998
1.7370117187499998
1.6910888671875
1.6540283203125
1.67578125
1.6121337890624998
1.5734619140625
1.5444580078124999
3.029296875
2.2002685546875
2.10439453125
2.1857666015625
1.5396240234374998
0.7951904296875
0.0217529296875
0.0217529296875
0.0217529296875
0.3826904296875
0.7033447265624999
0.94423828125
0.9369873046874999
1.2818115234374998
1.4219970703125
1.5041748046874999
1.538818359375
1.5154541015624998
1.5605712890624999
1.546875
0.9321533203125
0.023364257812499997
1.1013427734374999
1.4034667968749999
1.1400146484375
1.51787109375
1.9891845703125
3.0268798828124996
3.0244628906249997
2.6143798828125
2.144677734375
1.812744140625
1.7345947265625
1.93681640625
1.7635986328125
1.8151611328125
1.706396484375
1.6201904296874998
1.6532226562499999
1.609716796875
1.5887695312499999
1.5218994140625
3.0236572265625
2.94873046875
2.1777099609375
2.199462890625
1.9376220703125
0.926513671875
0.023364257812499997
0.02578125
0.024169921875
0.39799804687499996
0.6018310546875
0.8580322265625
0.9498779296875
1.30517578125
1.400244140625
1.49853515625
1.5404296874999999
1.51787109375
1.525927734375
1.55009765625
1.4872558593749998
0.026586914062499998
0.022558593749999998
1.4147460937499998
1.1456542968749999
1.397021484375
1.9247314453125
3.02607421875
3.0244628906249997
3.0252685546875
2.2099365234375
1.93681640625
1.7523193359375
1.8667236328124999
1.7982421874999999
1.8216064453124998
1.6806152343749998
1.625830078125
1.6395263671875
1.6153564453125
1.5702392578125
1.5460693359375
3.027685546875
3.0252685546875
2.0326904296875
2.3050048828125
1.9698486328125
1.123095703125
0.1345458984375
0.023364257812499997
0.017724609375
0.233642578125
0.4680908203125
0.8991210937499999
0.7903564453124999
1.1698242187499999
1.3011474609375
1.4953124999999998
1.5839355468749998
1.4759765624999999
1.545263671875
1.5960205078124998
1.5162597656249999
0.026586914062499998
0.022558593749999998
1.5114257812499998
1.1617675781249999
1.3212890625
2.10439453125
2.727978515625
3.0236572265625
3.027685546875
2.318701171875
2.0165771484375
1.77568359375
1.735400390625
1.8046875
1.828857421875
1.7168701171874998
1.654833984375
1.6886718749999998
1.6685302734374998
1.6040771484374998
1.55009765625
3.0244628906249997
3.02607421875
2.0939208984374997
2.2743896484375
2.0576660156249997
1.3140380859374998
0.2698974609375
0.024169921875
0.019335937499999997
0.0249755859375
0.475341796875
0.7387939453125
0.9345703125
1.181103515625
1.3148437499999999
1.4381103515625
1.5315673828124998
1.5162597656249999
1.5033691406249998
1.5364013671874999
1.4953124999999998
0.015307617187499999
0.022558593749999998
1.4308593749999998
1.26328125
1.2012451171875
1.72412109375
2.618408203125
3.0236572265625
3.02607421875
2.399267578125
2.0633056640625
1.8409423828125
1.843359375
1.812744140625
1.8014648437499998
1.8135498046874998
1.6209960937499999
1.6435546875
1.65
1.5992431640625
1.5670166015625
1.5589599609375
3.0204345703124997
2.1277587890625
2.0979492187499997
2.2566650390625
1.3688232421875
0.60263671875
0.022558593749999998
0.0217529296875
0.022558593749999998
0.40122070312499997
0.6268066406249999
0.91845703125
0.936181640625
1.2721435546875
1.377685546875
1.5364013671874999
1.5557373046874998
1.4252197265625
1.5323730468749999
1.5791015625
1.509814453125
0.022558593749999998
1.4558349609374999
1.542041015625
1.1931884765625
1.6572509765624999
2.1301757812499997
3.0244628906249997
3.0252685546875
2.4596923828125
2.077001953125
1.8812255859375
1.7104248046875
1.8264404296874999
1.7990478515625
1.7877685546875
1.66611328125
1.6371093749999999
1.65966796875
1.5895751953125
1.5621826171875
1.5678222656249998
