2.05927734375
2.015771484375
2.018994140625
1.9835449218749999
1.84013671875
1.7724609375
1.7442626953125
1.6967285156249998
1.6451660156249999
1.6129394531249999
3.0228515624999996
3.0236572265625
2.3227294921875
2.3726806640625
2.4629150390625
1.5750732421875
0.6517822265625
0.019335937499999997
0.0217529296875
0.020947265625
0.165966796875
0.38671875
0.57041015625
0.7218749999999999
1.0997314453125
1.3156494140625
1.38896484375
1.4872558593749998
1.571044921875
1.6854492187499999
1.6330810546874999
0.023364257812499997
0.0217529296875
0.104736328125
0.8580322265625
0.8129150390625
1.6056884765625
2.354150390625
3.0268798828124996
3.02607421875
2.6458007812499997
2.3799316406249997
2.15595703125
2.0576660156249997
2.1551513671875
2.0117431640625
1.8989501953124999
1.8369140625
1.740234375
1.7080078125
1.6475830078125
1.625830078125
1.6121337890624998
3.02607421875
3.0244628906249997
2.4097412109375
2.727978515625
2.244580078125
0.7218749999999999
0.0281982421875
0.023364257812499997
0.020947265625
0.1168212890625
0.25458984375
0.46647949218749996
0.4890380859375
1.00546875
1.22138671875
1.426025390625
1.5041748046874999
1.561376953125
1.58232421875
1.6266357421875
1.496923828125
0.0217529296875
0.017724609375
0.8677001953125
0.610693359375
1.069921875
2.2107421874999997
3.0204345703124997
3.0228515624999996
2.7803466796875
2.505615234375
2.2679443359375
2.051220703125
2.1632080078125
1.9762939453125
1.941650390625
1.8651123046875
1.72734375
1.7136474609374999
1.7329833984374998
1.6161621093749998
1.59521484375
3.0244628906249997
3.0252685546875
2.4854736328125
2.6627197265625
2.4041015624999997
1.51787109375
0.0217529296875
0.017724609375
0.022558593749999998
0.020947265625
0.1200439453125
0.439892578125
0.31662597656249997
1.0030517578125
1.2705322265624999
1.4332763671875
1.5041748046874999
1.5364013671874999
1.5782958984375
1.5533203125
1.4912841796874998
0.022558593749999998
0.0201416015625
0.9289306640624999
0.6920654296875
0.9893554687499999
1.993212890625
3.0252685546875
3.0244628906249997
3.0244628906249997
2.550732421875
2.3243408203125
2.1390380859375
2.1954345703125
2.1084228515625
2.023828125
1.8844482421875
1.7877685546875
1.7861572265624999
1.8546386718749999
1.770849609375
1.7047851562499998
3.027685546875
3.02607421875
2.3646240234375
2.6804443359374996
2.5418701171875
1.5114257812499998
0.018530273437499998
0.019335937499999997
0.0201416015625
0.0217529296875
0.19013671875
0.36496582031249997
0.4390869140625
0.8467529296874999
1.1093994140624999
1.3510986328124999
1.533984375
1.49853515625
1.5033691406249998
1.5380126953125
1.5331787109375
0.018530273437499998
0.0217529296875
0.7218749999999999
0.5043457031249999
0.671923828125
1.9593749999999999
3.02607421875
3.0244628906249997
3.02607421875
2.6224365234375
2.487890625
2.2308837890624997
2.2631103515624997
1.996435546875
2.1503173828124997
1.9070068359374999
1.780517578125
1.8143554687499999
1.7200927734375
1.6322753906249998
1.69189453125
1.8973388671875
3.02607421875
2.5628173828125
2.6522460937499996
2.5877929687499996
1.6451660156249999
0.6550048828124999
0.020947265625
0.0217529296875
0.0217529296875
0.0523681640625
0.1973876953125
0.33273925781249997
0.5309326171875
0.781494140625
1.110205078125
1.2979248046874998
1.4445556640625
1.5347900390625
1.5355957031249998
1.51787109375
0.9208740234374999
0.023364257812499997
0.024169921875
0.3955810546875
0.41572265625
1.41796875
2.3340087890625
3.0204345703124997
3.0309082031249996
3.0204345703124997
2.745703125
2.5491210937499997
2.3775146484375
2.5015869140625
2.3654296875
2.1567626953125
2.0012695312499997
1.9150634765624999
1.8683349609375
1.7595703125
1.6717529296875
1.6749755859375
3.02607421875
3.027685546875
2.6820556640624997
3.02607421875
2.4766113281249997
1.4364990234375
0.022558593749999998
0.0201416015625
0.022558593749999998
0.022558593749999998
0.07734374999999999
0.252978515625
0.1780517578125
0.8354736328125
1.074755859375
1.2697265624999998
1.47275390625
1.3873535156249999
1.4300537109375
1.545263671875
1.3704345703124998
0.018530273437499998
0.022558593749999998
0.1893310546875
0.0394775390625
0.5712158203125
1.6209960937499999
3.0244628906249997
3.0284912109374997
3.021240234375
2.8037109375
2.6216308593749997
2.4290771484375
2.4758056640625
2.3323974609375
2.26875
2.08828125
1.960986328125
1.9134521484375
1.8224121093749999
1.6636962890625
1.6443603515624998
3.0244628906249997
3.021240234375
2.8754150390624997
3.003515625
2.7690673828124996
1.7289550781249998
0.02578125
0.0217529296875
0.022558593749999998
0.024169921875
0.017724609375
0.1232666015625
0.0620361328125
0.6791748046874999
0.90234375
1.24716796875
1.3156494140625
1.3962158203125
1.4590576171874998
1.4477783203124999
1.5251220703125
0.027392578124999997
0.023364257812499997
0.022558593749999998
0.075732421875
0.6211669921874999
1.658056640625
3.021240234375
3.029296875
3.0244628906249997
2.8383544921875
2.7134765625
2.4774169921875
2.6514404296875
2.350927734375
2.3904052734375
2.1462890624999997
1.9553466796874999
1.9271484374999999
1.8489990234375
1.7450683593749998
1.6185791015625
3.0268798828124996
3.0236572265625
2.5982666015625
3.0244628906249997
2.731201171875
1.7370117187499998
0.3504638671875
0.022558593749999998
0.018530273437499998
0.0169189453125
0.022558593749999998
0.12890625
0.1039306640625
0.456005859375
0.9257080078125
1.1851318359375
1.3543212890624998
1.413134765625
1.4888671875
1.53720703125
1.5090087890625
0.024169921875
0.024169921875
0.0217529296875
0.2038330078125
0.5083740234374999
1.611328125
2.7489257812499996
3.02607421875
3.0268798828124996
3.0244628906249997
2.7577880859375
2.5531494140624997
2.463720703125
2.4524414062499997
2.333203125
2.16884765625
2.006103515625
1.9021728515624998
1.819189453125
1.796630859375
1.667724609375
2.95517578125
3.0252685546875
3.0228515624999996
2.89072265625
3.0172119140625
2.1889892578125
0.620361328125
0.02578125
0.023364257812499997
0.024169921875
0.022558593749999998
0.07734374999999999
0.2280029296875
0.47453613281249996
0.862060546875
1.094091796875
1.3414306640625
1.405078125
1.4953124999999998
1.509814453125
1.496923828125
0.019335937499999997
0.02578125
0.023364257812499997
0.22478027343749998
0.1651611328125
0.8838134765625
2.6256591796874997
3.0228515624999996
3.0244628906249997
3.0236572265625
2.7811523437499996
2.5716796874999996
2.389599609375
2.4065185546875
2.3082275390625
2.225244140625
2.0262451171875
1.8473876953125
1.8602783203125
1.791796875
1.7007568359374998
1.6475830078125
3.0244628906249997
3.0244628906249997
2.7803466796875
2.95517578125
2.2679443359375
1.2181640624999999
0.02578125
0.023364257812499997
0.020947265625
0.026586914062499998
0.0459228515625
0.240087890625
0.24331054687499998
0.72509765625
1.026416015625
1.2866455078124999
1.3784912109374998
1.4252197265625
1.4638916015624999
1.5106201171875
1.4381103515625
0.023364257812499997
0.024169921875
0.1474365234375
0.1506591796875
0.7806884765625
1.6798095703125
3.029296875
3.029296875
3.0172119140625
2.8375488281249996
2.642578125
2.344482421875
2.5370361328124997
2.376708984375
2.225244140625
2.08828125
1.973876953125
1.8884765625
1.812744140625
1.7023681640625
1.6773925781249999
3.0228515624999996
3.0244628906249997
2.528173828125
2.9398681640624997
2.7666503906249997
1.6725585937499998
0.022558593749999998
0.024169921875
0.0201416015625
0.0217529296875
0.0717041015625
0.19899902343749998
0.0845947265625
0.604248046875
1.042529296875
1.2624755859374999
1.41796875
1.4510009765624998
1.5235107421874998
1.5597656249999998
1.4671142578124998
0.027392578124999997
0.024169921875
0.023364257812499997
0.198193359375
0.6638671875
1.8417480468749998
3.0252685546875
3.029296875
3.0244628906249997
2.9092529296875
2.6095458984374997
2.4854736328125
2.4290771484375
2.3468994140625
2.2260498046875
2.1060058593749997
1.899755859375
1.9037841796875
1.8062988281249999
1.754736328125
1.66611328125
3.0236572265625
3.0228515624999996
2.4548583984375
2.9455078125
2.7739013671875
1.5927978515624999
0.17724609375
0.022558593749999998
0.022558593749999998
0.0217529296875
0.0394775390625
0.16274414062499998
0.165966796875
0.6598388671875
0.9796874999999999
1.197216796875
1.4123291015625
1.4332763671875
1.4840332031249999
1.50498046875
1.474365234375
0.0249755859375
0.02578125
0.022558593749999998
0.3029296875
0.34965820312499996
1.7901855468749999
2.6876953125
3.0244628906249997
3.0252685546875
2.956787109375
2.634521484375
2.4927246093749997
2.341259765625
2.3404541015625
2.2743896484375
2.1019775390624997
1.9440673828125
1.85625
1.7982421874999999
1.8256347656249998
1.738623046875
1.6604736328124998
3.01962890625
2.9680664062499997
2.5168945312499997
2.8166015625
1.98837890625
0.87978515625
0.0249755859375
0.019335937499999997
0.023364257812499997
0.0217529296875
0.1345458984375
0.29245605468749997
0.40122070312499997
0.7669921875
1.1375976562499999
1.3237060546875
1.4953124999999998
1.50498046875
1.5460693359375
1.5662109375
0.0217529296875
0.024169921875
0.0217529296875
0.30615234375
0.33757324218749996
1.1077880859375
1.95615234375
3.0252685546875
3.0301025390625
3.0252685546875
2.779541015625
2.5265625
2.3259521484375
2.4032958984375
2.222021484375
2.1325927734375
1.973876953125
1.851416015625
1.8626953124999999
1.8014648437499998
1.7450683593749998
1.6830322265625
3.0268798828124996
3.0228515624999996
2.5934326171874997
2.947119140625
2.6369384765625
0.994189453125
0.018530273437499998
0.0249755859375
0.022558593749999998
0.0201416015625
0.12810058593749998
0.291650390625
0.3681884765625
0.78955078125
1.1319580078125
1.3204833984375
1.4783935546875
1.46953125
1.49853515625
1.5283447265624999
1.4622802734375
0.024169921875
0.022558593749999998
0.3552978515625
0.4084716796875
0.7734375
1.8046875
3.02607421875
3.0244628906249997
3.0244628906249997
2.719921875
2.5257568359375
2.3533447265625
2.386376953125
2.26875
2.1382324218749997
1.960986328125
1.8659179687499998
1.8062988281249999
1.803076171875
1.7684326171875
1.6967285156249998
3.0252685546875
3.0228515624999996
2.5088378906249997
2.9068359375
2.657080078125
1.6717529296875
0.0217529296875
0.02578125
0.023364257812499997
0.0217529296875
0.058813476562499994
0.2771484375
0.13857421875
0.6912597656249999
1.0159423828125
1.3100097656249998
1.4767822265625
1.4606689453125
1.5299560546875
1.593603515625
1.5041748046874999
0.023364257812499997
0.020947265625
0.022558593749999998
0.23122558593749998
0.84755859375
1.9013671875
3.0204345703124997
3.0252685546875
3.0252685546875
2.83271484375
2.582958984375
2.3799316406249997
2.344482421875
2.2268554687499997
2.1454833984375
2.018994140625
1.9062011718749998
1.8103271484374999
1.8369140625
1.748291015625
1.722509765625
3.0188232421874996
3.0244628906249997
2.6514404296875
2.9680664062499997
2.6619140624999997
1.6886718749999998
0.5841064453125
0.018530273437499998
0.022558593749999998
0.022558593749999998
0.023364257812499997
0.15146484375
0.2650634765625
0.48017578125
0.9982177734375
1.2689208984375
1.42119140625
1.5218994140625
1.5460693359375
1.5670166015625
1.5251220703125
0.023364257812499997
0.0217529296875
0.023364257812499997
0.30937499999999996
0.43022460937499996
1.3124267578125
2.8536621093749996
3.0244628906249997
3.0244628906249997
3.0244628906249997
2.6522460937499996
2.4290771484375
2.25263671875
2.2437744140625
2.2590820312499997
2.101171875
1.920703125
1.8844482421875
1.8506103515624999
1.7539306640624999
1.6781982421875
1.6451660156249999
3.0284912109374997
2.898779296875
2.6047119140625
3.0268798828124996
1.9907958984374998
0.8628662109374999
0.022558593749999998
0.026586914062499998
0.0217529296875
0.022558593749999998
0.050756835937499994
0.24814453125
0.4036376953125
0.8185546874999999
1.071533203125
1.3599609375
1.4638916015624999
1.4735595703125
1.5194824218749998
1.4888671875
1.4413330078125
0.02900390625
0.02900390625
0.1426025390625
0.169189453125
1.1045654296875
2.031884765625
3.0236572265625
3.0228515624999996
3.01962890625
2.8149902343749997
2.5974609374999997
2.4113525390625
2.4387451171875
2.33642578125
2.1406494140625
2.035107421875
1.9392333984374999
1.8739746093749998
1.8022705078124999
1.7281494140625
1.6806152343749998
3.0236572265625
3.0252685546875
2.7666503906249997
3.0204345703124997
2.7344238281249997
1.783740234375
0.0281982421875
0.0201416015625
0.022558593749999998
0.022558593749999998
0.08217773437499999
0.2199462890625
0.033032226562499996
0.79921875
1.077978515625
1.26005859375
1.3978271484375
1.448583984375
1.4848388671875
1.5218994140625
1.4493896484375
0.022558593749999998
0.0217529296875
0.023364257812499997
0.31259765624999997
0.7283203125
1.7990478515625
3.0284912109374997
3.0252685546875
3.0236572265625
2.8222412109375
2.6111572265625
2.4371337890625
2.5064208984375
2.3662353515625
2.2131591796875
2.077001953125
1.9247314453125
1.9432617187499999
1.8312744140625
1.7587646484375
1.6806152343749998
3.0236572265625
3.0252685546875
2.650634765625
3.0172119140625
2.747314453125
1.7200927734375
0.022558593749999998
0.0201416015625
0.022558593749999998
0.0217529296875
0.0249755859375
0.1474365234375
0.16032714843749998
0.6767578125
0.961962890625
1.2028564453125
1.4276367187499999
1.44052734375
1.4759765624999999
1.4993408203124998
1.4719482421874999
0.0169189453125
0.023364257812499997
0.017724609375
0.13857421875
0.5003173828124999
1.4711425781249998
3.018017578125
3.02607421875
3.0252685546875
2.81015625
2.6240478515624996
2.4371337890625
2.3807373046875
2.1342041015624997
2.2308837890624997
2.1277587890625
1.957763671875
1.9343994140624998
1.896533203125
1.7692382812499998
1.7015624999999999
1.8087158203125
3.01962890625
2.6925292968749996
2.7183105468749997
3.003515625
1.7942138671874999
0.6598388671875
0.022558593749999998
0.022558593749999998
0.0217529296875
0.0201416015625
0.12568359375
0.23928222656249998
0.502734375
0.9015380859375
1.1738525390624999
1.3422363281249998
1.4123291015625
1.477587890625
1.5057861328125
1.513037109375
1.27939453125
0.022558593749999998
0.022558593749999998
0.24814453125
0.378662109375
1.3946044921874998
2.4161865234374997
3.0301025390625
3.0204345703124997
3.02607421875
2.760205078125
2.5088378906249997
2.392822265625
2.3936279296875
2.2631103515624997
2.1084228515625
2.0093261718749997
1.8973388671875
1.89169921875
1.8167724609375
1.7732666015624998
1.714453125
3.0244628906249997
3.02607421875
2.5716796874999996
3.02607421875
2.489501953125
1.4735595703125
0.0169189453125
0.02578125
0.0217529296875
0.02578125
0.07009277343749999
0.24895019531249998
0.22075195312499998
0.865283203125
1.0868408203125
1.287451171875
1.4203857421875
1.4308593749999998
1.4687255859375
1.5283447265624999
1.4155517578124999
0.022558593749999998
0.0249755859375
0.314208984375
0.2441162109375
0.6227783203124999
1.5082031249999999
3.0268798828124996
3.0268798828124996
3.0309082031249996
2.7505371093749997
2.5982666015625
2.383154296875
2.4322998046874997
2.309033203125
2.225244140625
2.0520263671875
1.909423828125
1.8618896484374998
1.8256347656249998
1.748291015625
1.6806152343749998
3.0301025390625
3.0252685546875
2.7674560546875
2.940673828125
2.698974609375
1.60166015625
0.024169921875
0.023364257812499997
0.022558593749999998
0.01611328125
0.030615234374999998
0.20866699218749998
0.09829101562499999
0.8403076171874999
1.0513916015625
1.3204833984375
1.4308593749999998
1.4429443359374998
1.477587890625
1.49853515625
1.4493896484375
0.020947265625
0.024169921875
0.033032226562499996
0.1538818359375
0.6251953124999999
1.6846435546874998
3.0244628906249997
3.0220458984375
3.0268798828124996
2.7811523437499996
2.6522460937499996
2.39443359375
2.4749999999999996
2.18818359375
2.183349609375
2.04638671875
1.8788085937499999
1.9102294921874998
1.8425537109374999
1.7571533203124998
1.6894775390624999
3.0188232421874996
3.02607421875
2.4564697265624997
2.8770263671875
2.7030029296875
1.6161621093749998
0.4326416015625
0.022558593749999998
0.022558593749999998
0.022558593749999998
0.026586914062499998
0.20625
0.1780517578125
0.5671875
1.00224609375
1.2286376953125
1.34384765625
1.409912109375
1.456640625
1.493701171875
1.4671142578124998
0.023364257812499997
0.023364257812499997
0.0201416015625
0.26828613281249997
0.539794921875
1.5895751953125
2.682861328125
3.029296875
3.02607421875
2.9801513671874997
2.6304931640625
2.386376953125
2.286474609375
1.9996582031249999
2.196240234375
2.0858642578124997
1.993212890625
1.9360107421875
1.8707519531249999
1.8183837890624999
1.7394287109375
2.4532470703125
3.0228515624999996
2.513671875
2.7666503906249997
2.9092529296875
2.1857666015625
0.59619140625
0.0249755859375
0.019335937499999997
0.022558593749999998
0.022558593749999998
0.153076171875
0.33757324218749996
0.546240234375
0.9289306640624999
1.13115234375
1.3309570312499999
1.3913818359374999
1.426025390625
1.4606689453125
1.4510009765624998
0.66064453125
0.0201416015625
0.0201416015625
0.41572265625
0.3673828125
0.8983154296875
2.5048095703124997
3.0228515624999996
3.0244628906249997
3.0244628906249997
2.70380859375
2.4758056640625
2.3033935546874997
2.3154785156249997
2.2212158203125
2.1793212890625
2.006103515625
1.9029785156249999
1.88525390625
1.8046875
1.7217041015624999
1.7047851562499998
3.0228515624999996
3.0252685546875
2.7432861328125
2.9173095703125
2.2679443359375
1.2463623046874999
0.023364257812499997
0.0217529296875
0.020947265625
0.018530273437499998
0.0620361328125
0.28359375
0.278759765625
0.768603515625
1.0900634765625
1.276171875
1.3510986328124999
1.4219970703125
1.4848388671875
1.5057861328125
1.40830078125
0.022558593749999998
0.02578125
0.32065429687499997
0.28842773437499997
0.7637695312499999
1.6564453124999998
3.0236572265625
3.0244628906249997
3.0244628906249997
2.7352294921875
2.4911132812499996
2.3356201171874997
2.4161865234374997
2.2486083984375
2.1245361328125
2.0085205078125
1.8908935546874999
1.9198974609375
1.8554443359375
1.799853515625
1.7378173828124999
3.0252685546875
3.02607421875
2.4435791015625
2.914892578125
2.721533203125
1.6693359374999999
0.022558593749999998
0.02578125
0.02578125
0.023364257812499997
0.07412109374999999
0.2425048828125
0.12890625
0.8282226562499999
1.0530029296874999
1.2383056640624999
1.4074951171874999
1.456640625
1.4783935546875
1.4518066406249999
1.416357421875
0.023364257812499997
0.0217529296875
0.2344482421875
0.30615234375
0.6372802734374999
1.786962890625
3.0244628906249997
3.021240234375
3.0252685546875
2.745703125
2.570068359375
2.4129638671875
2.42666015625
2.2179931640625
2.1873779296875
2.0625
1.883642578125
1.9118408203125
1.864306640625
1.7764892578125
1.6935058593749999
3.0244628906249997
3.02607421875
2.447607421875
2.9503417968749996
2.818212890625
1.6185791015625
0.26748046875
0.022558593749999998
0.022558593749999998
0.022558593749999998
0.026586914062499998
0.17080078124999998
0.16274414062499998
0.604248046875
0.9152343749999999
1.213330078125
1.3478759765625
1.3817138671875
1.4501953125
1.4864501953125
1.4493896484375
0.022558593749999998
0.0201416015625
0.026586914062499998
0.3262939453125
0.38913574218749997
1.7474853515625
2.7094482421875
3.02607421875
3.0244628906249997
2.9068359375
2.6691650390625
2.4242431640624997
2.31064453125
2.2582763671875
2.18818359375
2.0923095703125
1.9706542968749998
1.89169921875
1.851416015625
1.8296630859374998
1.7362060546875
3.0244628906249997
3.0204345703124997
2.9479248046874997
2.6063232421875
2.8061279296875
2.0310791015625
0.9627685546875
0.02578125
0.02578125
0.0201416015625
0.024169921875
0.17482910156249998
0.32548828124999996
0.439892578125
0.966796875
1.14404296875
1.316455078125
1.4445556640625
1.4348876953124998
1.49853515625
1.5082031249999999
0.024169921875
0.0217529296875
0.027392578124999997
0.38994140624999996
0.0217529296875
1.0014404296875
1.9352050781249999
3.0252685546875
3.029296875
3.0220458984375
2.6876953125
2.4903076171875
2.321923828125
2.30419921875
2.2695556640625
2.176904296875
2.0439697265625
1.88525390625
1.8715576171875
1.7934082031249998
1.7200927734375
1.674169921875
3.0268798828124996
3.02607421875
2.6522460937499996
2.86494140625
2.7005859374999996
1.068310546875
0.022558593749999998
0.022558593749999998
0.019335937499999997
0.018530273437499998
0.0652587890625
0.240087890625
0.34562988281249996
0.7903564453124999
1.0852294921874999
1.3148437499999999
1.409912109375
1.4518066406249999
1.4872558593749998
1.5114257812499998
1.43408203125
0.0217529296875
0.02578125
0.372216796875
0.3182373046875
0.6888427734375
1.7684326171875
3.0244628906249997
3.0252685546875
3.0252685546875
2.705419921875
2.4919189453125
2.341259765625
2.4766113281249997
2.3178955078125
2.2187988281249997
2.0262451171875
1.9190917968749999
1.9005615234375
1.8071044921875
1.740234375
1.6935058593749999
3.021240234375
3.0252685546875
2.5031982421874996
2.8778320312499996
2.7005859374999996
1.7652099609374998
0.0217529296875
0.0217529296875
0.02578125
0.0217529296875
0.040283203125
0.24895019531249998
0.0749267578125
0.6292236328124999
1.074755859375
1.2906738281249999
1.4252197265625
1.4171630859375
1.46630859375
1.4928955078125
1.4445556640625
0.017724609375
0.027392578124999997
0.0201416015625
0.2795654296875
0.7218749999999999
1.869140625
2.9559814453124997
3.0252685546875
3.0268798828124996
2.8012939453124996
2.5692626953124997
2.40732421875
2.4210205078125
2.3235351562499997
2.183349609375
2.0326904296875
1.931982421875
1.8900878906249998
1.8425537109374999
1.7724609375
1.7072021484375
3.029296875
3.0220458984375
2.4556640625
2.9511474609375
2.7134765625
1.791796875
0.09345703124999999
0.0169189453125
0.023364257812499997
0.0201416015625
0.024169921875
0.13857421875
0.2586181640625
0.6517822265625
0.9611572265624999
1.190771484375
1.3849365234375
1.4228027343749998
1.4558349609374999
1.4928955078125
1.4397216796874999
0.023364257812499997
0.0201416015625
0.0217529296875
0.322265625
0.43022460937499996
1.361572265625
2.8955566406249997
3.029296875
3.0244628906249997
2.8778320312499996
2.60712890625
2.4556640625
2.3936279296875
2.3557617187499997
2.292919921875
2.1229248046875
1.9601806640625
1.92392578125
1.8949218749999999
1.78857421875
1.7370117187499998
1.6781982421875
3.0236572265625
2.876220703125
2.570068359375
2.8286865234375
1.8820312499999998
0.8548095703124999
0.0281982421875
0.022558593749999998
0.0201416015625
0.023364257812499997
0.08137207031249999
0.294873046875
0.4149169921875
0.8282226562499999
1.119873046875
1.3100097656249998
1.4155517578124999
1.4622802734375
1.493701171875
1.5138427734375
1.426025390625
0.0217529296875
0.0217529296875
0.34965820312499996
0.3585205078125
1.1609619140625
2.1470947265625
3.0220458984375
3.02607421875
3.0244628906249997
2.7892089843749996
2.513671875
2.3315917968749997
2.39765625
2.228466796875
2.157568359375
2.02060546875
1.94970703125
1.9166748046875
1.7893798828124998
1.7450683593749998
1.674169921875
3.02607421875
3.01962890625
2.5982666015625
2.9173095703125
2.6337158203124997
1.6991455078125
0.020947265625
0.022558593749999998
0.023364257812499997
0.027392578124999997
0.04189453125
0.249755859375
0.141796875
0.8209716796875
1.0884521484375
1.2737548828124998
1.4058837890625
1.4477783203124999
1.480810546875
1.5082031249999999
1.4308593749999998
0.0217529296875
0.027392578124999997
0.41733398437499997
0.420556640625
0.7259033203124999
1.786962890625
3.0236572265625
3.021240234375
3.0252685546875
2.769873046875
2.5813476562499997
2.4041015624999997
2.4556640625
2.33642578125
2.1865722656249997
2.0794189453125
1.920703125
1.861083984375
1.8240234375
1.7458740234374999
1.690283203125
3.0236572265625
3.02607421875
2.6079345703124996
2.8061279296875
2.5394531249999996
1.7426513671875
0.0217529296875
0.023364257812499997
0.022558593749999998
0.0217529296875
0.0910400390625
0.314208984375
0.21672363281249998
0.8983154296875
1.0417236328125
1.3341796874999998
1.4767822265625
1.4687255859375
1.4872558593749998
1.545263671875
1.4872558593749998
0.020947265625
0.019335937499999997
0.02578125
0.2795654296875
0.6187499999999999
1.9891845703125
3.01962890625
3.0268798828124996
3.029296875
2.7416748046875
2.56201171875
2.2727783203125
2.3557617187499997
2.0504150390625
2.1462890624999997
1.9682373046875
1.877197265625
1.88525390625
1.8554443359375
1.8409423828125
1.670947265625
3.0228515624999996
3.0244628906249997
2.4766113281249997
2.5571777343749997
2.4661376953125
1.4630859374999998
0.38188476562499996
0.022558593749999998
0.0249755859375
0.02578125
0.08620605468749999
0.32951660156249996
0.339990234375
0.6614501953124999
1.155322265625
1.3913818359374999
1.509814453125
1.5146484375
1.5484863281249999
1.47275390625
1.6604736328124998
0.022558593749999998
0.02578125
0.023364257812499997
0.24169921875
0.3117919921875
1.461474609375
2.72958984375
3.0244628906249997
3.0252685546875
3.0244628906249997
2.7489257812499996
2.4556640625
2.2623046875
2.3050048828125
2.358984375
2.1809326171875
2.0326904296875
1.7982421874999999
1.8957275390625
1.7450683593749998
1.7337890624999999
1.6121337890624998
3.0268798828124996
3.021240234375
3.021240234375
3.0252685546875
2.5144775390625
0.7162353515625
0.022558593749999998
0.017724609375
0.0217529296875
0.0201416015625
0.0201416015625
0.022558593749999998
0.185302734375
0.6896484374999999
0.845947265625
1.148876953125
1.3011474609375
1.3728515625
1.4437499999999999
1.4429443359374998
1.364794921875
0.022558593749999998
0.022558593749999998
0.024169921875
0.018530273437499998
0.02578125
2.0761962890625
3.027685546875
3.02607421875
3.0268798828124996
3.02607421875
3.02607421875
2.9028076171875
3.0123779296874997
2.96162109375
2.8617187499999996
2.6739990234374997
2.4629150390625
2.402490234375
2.1680419921875
2.0496093749999997
1.8780029296874998
3.0244628906249997
3.0252685546875
3.02607421875
3.02607421875
2.94873046875
1.7684326171875
0.023364257812499997
0.0249755859375
0.0217529296875
0.022558593749999998
0.02578125
0.0201416015625
0.023364257812499997
0.55107421875
0.7323486328125
0.9321533203125
1.0610595703124999
1.1819091796874999
1.27294921875
1.3551269531249999
1.32451171875
0.023364257812499997
0.022558593749999998
0.020947265625
0.024169921875
0.042700195312499994
1.65966796875
3.0204345703124997
3.0252685546875
3.0220458984375
3.0244628906249997
3.02607421875
2.9390625
3.02607421875
2.827880859375
2.753759765625
2.537841796875
2.2921142578125
2.2502197265625
2.135009765625
1.9924072265625
1.8602783203125
3.0301025390625
3.0309082031249996
2.8536621093749996
3.02607421875
2.7005859374999996
1.4228027343749998
0.0217529296875
0.027392578124999997
0.022558593749999998
0.022558593749999998
0.04189453125
0.2441162109375
0.1458251953125
0.8660888671875
1.00224609375
1.2020507812499999
1.3188720703124999
1.3583496093749998
1.456640625
1.5017578125
1.3639892578125
0.0217529296875
0.020947265625
0.022558593749999998
0.2054443359375
0.7806884765625
1.9811279296875
3.0244628906249997
3.02607421875
3.0252685546875
2.8109619140624997
2.5692626953124997
2.3195068359374997
2.22041015625
1.9360107421875
2.012548828125
1.9110351562499999
1.7281494140625
1.7523193359375
1.71123046875
1.635498046875
1.6129394531249999
2.6143798828125
3.0268798828124996
2.47822265625
2.5547607421875
2.7521484375
1.2576416015624998
0.14018554687499998
0.0217529296875
0.0298095703125
0.022558593749999998
0.0990966796875
0.1893310546875
0.23686523437499998
0.5953857421875
1.018359375
1.264892578125
1.4066894531249998
1.48564453125
1.4671142578124998
1.5243164062499999
1.4526123046875
0.13615722656249998
0.020947265625
0.0217529296875
0.1998046875
0.36416015625
1.8457763671874998
3.0123779296874997
3.0236572265625
3.0268798828124996
3.02607421875
2.6546630859375
2.4355224609375
2.2389404296874997
2.2453857421875
2.0407470703125
1.9440673828125
1.8780029296874998
1.7990478515625
1.8199951171875
1.7660156249999999
1.6862548828125
1.619384765625
3.02607421875
3.0236572265625
2.69736328125
2.792431640625
2.047998046875
0.9563232421875
0.022558593749999998
0.019335937499999997
0.019335937499999997
0.0717041015625
0.2618408203125
0.4713134765625
0.4568115234375
0.9224853515625
1.3059814453124998
1.448583984375
1.5243164062499999
1.554931640625
1.5525146484374999
1.5758789062499998
1.26005859375
0.0217529296875
0.018530273437499998
0.022558593749999998
0.42136230468749997
1.0884521484375
2.096337890625
3.0228515624999996
3.0252685546875
3.0244628906249997
2.7134765625
2.389599609375
2.1664306640624997
2.3098388671875
2.09150390625
2.0165771484375
1.9037841796875
1.8111328125
1.8232177734375
1.786962890625
1.7426513671875
1.654833984375
3.0301025390625
3.0252685546875
2.7086425781249996
2.6917236328125
2.4258544921875
1.0787841796875
0.0249755859375
0.026586914062499998
0.0217529296875
0.0394775390625
0.21672363281249998
0.4568115234375
0.294873046875
1.10859375
1.3019531249999998
1.442138671875
1.5299560546875
1.5347900390625
1.5589599609375
1.5750732421875
1.4977294921875
0.024169921875
0.018530273437499998
0.26022949218749997
0.459228515625
1.0078857421875
2.0085205078125
3.027685546875
3.0244628906249997
3.0236572265625
2.60068359375
2.3871826171875
2.1954345703125
2.238134765625
2.0310791015625
2.0004638671875
1.8981445312499998
1.7877685546875
1.7974365234374998
1.7700439453124999
1.69833984375
1.6201904296874998
3.02607421875
3.0268798828124996
2.1648193359375
2.586181640625
2.3356201171874997
1.2157470703125
0.022558593749999998
0.023364257812499997
0.02578125
0.0217529296875
0.21591796875
0.4036376953125
0.44956054687499997
0.9394042968749999
1.252001953125
1.4598632812499999
1.5645996093749999
1.525927734375
1.5911865234375
1.587158203125
1.5122314453124999
0.022558593749999998
0.022558593749999998
0.0217529296875
0.5389892578125
0.9990234375
2.1591796875
3.01962890625
3.027685546875
3.02607421875
2.6917236328125
2.376708984375
2.0689453125
2.023828125
2.0818359374999997
1.9827392578124998
1.9021728515624998
1.8135498046874998
1.75634765625
1.7732666015624998
1.7120361328125
1.667724609375
3.0252685546875
3.0228515624999996
2.6159912109374996
2.2405517578125
2.4282714843749997
1.5541259765625
0.40283203125
0.022558593749999998
0.024169921875
0.0201416015625
0.19899902343749998
0.4648681640625
0.6332519531249999
0.7557128906249999
1.3237060546875
1.4574462890625
1.5782958984375
1.6395263671875
1.6290527343749999
1.6161621093749998
1.5960205078124998
0.024169921875
0.022558593749999998
0.018530273437499998
0.375439453125
0.6533935546874999
1.5573486328125
2.4524414062499997
3.0236572265625
3.0252685546875
3.029296875
2.4177978515625
2.1712646484375
2.0197998046875
2.1333984375
1.972265625
1.9593749999999999
1.8473876953125
1.7531249999999998
1.7909912109375
1.7587646484375
1.7023681640625
1.654833984375
3.0252685546875
3.0236572265625
2.2308837890624997
2.4234375
2.212353515625
0.5204589843749999
0.0201416015625
0.023364257812499997
0.0217529296875
0.24895019531249998
0.410888671875
0.6815917968749999
0.7541015624999999
1.197216796875
1.4679199218749999
1.5718505859374998
1.6314697265625
1.654833984375
1.6653076171874999
1.609716796875
1.4953124999999998
0.022558593749999998
0.019335937499999997
0.588134765625
0.8113037109375
1.1899658203124999
2.2437744140625
3.0268798828124996
3.0244628906249997
3.029296875
2.4451904296875
2.173681640625
1.9190917968749999
2.0343017578125
1.9940185546875
1.85302734375
1.7853515624999998
1.7660156249999999
1.7587646484375
1.71123046875
1.6806152343749998
1.6250244140624999
3.0244628906249997
3.0228515624999996
2.1777099609375
2.5080322265625
2.292919921875
1.2181640624999999
0.022558593749999998
0.022558593749999998
0.023364257812499997
0.0298095703125
0.2972900390625
0.68642578125
0.549462890625
1.1666015625
1.4469726562499998
1.6000488281249998
1.748291015625
1.6379150390625
1.6298583984375
1.6218017578125
1.5347900390625
0.022558593749999998
0.024169921875
0.022558593749999998
0.631640625
1.2431396484375
2.47822265625
3.0236572265625
3.0236572265625
3.0236572265625
2.513671875
2.20751953125
1.9029785156249999
1.9343994140624998
1.9198974609375
1.8892822265625
1.8248291015625
1.7877685546875
1.7571533203124998
1.7289550781249998
1.662890625
1.6121337890624998
3.0236572265625
3.0228515624999996
2.2067138671874997
2.518505859375
2.350927734375
1.3237060546875
0.022558593749999998
0.020947265625
0.018530273437499998
0.027392578124999997
0.3037353515625
0.607470703125
0.736376953125
0.9676025390624999
1.4791992187499998
1.6089111328124999
1.690283203125
1.6653076171874999
1.6669189453125
1.6411376953124999
1.538818359375
0.022558593749999998
0.0249755859375
0.0217529296875
0.49064941406249996
0.8515869140625
1.8973388671875
3.021240234375
3.0252685546875
3.0252685546875
3.0164062499999997
2.2856689453125
2.0536376953124997
1.9440673828125
1.912646484375
1.9029785156249999
1.8095214843749998
1.6773925781249999
1.658056640625
1.6951171875
1.62744140625
1.619384765625
1.5412353515625
3.0236572265625
2.4806396484374997
2.2494140625
2.4790283203124996
1.4091064453125
0.26748046875
0.022558593749999998
0.033032226562499996
0.022558593749999998
0.30051269531249997
0.49064941406249996
0.8201660156249999
0.9192626953124999
1.3422363281249998
1.6153564453125
1.7370117187499998
1.7853515624999998
1.706396484375
1.670947265625
1.6379150390625
1.5218994140625
0.017724609375
0.026586914062499998
0.59619140625
0.8314453125
1.7313720703125
2.6216308593749997
3.027685546875
3.0244628906249997
2.898779296875
2.3195068359374997
2.075390625
1.82724609375
1.9593749999999999
1.8586669921874999
1.7781005859374999
1.7080078125
1.7007568359374998
1.6403320312499998
1.593603515625
1.6081054687499998
1.593603515625
3.0268798828124996
3.0228515624999996
2.205908203125
2.2969482421875
2.101171875
1.1980224609374999
0.022558593749999998
0.022558593749999998
0.0217529296875
0.18449707031249998
0.3875244140625
0.6662841796875
0.6066650390625
1.3510986328124999
1.6266357421875
1.7337890624999999
1.8199951171875
1.7490966796874998
1.7136474609374999
1.6822265625
1.5815185546875
0.022558593749999998
0.0217529296875
0.49951171875
0.816943359375
1.276171875
2.3654296875
3.027685546875
3.02607421875
3.0228515624999996
2.421826171875
2.01416015625
1.8175781249999998
1.9779052734375
1.9013671875
1.7523193359375
1.740234375
1.619384765625
1.6773925781249999
1.6693359374999999
1.6266357421875
1.5645996093749999
3.0252685546875
3.0228515624999996
2.1624023437499997
2.376708984375
2.144677734375
1.0167480468749999
0.0217529296875
0.023364257812499997
0.022558593749999998
0.107958984375
0.399609375
0.6936767578124999
0.8080810546874999
1.2673095703125
1.5404296874999999
1.7217041015624999
1.8046875
1.7257324218749999
1.6894775390624999
1.6685302734374998
1.5839355468749998
0.022558593749999998
0.0217529296875
0.2908447265625
0.6703125
1.0900634765625
2.164013671875
3.0252685546875
3.0284912109374997
3.0244628906249997
2.3871826171875
2.0737792968749997
1.88525390625
1.928759765625
1.8046875
1.8119384765625
1.7362060546875
1.6645019531249998
1.6991455078125
1.63388671875
1.5919921874999998
1.5815185546875
1.5509033203125
3.0252685546875
2.012548828125
1.915869140625
2.3154785156249997
1.126318359375
0.1377685546875
0.027392578124999997
0.023364257812499997
0.019335937499999997
0.3601318359375
0.6251953124999999
0.8757568359375
1.171435546875
1.577490234375
1.69189453125
1.7233154296875
1.780517578125
1.7200927734375
1.6733642578124999
1.6282470703124998
1.5404296874999999
0.0169189453125
0.022558593749999998
0.8177490234375
0.9418212890625
2.0826416015625
2.8794433593749997
3.0204345703124997
3.0244628906249997
2.42666015625
2.0423583984375
1.738623046875
1.7507080078125
1.9086181640625
1.7732666015624998
1.7587646484375
1.687060546875
1.6435546875
1.6645019531249998
1.638720703125
1.6000488281249998
1.5791015625
3.027685546875
2.9841796874999997
2.228466796875
2.30419921875
2.0036865234375
1.1029541015625
0.023364257812499997
0.022558593749999998
0.019335937499999997
0.2505615234375
0.578466796875
0.8548095703124999
0.775048828125
1.50498046875
1.658056640625
1.7499023437499999
1.7660156249999999
1.6991455078125
1.6854492187499999
1.6645019531249998
1.533984375
0.0249755859375
0.023364257812499997
0.9756591796874999
0.839501953125
1.2938964843749998
2.23330078125
3.02607421875
3.0244628906249997
3.0091552734375
2.0906982421875
1.8304687499999999
1.67578125
1.8957275390625
1.8224121093749999
1.7595703125
1.6733642578124999
1.6604736328124998
1.6556396484375
1.6653076171874999
1.6298583984375
1.6169677734374999
3.0309082031249996
3.0252685546875
2.1261474609374997
2.2389404296874997
2.0069091796875
1.2189697265625
0.017724609375
0.022558593749999998
0.02900390625
0.230419921875
0.5003173828124999
0.8193603515625
0.7275146484374999
1.60166015625
1.6411376953124999
1.7507080078125
1.7829345703125
1.748291015625
1.7337890624999999
1.6846435546874998
1.585546875
0.023364257812499997
0.022558593749999998
1.0272216796875
0.8523925781249999
1.232666015625
2.367041015625
3.0268798828124996
3.02607421875
3.02607421875
2.2268554687499997
1.9537353515625
1.732177734375
1.909423828125
1.58232421875
1.72734375
1.66611328125
1.6161621093749998
1.65966796875
1.651611328125
1.6371093749999999
1.6000488281249998
2.2179931640625
3.0252685546875
1.880419921875
2.0375244140624997
2.0101318359375
0.9772705078124999
0.12165527343749999
0.023364257812499997
0.018530273437499998
0.020947265625
0.44553222656249997
0.7661865234374999
0.8266113281249999
1.21494140625
1.5412353515625
1.7176757812499999
1.7297607421874999
1.7370117187499998
1.7168701171874998
1.703173828125
1.65
0.018530273437499998
0.02578125
0.2135009765625
1.0433349609375
1.184326171875
2.2212158203125
3.021240234375
3.02607421875
3.0252685546875
2.34609375
1.9916015624999999
1.7329833984374998
1.7329833984374998
1.7934082031249998
1.770849609375
1.6886718749999998
1.6371093749999999
1.6773925781249999
1.6725585937499998
1.6435546875
1.6314697265625
1.6604736328124998
3.0301025390625
2.4532470703125
1.9464843749999998
2.3323974609375
1.6443603515624998
0.8596435546875
0.017724609375
0.022558593749999998
0.019335937499999997
0.3907470703125
0.6066650390625
0.8499755859375
0.8612548828125
1.529150390625
1.6451660156249999
1.74345703125
1.767626953125
1.69833984375
1.6717529296875
1.6242187499999998
1.5275390624999998
0.020947265625
0.0281982421875
0.8016357421875
0.9418212890625
1.3792968749999999
2.18173828125
3.0252685546875
3.0228515624999996
3.0099609375
2.0552490234375
1.80791015625
1.7128417968749998
1.925537109375
1.7724609375
1.7337890624999999
1.7289550781249998
1.6645019531249998
1.6806152343749998
1.6371093749999999
1.61455078125
1.5863525390625
3.0301025390625
2.8512451171874997
2.1680419921875
2.263916015625
2.0165771484375
1.0320556640625
0.023364257812499997
0.023364257812499997
0.0169189453125
0.28681640625
0.549462890625
0.78310546875
0.7516845703124999
1.5251220703125
1.6532226562499999
1.7909912109375
1.796630859375
1.738623046875
1.6894775390624999
1.6685302734374998
1.5791015625
0.024169921875
0.023364257812499997
1.0948974609375
0.8523925781249999
1.3502929687499998
2.16884765625
3.02607421875
3.02607421875
3.02607421875
2.125341796875
1.9013671875
1.7257324218749999
1.960986328125
1.7345947265625
1.8062988281249999
1.75634765625
1.6081054687499998
1.6822265625
1.6669189453125
1.6733642578124999
1.6290527343749999
3.02607421875
3.0244628906249997
1.8506103515624999
2.276806640625
2.006103515625
0.9208740234374999
0.0217529296875
0.0201416015625
0.023364257812499997
0.043505859375
0.38913574218749997
0.768603515625
0.75732421875
1.2592529296875
1.65
1.7450683593749998
1.7700439453124999
1.7329833984374998
1.7168701171874998
1.662890625
1.577490234375
0.0217529296875
0.024169921875
0.185302734375
0.8668945312499999
1.264892578125
2.40087890625
3.0244628906249997
3.0252685546875
3.02607421875
2.3477050781249997
1.9827392578124998
1.8119384765625
1.7635986328125
1.8425537109374999
1.764404296875
1.703173828125
1.6886718749999998
1.6669189453125
1.6371093749999999
1.6314697265625
1.5984375
3.01962890625
3.021240234375
2.1470947265625
2.173681640625
2.1487060546875
1.4034667968749999
0.033032226562499996
0.020947265625
0.022558593749999998
0.0201416015625
0.44150390624999997
0.7049560546875
0.9087890624999999
1.200439453125
1.5984375
1.7313720703125
1.7394287109375
1.6967285156249998
1.6935058593749999
1.6798095703125
1.60166015625
0.023364257812499997
0.02578125
0.0443115234375
0.9917724609374999
0.9547119140625
1.61455078125
3.021240234375
3.02607421875
3.0244628906249997
2.286474609375
2.035107421875
1.8071044921875
1.7055908203124999
1.82724609375
1.815966796875
1.7539306640624999
1.6951171875
1.6459716796875
1.6798095703125
1.6669189453125
1.622607421875
1.554931640625
3.027685546875
2.3017822265625
2.038330078125
2.2469970703124997
1.5396240234374998
0.61552734375
0.023364257812499997
0.026586914062499998
0.0217529296875
0.323876953125
0.543017578125
0.8950927734374999
0.91201171875
1.40830078125
1.670947265625
1.7418457031249999
1.7208984374999998
1.714453125
1.6693359374999999
1.6604736328124998
1.542041015625
0.020947265625
0.02578125
0.920068359375
0.8870361328124999
1.4268310546874998
2.1873779296875
3.0252685546875
3.0268798828124996
2.7988769531249997
2.118896484375
1.9295654296875
1.8256347656249998
2.0069091796875
1.941650390625
1.78857421875
1.7337890624999999
1.6878662109375
1.674169921875
1.6443603515624998
1.6290527343749999
1.5782958984375
3.027685546875
3.0284912109374997
2.0407470703125
2.2026855468749997
2.1567626953125
1.2238037109375
0.024169921875
0.023364257812499997
0.0249755859375
0.1200439453125
0.46728515625
0.7629638671875
0.559130859375
1.24072265625
1.6604736328124998
1.7337890624999999
1.799853515625
1.69833984375
1.6645019531249998
1.62744140625
1.4953124999999998
0.0217529296875
0.020947265625
0.2940673828125
0.6630615234374999
1.139208984375
2.354150390625
3.027685546875
3.029296875
3.029296875
2.5571777343749997
2.1978515625
2.01416015625
2.015771484375
1.9666259765624998
1.8087158203125
1.7571533203124998
1.687060546875
1.6685302734374998
1.6975341796874999
1.6564453124999998
1.5750732421875
3.02607421875
3.0244628906249997
2.1591796875
2.56201171875
2.1873779296875
1.02802734375
0.022558593749999998
0.024169921875
0.022558593749999998
0.07009277343749999
0.41330566406249997
0.75087890625
0.8515869140625
1.2697265624999998
1.6564453124999998
1.832080078125
1.9198974609375
1.8199951171875
1.7942138671874999
1.7571533203124998
1.6330810546874999
0.022558593749999998
0.02578125
0.022558593749999998
0.6912597656249999
0.974853515625
2.3235351562499997
3.0236572265625
3.02607421875
3.02607421875
2.34287109375
1.9867675781249998
1.7104248046875
1.7499023437499999
1.7337890624999999
1.7539306640624999
1.67578125
1.6105224609375
1.6185791015625
1.6524169921874998
1.6177734375
1.5944091796875
1.554931640625
3.0284912109374997
1.972265625
1.751513671875
2.1422607421874997
0.913623046875
0.020947265625
0.020947265625
0.023364257812499997
0.0217529296875
0.48662109374999996
0.78310546875
1.0803955078125
1.184326171875
1.6306640625
1.8707519531249999
1.8876708984375
1.8602783203125
1.780517578125
1.6846435546874998
1.625830078125
1.5154541015624998
0.023364257812499997
0.022558593749999998
0.865283203125
1.2697265624999998
2.115673828125
2.8335205078124996
3.029296875
3.0236572265625
2.367041015625
1.9352050781249999
1.6612792968749999
1.496923828125
1.764404296875
1.6451660156249999
1.5758789062499998
1.5637939453124998
1.5799072265624998
1.6024658203125
1.5645996093749999
1.5460693359375
1.5364013671874999
3.0325195312499997
3.0268798828124996
1.7926025390625
1.8739746093749998
1.674169921875
0.94423828125
0.023364257812499997
0.0217529296875
0.022558593749999998
0.44553222656249997
0.8241943359374999
1.174658203125
0.9966064453125
1.6508056640625
1.861083984375
1.8715576171875
1.8659179687499998
1.7458740234374999
1.716064453125
1.6773925781249999
1.5589599609375
0.023364257812499997
0.022558593749999998
1.4816162109375
1.5315673828124998
1.7297607421874999
2.6232421875
3.0236572265625
3.02607421875
2.9302001953124996
1.6959228515625
1.4493896484375
1.4800048828124999
1.6701416015625
1.7120361328125
1.6556396484375
1.5895751953125
1.577490234375
1.5605712890624999
1.5839355468749998
1.5686279296874999
1.5380126953125
3.0244628906249997
3.02607421875
1.7410400390624998
1.9585693359374998
1.6765869140624998
0.9337646484375
0.022558593749999998
0.022558593749999998
0.026586914062499998
0.43344726562499997
0.7621582031249999
1.0981201171875
0.9732421874999999
1.545263671875
1.754736328125
1.764404296875
1.7909912109375
1.7200927734375
1.67900390625
1.6636962890625
1.5807128906249999
0.0217529296875
0.020947265625
1.7450683593749998
1.4864501953125
1.5670166015625
2.56201171875
3.02607421875
3.0252685546875
2.727978515625
1.8425537109374999
1.6475830078125
1.5251220703125
1.619384765625
1.5541259765625
1.6153564453125
1.545263671875
1.56943359375
1.5944091796875
1.5815185546875
1.538818359375
1.5355957031249998
1.5492919921875
3.02607421875
1.66611328125
1.6411376953124999
1.7934082031249998
0.9724365234375
0.2908447265625
0.02900390625
0.023364257812499997
0.09426269531249999
0.6856201171874999
1.0191650390625
1.0916748046875
1.3301513671874998
1.6878662109375
1.7748779296875
1.7724609375
1.7313720703125
1.699951171875
1.6701416015625
1.62744140625
0.026586914062499998
0.019335937499999997
1.77890625
1.606494140625
1.5017578125
2.1680419921875
2.7134765625
3.02607421875
3.0268798828124996
2.0439697265625
1.6951171875
1.4872558593749998
1.477587890625
1.67578125
1.6830322265625
1.609716796875
1.603271484375
1.587158203125
1.5968261718749999
1.5444580078124999
1.5637939453124998
1.546875
3.0252685546875
2.10439453125
1.6822265625
2.0246337890625
1.622607421875
0.36979980468749996
0.023364257812499997
0.023364257812499997
0.0217529296875
0.55107421875
0.8274169921875
1.126318359375
1.055419921875
1.6701416015625
1.7442626953125
1.7233154296875
1.735400390625
1.674169921875
1.6620849609375
1.654833984375
1.561376953125
0.023364257812499997
0.022558593749999998
1.3414306640625
1.3011474609375
1.5146484375
2.5789306640625
3.0244628906249997
3.0244628906249997
2.59423828125
1.8095214843749998
1.6822265625
1.6185791015625
1.8296630859374998
1.641943359375
1.67578125
1.5799072265624998
1.5799072265624998
1.5476806640624998
1.6322753906249998
1.5533203125
1.426025390625
3.0244628906249997
2.7126708984374996
2.038330078125
2.144677734375
1.8908935546874999
1.197216796875
0.022558593749999998
0.022558593749999998
0.022558593749999998
0.35288085937499997
0.51884765625
0.8531982421875
0.7242919921875
1.5025634765625
1.5895751953125
1.7861572265624999
1.844970703125
1.7587646484375
1.6773925781249999
1.699951171875
1.690283203125
0.022558593749999998
0.027392578124999997
1.168212890625
0.8121093749999999
1.3124267578125
2.109228515625
3.02607421875
3.0252685546875
3.0284912109374997
2.3074218749999997
1.9746826171874998
1.8441650390625
2.0117431640625
1.5122314453124999
1.674169921875
1.7265380859375
1.6846435546874998
1.6089111328124999
1.577490234375
1.6089111328124999
1.5525146484374999
3.0268798828124996
3.0244628906249997
2.0979492187499997
2.350927734375
2.112451171875
0.9812988281249999
0.022558593749999998
0.023364257812499997
0.023364257812499997
0.022558593749999998
0.2360595703125
0.517236328125
0.7097900390624999
1.0288330078124999
1.4630859374999998
1.7007568359374998
1.7893798828124998
1.7619873046874999
1.7128417968749998
1.6830322265625
1.6040771484374998
0.0217529296875
0.018530273437499998
0.024169921875
0.7597412109374999
1.1778808593749999
2.2711669921874997
3.02607421875
3.02607421875
3.0252685546875
2.4363281249999997
2.164013671875
1.8755859375
1.8111328125
1.899755859375
1.8199951171875
1.7821289062499999
1.7821289062499999
1.7619873046874999
1.7072021484375
1.738623046875
1.6556396484375
2.0520263671875
3.0228515624999996
2.3501220703125
2.0439697265625
2.2510253906249997
1.5146484375
0.12165527343749999
0.022558593749999998
0.023364257812499997
0.018530273437499998
0.31904296875
0.6566162109375
0.8668945312499999
0.90556640625
1.448583984375
1.6830322265625
1.7974365234374998
1.8232177734375
1.7426513671875
1.603271484375
1.5573486328125
1.0675048828125
0.0217529296875
0.024169921875
1.0578369140625
1.1996337890625
1.60166015625
2.9438964843749997
3.0228515624999996
3.029296875
2.52978515625
1.9062011718749998
1.6854492187499999
1.641943359375
1.7603759765625
1.6975341796874999
1.6556396484375
1.658056640625
1.6282470703124998
1.7088134765624998
1.638720703125
1.5911865234375
1.6129394531249999
3.027685546875
2.44599609375
2.0616943359374997
2.101171875
1.6475830078125
0.8032470703125
0.022558593749999998
0.0217529296875
0.027392578124999997
0.4125
0.668701171875
0.9796874999999999
0.8958984375
1.4961181640624999
1.6612792968749999
1.7104248046875
1.7458740234374999
1.6991455078125
1.7732666015624998
1.6910888671875
1.56943359375
0.023364257812499997
0.023364257812499997
1.384130859375
1.0932861328124999
1.6693359374999999
2.321923828125
3.0252685546875
3.0252685546875
2.6103515625
2.0439697265625
1.8046875
1.5057861328125
1.920703125
1.6854492187499999
1.770849609375
1.6459716796875
1.6153564453125
1.51787109375
1.6459716796875
1.6121337890624998
1.6435546875
3.0244628906249997
3.029296875
1.7579589843749999
1.996435546875
1.7901855468749999
0.839501953125
0.022558593749999998
0.0249755859375
0.027392578124999997
0.21269531249999998
0.5921630859375
1.0868408203125
1.0852294921874999
1.3897705078125
1.7176757812499999
1.8884765625
1.8465820312499999
1.7426513671875
1.7184814453125
1.6991455078125
1.5218994140625
0.0217529296875
0.022558593749999998
1.084423828125
1.119873046875
1.714453125
2.7134765625
3.02607421875
3.0268798828124996
3.0252685546875
1.9182861328124998
1.40830078125
1.5033691406249998
1.5557373046874998
1.7055908203124999
1.8417480468749998
1.75634765625
1.6653076171874999
1.3599609375
1.5355957031249998
1.7217041015624999
1.5702392578125
3.0244628906249997
3.0252685546875
1.7047851562499998
1.848193359375
1.6403320312499998
1.4888671875
0.020947265625
0.019335937499999997
0.022558593749999998
0.4326416015625
0.7694091796875
0.9490722656249999
1.255224609375
1.6105224609375
1.6218017578125
1.78857421875
1.7845458984375
1.577490234375
1.7120361328125
1.5444580078124999
1.5380126953125
0.018530273437499998
0.0217529296875
1.5347900390625
1.36962890625
1.5645996093749999
2.15595703125
3.0252685546875
3.0252685546875
3.0244628906249997
1.9746826171874998
1.6137451171875
1.397021484375
1.264892578125
1.4510009765624998
1.5396240234374998
1.4590576171874998
1.4655029296875
1.7007568359374998
1.6306640625
1.6121337890624998
1.6508056640625
1.5927978515624999
3.021240234375
1.832080078125
1.6411376953124999
1.8780029296874998
1.1093994140624999
0.40122070312499997
0.0217529296875
0.022558593749999998
0.023364257812499997
0.55107421875
1.0143310546875
1.2020507812499999
1.2769775390625
1.6693359374999999
1.8707519531249999
2.0197998046875
1.8111328125
1.803076171875
1.6290527343749999
1.55009765625
1.4252197265625
0.022558593749999998
1.1496826171874999
1.9956298828124999
1.8111328125
1.8264404296874999
2.5885986328125
3.0268798828124996
3.021240234375
2.006103515625
1.34384765625
1.0328613281249999
1.3873535156249999
1.56943359375
1.5597656249999998
1.65
1.5847412109374999
1.571044921875
1.5944091796875
1.5565429687499999
1.5001464843749999
1.496923828125
3.02607421875
2.5918212890624996
1.4655029296875
1.8546386718749999
1.525927734375
0.8507812499999999
0.023364257812499997
0.02578125
0.024169921875
0.591357421875
1.061865234375
1.4219970703125
1.281005859375
1.8256347656249998
1.6830322265625
1.8828369140624999
1.8925048828125
1.7611816406249998
1.622607421875
1.6532226562499999
1.6717529296875
0.018530273437499998
0.022558593749999998
2.276806640625
1.9634033203124999
1.7700439453124999
2.698974609375
3.0236572265625
3.0228515624999996
2.4161865234374997
1.3736572265625
1.1786865234375
1.1899658203124999
1.3575439453125
1.4848388671875
1.3470703124999999
1.4872558593749998
1.587158203125
1.6886718749999998
1.3462646484374998
1.513037109375
1.5267333984375
3.0244628906249997
3.0244628906249997
1.1859374999999999
1.7265380859375
1.276171875
0.6614501953124999
0.0249755859375
0.022558593749999998
0.017724609375
0.52529296875
1.134375
1.41796875
1.2262207031249999
1.8062988281249999
1.9762939453125
1.6314697265625
1.9376220703125
1.8312744140625
1.6653076171874999
1.538818359375
1.5573486328125
0.0201416015625
0.0217529296875
2.21396484375
1.9086181640625
1.9303710937499998
2.6095458984374997
3.0244628906249997
3.0244628906249997
2.7021972656249997
1.590380859375
1.3664062499999998
1.0892578124999999
1.3551269531249999
1.4920898437499999
1.4630859374999998
1.190771484375
1.6234130859375
1.3140380859374998
1.4977294921875
1.5243164062499999
1.4469726562499998
1.413134765625
3.0252685546875
1.6282470703124998
1.19560546875
1.5589599609375
0.6002197265625
0.167578125
0.017724609375
0.022558593749999998
0.43828124999999996
0.958740234375
1.3599609375
1.4074951171874999
1.4759765624999999
1.877197265625
1.8739746093749998
1.7926025390625
1.791796875
1.7845458984375
1.5984375
1.8095214843749998
0.023364257812499997
0.017724609375
2.08828125
2.18173828125
1.8425537109374999
2.376708984375
2.711865234375
3.0244628906249997
3.0268798828124996
1.7208984374999998
1.1835205078125
1.068310546875
1.1545166015625
1.4912841796874998
1.3656005859375
1.46953125
1.4993408203124998
1.490478515625
1.5057861328125
1.55009765625
1.47275390625
1.5162597656249999
3.01962890625
1.8538330078124998
1.3067871093749999
1.5517089843749998
1.3261230468749998
0.314208984375
0.023364257812499997
0.023364257812499997
0.022558593749999998
0.9571289062499999
1.24716796875
1.5412353515625
1.464697265625
1.85947265625
1.896533203125
1.7458740234374999
1.7249267578124998
1.8095214843749998
1.6645019531249998
1.6266357421875
1.5380126953125
0.023364257812499997
1.9078125
2.0794189453125
1.9029785156249999
1.93681640625
2.5072265624999996
3.0236572265625
3.0244628906249997
1.9698486328125
1.4300537109375
1.2286376953125
1.248779296875
1.416357421875
1.3994384765624999
1.3921875
1.480810546875
1.5057861328125
1.4783935546875
1.545263671875
1.5517089843749998
1.4638916015624999
3.029296875
2.1615966796875
1.4058837890625
1.6234130859375
1.4228027343749998
0.8854248046875
0.02578125
0.022558593749999998
0.0249755859375
0.6807861328125
1.0981201171875
1.4638916015624999
1.3019531249999998
1.7450683593749998
1.9013671875
1.8232177734375
1.7611816406249998
1.6781982421875
1.7072021484375
1.6967285156249998
1.6209960937499999
0.023364257812499997
0.2054443359375
2.0906982421875
1.7732666015624998
1.9400390625
2.591015625
3.021240234375
3.02607421875
2.3356201171874997
1.5799072265624998
1.2753662109375
1.19560546875
1.456640625
1.3261230468749998
1.50498046875
1.5033691406249998
1.5146484375
1.5267333984375
1.5412353515625
1.5347900390625
1.45341796875
3.0284912109374997
3.0268798828124996
1.46953125
1.50498046875
1.4413330078125
0.7959960937499999
0.027392578124999997
0.0169189453125
0.022558593749999998
0.3391845703125
0.9885498046875
1.34384765625
1.3929931640625
1.6250244140624999
1.815966796875
1.8199951171875
1.77890625
1.6814208984374999
1.7217041015624999
1.6540283203125
1.6000488281249998
0.027392578124999997
0.023364257812499997
2.1100341796874997
1.8538330078124998
1.828857421875
2.389599609375
3.0268798828124996
3.0228515624999996
3.0252685546875
1.6081054687499998
1.3349853515624999
1.2930908203125
1.3478759765625
1.429248046875
1.4880615234374999
1.4840332031249999
1.4872558593749998
1.5364013671874999
1.5766845703124999
1.5323730468749999
1.5001464843749999
1.4840332031249999
3.0252685546875
1.5073974609374998
1.3502929687499998
1.6451660156249999
0.8725341796874999
0.19255371093749998
0.0217529296875
0.0217529296875
0.2811767578125
0.8854248046875
1.224609375
1.4115234374999999
1.5605712890624999
1.8465820312499999
1.844970703125
1.75634765625
1.6967285156249998
1.6669189453125
1.6749755859375
1.61455078125
1.5428466796875
0.0217529296875
2.1003662109375
1.9086181640625
1.683837890625
2.257470703125
2.7046142578124996
3.0244628906249997
3.0268798828124996
1.9198974609375
1.4719482421874999
1.2592529296875
1.29228515625
1.4816162109375
1.4123291015625
1.4711425781249998
1.456640625
1.464697265625
1.5637939453124998
1.545263671875
1.5565429687499999
1.522705078125
3.02607421875
1.9424560546874998
1.5662109375
1.6532226562499999
1.40185546875
0.8789794921874999
0.026586914062499998
0.023364257812499997
0.0459228515625
0.733154296875
1.2125244140625
1.4107177734374998
1.316455078125
1.7595703125
1.851416015625
1.8151611328125
1.7619873046874999
1.6967285156249998
1.641943359375
1.611328125
1.5082031249999999
0.0217529296875
0.7436279296874999
2.2018798828125
1.7926025390625
1.880419921875
2.39765625
3.0252685546875
3.0204345703124997
2.1591796875
1.4107177734374998
1.2447509765625
1.2318603515625
1.4783935546875
1.4928955078125
1.5025634765625
1.4848388671875
1.5073974609374998
1.50498046875
1.5146484375
1.4880615234374999
1.4816162109375
3.0244628906249997
3.0244628906249997
1.5106201171875
1.6072998046875
1.45341796875
0.9240966796875
0.0217529296875
0.022558593749999998
0.0217529296875
0.6920654296875
1.0489746093749999
1.3108154296874999
1.2221923828124999
1.8014648437499998
1.8199951171875
1.812744140625
1.7724609375
1.69833984375
1.69189453125
1.6540283203125
1.5831298828125
0.0217529296875
0.8846191406249999
2.0947265625
1.7531249999999998
1.7265380859375
2.40087890625
3.02607421875
3.0252685546875
2.2099365234375
1.5863525390625
1.3502929687499998
1.3067871093749999
1.5162597656249999
1.397021484375
1.5323730468749999
1.4832275390624998
1.461474609375
1.5323730468749999
1.5597656249999998
1.5404296874999999
1.5283447265624999
3.0252685546875
3.0244628906249997
1.477587890625
1.4920898437499999
1.51787109375
0.752490234375
0.1168212890625
0.022558593749999998
0.020947265625
0.3746337890625
0.9289306640624999
1.30517578125
1.37607421875
1.5919921874999998
1.84013671875
1.843359375
1.7893798828124998
1.7265380859375
1.7104248046875
1.687060546875
1.6363037109374998
0.0217529296875
0.023364257812499997
2.370263671875
2.1438720703125
1.7893798828124998
2.4814453125
2.9318115234374997
3.0244628906249997
2.5273681640624996
1.5702392578125
1.2093017578125
1.1375976562499999
1.2769775390625
1.4655029296875
1.5138427734375
1.5154541015624998
1.4912841796874998
1.533984375
1.5492919921875
1.5355957031249998
1.48564453125
1.6234130859375
3.0228515624999996
1.6540283203125
1.377685546875
1.5492919921875
1.0771728515624999
0.159521484375
0.023364257812499997
0.026586914062499998
0.11923828125
0.9369873046874999
1.2673095703125
1.4767822265625
1.641943359375
1.8941162109374998
1.896533203125
1.8409423828125
1.7571533203124998
1.7023681640625
1.667724609375
1.61455078125
1.3494873046875
0.0201416015625
1.7265380859375
1.9867675781249998
1.7168701171874998
1.9529296875
2.753759765625
3.0301025390625
3.02607421875
1.7531249999999998
1.3398193359375
1.2576416015624998
1.3172607421875
1.5017578125
1.4574462890625
1.461474609375
1.4735595703125
1.4896728515625
1.5315673828124998
1.5194824218749998
1.506591796875
1.4671142578124998
3.0252685546875
1.7853515624999998
1.4848388671875
1.5243164062499999
1.2463623046874999
0.75732421875
0.023364257812499997
0.022558593749999998
0.1087646484375
0.8113037109375
1.1625732421875
1.4759765624999999
1.400244140625
1.8659179687499998
1.861083984375
1.8409423828125
1.7692382812499998
1.7184814453125
1.667724609375
1.641943359375
1.5460693359375
0.0249755859375
1.45341796875
2.2582763671875
1.9142578124999998
1.9013671875
2.2937255859375
3.02607421875
3.0252685546875
2.0898925781249997
1.3905761718749998
1.148876953125
1.2020507812499999
1.4880615234374999
1.5082031249999999
1.5073974609374998
1.4735595703125
1.477587890625
1.5323730468749999
1.545263671875
1.5017578125
1.490478515625
3.0252685546875
2.8391601562499997
1.2737548828124998
1.4783935546875
1.3913818359374999
0.6179443359375
0.022558593749999998
0.020947265625
0.0249755859375
0.58330078125
1.1947998046875
1.4687255859375
1.405078125
1.6846435546874998
1.9118408203125
1.8546386718749999
1.8006591796875
1.674169921875
1.62744140625
1.5976318359375
1.5637939453124998
0.023364257812499997
0.0201416015625
2.1978515625
1.9086181640625
1.9972412109375
2.5837646484374996
3.0268798828124996
3.0252685546875
2.466943359375
1.5525146484374999
1.2101074218749999
1.1537109374999999
1.3502929687499998
1.3180664062499998
1.4542236328125
1.47275390625
1.4364990234375
1.5114257812499998
1.4953124999999998
1.496923828125
1.47275390625
2.731201171875
3.02607421875
1.2906738281249999
1.4187744140624998
1.5347900390625
0.6896484374999999
0.0652587890625
0.0217529296875
0.0217529296875
0.47453613281249996
1.0127197265624999
1.3849365234375
1.593603515625
1.658056640625
1.8111328125
1.8498046874999998
1.8095214843749998
1.7619873046874999
1.7055908203124999
1.6765869140624998
1.6314697265625
0.022558593749999998
0.022558593749999998
2.225244140625
1.9529296875
1.76279296875
2.441162109375
2.8979736328124996
3.0204345703124997
2.6377441406249997
1.5984375
1.284228515625
1.184326171875
1.3237060546875
1.4268310546874998
1.4542236328125
1.4896728515625
1.5009521484375
1.46630859375
1.5073974609374998
1.5347900390625
1.4953124999999998
1.4655029296875
3.02607421875
1.5782958984375
1.4332763671875
1.5114257812499998
1.0812011718749999
0.5599365234375
0.02578125
0.018530273437499998
0.2102783203125
0.8918701171875
1.329345703125
1.4912841796874998
1.474365234375
1.7692382812499998
1.8457763671874998
1.80791015625
1.7571533203124998
1.7088134765624998
1.667724609375
1.6508056640625
0.9837158203124999
0.02578125
1.82080078125
2.0955322265625
1.7861572265624999
1.9400390625
2.296142578125
3.02607421875
3.0220458984375
1.9601806640625
1.4042724609375
1.2044677734375
1.2568359375
1.5138427734375
1.4574462890625
1.4953124999999998
1.4671142578124998
1.5017578125
1.5106201171875
1.50498046875
1.490478515625
1.4630859374999998
3.0301025390625
2.4814453125
1.5186767578125
1.5364013671874999
1.4187744140624998
0.66064453125
0.0217529296875
0.022558593749999998
0.0249755859375
0.878173828125
1.2423339843749999
1.5017578125
1.34384765625
1.80791015625
1.8546386718749999
1.843359375
1.75634765625
1.690283203125
1.6508056640625
1.6371093749999999
1.561376953125
0.0281982421875
0.3037353515625
2.1358154296875
1.740234375
1.89169921875
2.29453125
3.0252685546875
3.0252685546875
2.3581787109375
1.4461669921875
1.2423339843749999
1.229443359375
1.5090087890625
1.4671142578124998
1.4864501953125
1.4920898437499999
1.5114257812499998
1.5412353515625
1.49853515625
1.4912841796874998
1.461474609375
3.02607421875
2.689306640625
1.3237060546875
1.5428466796875
1.47275390625
0.736376953125
0.0217529296875
0.026586914062499998
0.02578125
0.5905517578125
1.052197265625
1.3607666015625
1.3470703124999999
1.706396484375
1.867529296875
1.8683349609375
1.7926025390625
1.7072021484375
1.6556396484375
1.6242187499999998
1.5573486328125
0.023364257812499997
0.022558593749999998
2.0471923828125
1.9118408203125
1.9392333984374999
2.5265625
2.9156982421874997
3.0228515624999996
2.5805419921875
1.6862548828125
1.3462646484374998
1.1786865234375
1.3220947265624998
1.4091064453125
1.4711425781249998
1.4735595703125
1.5057861328125
1.5154541015624998
1.53076171875
1.47275390625
1.4518066406249999
3.0236572265625
3.0268798828124996
1.529150390625
1.4574462890625
1.4268310546874998
1.058642578125
0.48984374999999997
0.024169921875
0.0217529296875
0.38510742187499997
1.0328613281249999
1.3204833984375
1.4550292968749998
1.5186767578125
1.8046875
1.8087158203125
1.7764892578125
1.7136474609374999
1.6798095703125
1.6693359374999999
1.6242187499999998
0.026586914062499998
0.019335937499999997
1.844970703125
1.7877685546875
1.6234130859375
2.0536376953124997
2.8367431640625
3.0236572265625
3.027685546875
1.9134521484375
1.3873535156249999
1.2979248046874998
1.332568359375
1.5057861328125
1.4655029296875
1.4783935546875
1.4880615234374999
1.4687255859375
1.5170654296875
1.5299560546875
1.5170654296875
1.4912841796874998
3.0284912109374997
1.619384765625
1.4461669921875
1.5919921874999998
1.1335693359374999
0.5567138671874999
0.027392578124999997
0.01611328125
0.2876220703125
0.961962890625
1.2906738281249999
1.4622802734375
1.45341796875
1.7692382812499998
1.8119384765625
1.740234375
1.6967285156249998
1.658056640625
1.6612792968749999
1.625830078125
1.5992431640625
0.022558593749999998
1.67578125
1.7208984374999998
1.5782958984375
1.883642578125
2.2880859375
3.0244628906249997
3.0268798828124996
2.05283203125
1.5799072265624998
1.3962158203125
1.3559326171875
1.53720703125
1.52109375
1.490478515625
1.4711425781249998
1.5146484375
1.5186767578125
1.513037109375
1.5114257812499998
1.4920898437499999
3.0228515624999996
2.4000732421874997
1.4091064453125
1.53076171875
1.4437499999999999
0.9394042968749999
0.0362548828125
0.020947265625
0.0539794921875
0.7275146484374999
1.1923828125
1.442138671875
1.2930908203125
1.6725585937499998
1.8199951171875
1.7595703125
1.732177734375
1.651611328125
1.67900390625
1.64677734375
1.5895751953125
0.020947265625
0.7903564453124999
1.844970703125
1.593603515625
1.7660156249999999
2.4000732421874997
3.0228515624999996
3.0244628906249997
2.44599609375
1.71123046875
1.3736572265625
1.332568359375
1.4759765624999999
1.5194824218749998
1.50498046875
1.5243164062499999
1.456640625
1.49853515625
1.5412353515625
1.5114257812499998
1.4840332031249999
3.0236572265625
3.0220458984375
1.3784912109374998
1.6201904296874998
1.4195800781249999
0.8660888671875
0.11037597656249999
0.018530273437499998
0.023364257812499997
0.6251953124999999
1.068310546875
1.3881591796875
1.409912109375
1.6588623046875
1.812744140625
1.7748779296875
1.754736328125
1.670947265625
1.662890625
1.6653076171874999
1.59521484375
0.018530273437499998
0.0217529296875
1.8715576171875
1.6250244140624999
1.6169677734374999
2.3710693359375
2.8037109375
3.0252685546875
3.0228515624999996
1.7289550781249998
1.4783935546875
1.3083984375
1.4558349609374999
1.4912841796874998
1.5082031249999999
1.49853515625
1.5009521484375
1.52109375
1.5323730468749999
1.5090087890625
1.5033691406249998
1.4912841796874998
3.0244628906249997
1.5799072265624998
1.3954101562499999
1.482421875
0.9128173828124999
0.4552001953125
0.0249755859375
0.027392578124999997
0.3714111328125
1.0119140625
1.264892578125
1.4364990234375
1.5194824218749998
1.7821289062499999
1.7901855468749999
1.7619873046874999
1.7128417968749998
1.6636962890625
1.65
1.603271484375
1.574267578125
0.022558593749999998
1.7668212890625
1.6927001953124998
1.603271484375
2.0165771484375
2.39443359375
3.027685546875
3.0284912109374997
1.96904296875
1.5645996093749999
1.3317626953125
1.3559326171875
1.5533203125
1.490478515625
1.5017578125
1.4671142578124998
1.5009521484375
1.5202880859374999
1.477587890625
1.5082031249999999
1.493701171875
3.02607421875
1.972265625
1.4848388671875
1.6081054687499998
1.4510009765624998
0.5969970703124999
0.018530273437499998
0.027392578124999997
0.10957031249999999
0.9313476562499999
1.2262207031249999
1.4437499999999999
1.3188720703124999
1.754736328125
1.803076171875
1.754736328125
1.690283203125
1.6886718749999998
1.6620849609375
1.6483886718749998
1.58232421875
0.020947265625
1.2157470703125
1.735400390625
1.5670166015625
1.75634765625
2.2647216796875
3.01962890625
3.027685546875
2.2341064453125
1.5275390624999998
1.380908203125
1.3728515625
1.5766845703124999
1.5186767578125
1.4945068359375
1.4993408203124998
1.4848388671875
1.5323730468749999
1.5444580078124999
1.496923828125
1.482421875
3.0284912109374997
2.180126953125
1.429248046875
1.611328125
1.4550292968749998
0.9345703125
0.023364257812499997
0.0217529296875
0.054785156249999994
0.7387939453125
1.1375976562499999
1.4010498046875
1.3180664062499998
1.7096191406249999
1.780517578125
1.7684326171875
1.7507080078125
1.6846435546874998
1.6636962890625
1.6169677734374999
1.571044921875
0.0217529296875
0.9732421874999999
1.912646484375
1.5799072265624998
1.7877685546875
2.3646240234375
2.860107421875
3.027685546875
2.286474609375
1.65
1.445361328125
1.3664062499999998
1.5162597656249999
1.4268310546874998
1.4816162109375
1.4759765624999999
1.4888671875
1.542041015625
1.5170654296875
1.4953124999999998
1.4832275390624998
3.02607421875
3.02607421875
1.4800048828124999
1.5919921874999998
1.4518066406249999
0.91845703125
0.4648681640625
0.0217529296875
0.023364257812499997
0.49951171875
1.13115234375
1.3954101562499999
1.4332763671875
1.5517089843749998
1.7829345703125
1.7660156249999999
1.7313720703125
1.6717529296875
1.6564453124999998
1.6153564453125
1.5734619140625
0.0217529296875
0.023364257812499997
1.844970703125
1.5911865234375
1.56298828125
2.125341796875
2.8149902343749997
3.02607421875
2.9664550781249996
1.9013671875
1.50498046875
