2.473388671875
2.3315917968749997
1.3913818359374999
0.3424072265625
0.023364257812499997
0.023364257812499997
0.0217529296875
0.18852539062499998
0.40927734374999997
0.5712158203125
0.8258056640625
1.2777832031249998
1.554931640625
1.5533203125
1.6443603515624998
1.66611328125
1.6508056640625
1.5637939453124998
0.1297119140625
0.0217529296875
0.6243896484375
0.8177490234375
0.9901611328125
1.8626953124999999
2.5692626953124997
3.029296875
3.027685546875
2.602294921875
2.3879882812499997
2.051220703125
1.9593749999999999
1.9706542968749998
1.8167724609375
1.770849609375
1.7370117187499998
1.6653076171874999
1.6443603515624998
1.6234130859375
1.5484863281249999
2.01416015625
3.01962890625
2.6917236328125
2.38154296875
2.715087890625
1.957763671875
1.0143310546875
0.0217529296875
0.023364257812499997
0.019335937499999997
0.214306640625
0.3552978515625
0.58974609375
0.6082763671875
1.2785888671874999
1.490478515625
1.5887695312499999
1.6725585937499998
1.66611328125
1.6556396484375
1.6081054687499998
0.7242919921875
0.024169921875
0.019335937499999997
0.7138183593749999
0.507568359375
1.1150390625
1.925537109375
3.02607421875
3.0252685546875
2.8069335937499997
2.260693359375
2.09150390625
1.9827392578124998
2.015771484375
1.864306640625
1.7764892578125
1.7595703125
1.69189453125
1.690283203125
1.6427490234375
1.6089111328124999
1.5726562499999999
3.0252685546875
2.8069335937499997
2.5273681640624996
2.6683593749999996
2.44921875
1.1206787109375
0.022558593749999998
0.022558593749999998
0.0249755859375
0.0966796875
0.2795654296875
0.5365722656249999
0.6179443359375
1.1794921875
1.27294921875
1.5509033203125
1.5404296874999999
1.6967285156249998
1.6685302734374998
1.7684326171875
1.6717529296875
0.024169921875
0.023364257812499997
1.1537109374999999
0.7742431640624999
1.1013427734374999
1.9150634765624999
3.0309082031249996
3.0268798828124996
2.7424804687499997
2.3517333984374997
2.17529296875
1.9625976562499998
2.1052001953125
1.9779052734375
1.8522216796875
1.719287109375
1.641943359375
1.6330810546874999
1.6403320312499998
1.6089111328124999
1.5541259765625
3.0309082031249996
3.0244628906249997
2.26875
2.624853515625
2.4532470703125
1.4219970703125
0.023364257812499997
0.024169921875
0.0217529296875
0.018530273437499998
0.214306640625
0.549462890625
0.456005859375
0.9531005859374999
1.3954101562499999
1.5057861328125
1.6435546875
1.6806152343749998
1.6685302734374998
1.6612792968749999
1.6056884765625
0.030615234374999998
0.019335937499999997
1.0433349609375
0.8588378906249999
1.0433349609375
2.05927734375
2.8157958984375
3.02607421875
3.0228515624999996
2.521728515625
2.1720703125
1.9674316406249999
1.9231201171874999
1.93359375
1.8006591796875
1.7450683593749998
1.6878662109375
1.651611328125
1.6298583984375
1.6177734375
1.542041015625
3.02607421875
3.0228515624999996
2.431494140625
2.6562744140624996
2.5821533203125
1.6234130859375
0.18369140625
0.01611328125
0.023364257812499997
0.023364257812499997
0.17644042968749998
0.427001953125
0.620361328125
0.9812988281249999
1.3704345703124998
1.5460693359375
1.6177734375
1.6363037109374998
1.6346923828125
1.658056640625
1.5976318359375
0.023364257812499997
0.022558593749999998
0.8499755859375
0.84111328125
0.6227783203124999
1.4558349609374999
2.6611083984375
3.02607421875
3.0252685546875
2.5370361328124997
2.24619140625
2.093115234375
1.9537353515625
1.9601806640625
1.799853515625
1.7233154296875
1.651611328125
1.6161621093749998
1.6379150390625
1.62744140625
1.5815185546875
1.5331787109375
3.0244628906249997
2.53623046875
2.328369140625
2.689306640625
1.783740234375
0.7726318359375
0.023364257812499997
0.023364257812499997
0.018530273437499998
0.153076171875
0.343212890625
0.620361328125
0.7146240234375
1.219775390625
1.4542236328125
1.6209960937499999
1.6427490234375
1.6725585937499998
1.67900390625
1.625830078125
1.5331787109375
0.02578125
0.022558593749999998
0.8934814453125
0.752490234375
1.4510009765624998
2.1180908203124997
3.0204345703124997
3.0220458984375
2.6917236328125
2.328369140625
2.1164794921875
1.893310546875
2.0496093749999997
1.88525390625
1.7853515624999998
1.706396484375
1.6749755859375
1.6693359374999999
1.625830078125
1.593603515625
1.545263671875
3.0220458984375
3.0220458984375
2.418603515625
2.6860839843749997
2.3952392578125
1.4783935546875
0.0217529296875
0.023364257812499997
0.019335937499999997
0.030615234374999998
0.359326171875
0.623583984375
0.5293212890625
1.2076904296875
1.4501953125
1.5678222656249998
1.6572509765624999
1.6282470703124998
1.6822265625
1.6645019531249998
1.5509033203125
0.0249755859375
0.022558593749999998
1.1778808593749999
0.7283203125
1.090869140625
2.02705078125
3.0220458984375
3.0244628906249997
3.0252685546875
2.418603515625
2.1535400390625
1.9440673828125
1.9730712890625
1.8844482421875
1.8054931640624998
1.7257324218749999
1.6346923828125
1.6322753906249998
1.6306640625
1.5927978515624999
1.5662109375
3.0228515624999996
3.0228515624999996
2.3009765625
2.6095458984374997
2.4194091796875
1.4510009765624998
0.023364257812499997
0.0217529296875
0.022558593749999998
0.0298095703125
0.26425781249999997
0.4890380859375
0.6098876953125
1.029638671875
1.4147460937499998
1.56943359375
1.7080078125
1.670947265625
1.638720703125
1.6403320312499998
1.5758789062499998
0.0169189453125
0.024169921875
1.1053710937499999
0.8628662109374999
0.8121093749999999
2.0343017578125
2.9463134765624996
3.02607421875
3.0284912109374997
2.450830078125
2.2260498046875
2.0343017578125
1.973876953125
1.9593749999999999
1.8409423828125
1.714453125
1.6371093749999999
1.6306640625
1.62744140625
1.59521484375
1.5484863281249999
1.5404296874999999
3.0236572265625
2.3211181640625
2.2711669921874997
2.4556640625
1.5114257812499998
0.555908203125
0.0281982421875
0.022558593749999998
0.023364257812499997
0.2199462890625
0.40122070312499997
0.59619140625
0.862060546875
1.2785888671874999
1.5380126953125
1.6298583984375
1.65
1.64677734375
1.641943359375
1.6322753906249998
1.5146484375
0.022558593749999998
0.1893310546875
0.8419189453125
0.7726318359375
1.6266357421875
2.3654296875
3.027685546875
3.0252685546875
2.5982666015625
2.338037109375
2.054443359375
1.9279541015625
2.0069091796875
1.8554443359375
1.780517578125
1.7080078125
1.651611328125
1.6604736328124998
1.6105224609375
1.5911865234375
1.522705078125
3.0252685546875
2.972900390625
2.2921142578125
2.737646484375
2.1978515625
1.3623779296874998
0.023364257812499997
0.0217529296875
0.023364257812499997
0.1812744140625
0.3714111328125
0.6179443359375
0.588134765625
1.2673095703125
1.4832275390624998
1.5831298828125
1.6572509765624999
1.6346923828125
1.6314697265625
1.6862548828125
1.5106201171875
0.022558593749999998
0.023364257812499997
0.8983154296875
0.710595703125
1.0127197265624999
1.915869140625
3.02607421875
3.029296875
3.0268798828124996
2.3477050781249997
2.128564453125
1.9327880859375
2.0246337890625
1.880419921875
1.7934082031249998
1.7088134765624998
1.667724609375
1.63388671875
1.6282470703124998
1.5968261718749999
1.5364013671874999
3.0244628906249997
3.0236572265625
2.4556640625
2.6304931640625
2.40732421875
1.4477783203124999
0.022558593749999998
0.027392578124999997
0.022558593749999998
0.0708984375
0.310986328125
0.5099853515625
0.48581542968749997
1.281005859375
1.4356933593749999
1.590380859375
1.662890625
1.6161621093749998
1.6346923828125
1.6435546875
1.55009765625
0.023364257812499997
0.023364257812499997
1.142431640625
0.7371826171875
0.994189453125
1.9513183593749999
3.01962890625
3.0220458984375
3.0268798828124996
2.4564697265624997
2.1825439453124997
1.9674316406249999
2.035107421875
1.796630859375
1.84013671875
1.735400390625
1.6540283203125
1.662890625
1.6282470703124998
1.60166015625
1.554931640625
3.02607421875
3.0236572265625
2.276806640625
2.4725830078124997
2.3396484374999997
1.3857421875
0.4068603515625
0.027392578124999997
0.022558593749999998
0.022558593749999998
0.22236328125
0.5309326171875
0.5849121093749999
0.928125
1.35673828125
1.5154541015624998
1.6282470703124998
1.6604736328124998
1.619384765625
1.6451660156249999
1.60166015625
0.022558593749999998
0.023364257812499997
0.7355712890624999
0.8822021484375
0.7984130859374999
1.8626953124999999
2.63291015625
3.027685546875
3.0236572265625
2.5483154296875
2.2324951171875
2.018994140625
1.9440673828125
1.9714599609374999
1.85947265625
1.7345947265625
1.6636962890625
1.674169921875
1.6330810546874999
1.6314697265625
1.5396240234374998
1.9545410156249998
3.0268798828124996
2.6772216796875
2.37509765625
2.6707763671875
1.9352050781249999
0.4922607421875
0.022558593749999998
0.02578125
0.024169921875
0.22236328125
0.38188476562499996
0.6324462890625
0.8483642578124999
1.3059814453124998
1.48564453125
1.5887695312499999
1.6290527343749999
1.6306640625
1.6403320312499998
1.6000488281249998
0.9337646484375
0.0217529296875
0.3391845703125
0.816943359375
0.6856201171874999
1.1214843749999999
2.5088378906249997
3.0301025390625
3.0236572265625
2.6039062499999996
2.3227294921875
2.1293701171875
2.0052978515624997
2.0133544921874997
1.8457763671874998
1.8135498046874998
1.6935058593749999
1.6290527343749999
1.6056884765625
1.6250244140624999
1.6048828124999999
1.5637939453124998
3.02607421875
2.8359375
2.5450927734374997
2.618408203125
2.02705078125
1.16015625
0.020947265625
0.0217529296875
0.027392578124999997
0.1426025390625
0.2827880859375
0.578466796875
0.6050537109374999
1.229443359375
1.4783935546875
1.5766845703124999
1.5863525390625
1.609716796875
1.6371093749999999
1.6346923828125
1.5331787109375
0.018530273437499998
0.022558593749999998
1.03447265625
0.7694091796875
1.0852294921874999
1.8256347656249998
3.0244628906249997
3.02607421875
3.0236572265625
2.44599609375
2.2131591796875
1.9698486328125
2.0737792968749997
1.9223144531249998
1.7982421874999999
1.7345947265625
1.6403320312499998
1.6483886718749998
1.6250244140624999
1.5984375
1.5654052734375
3.0252685546875
3.02607421875
2.2751953124999997
2.624853515625
2.450830078125
1.4526123046875
0.027392578124999997
0.022558593749999998
0.0217529296875
0.020947265625
0.2634521484375
0.50595703125
0.488232421875
0.958740234375
1.3873535156249999
1.5702392578125
1.6725585937499998
1.654833984375
1.651611328125
1.6612792968749999
1.5533203125
0.023364257812499997
0.027392578124999997
0.9313476562499999
0.7138183593749999
0.9547119140625
2.0109375
3.027685546875
3.0252685546875
3.0204345703124997
2.5330078124999997
2.1704589843749997
2.0044921875
1.998046875
1.85947265625
1.8175781249999998
1.7611816406249998
1.6403320312499998
1.658056640625
1.6330810546874999
1.6081054687499998
1.5662109375
3.02607421875
3.02607421875
2.2872802734374997
2.570068359375
2.5402587890625
1.44052734375
0.28842773437499997
0.0217529296875
0.023364257812499997
0.0217529296875
0.2054443359375
0.42539062499999997
0.4809814453125
0.9958007812499999
1.3591552734374999
1.52109375
1.606494140625
1.6129394531249999
1.6201904296874998
1.622607421875
1.5605712890624999
0.024169921875
0.023364257812499997
0.8161376953124999
0.8950927734374999
0.7081787109375
1.9327880859375
2.6683593749999996
3.02607421875
3.0252685546875
2.518505859375
2.289697265625
2.07216796875
1.896533203125
1.9569580078125
1.8538330078124998
1.7474853515625
1.6951171875
1.654833984375
1.6169677734374999
1.5944091796875
1.5734619140625
1.5275390624999998
3.0236572265625
2.5152832031249996
2.3557617187499997
2.5692626953124997
1.7531249999999998
0.8765624999999999
0.0217529296875
0.023364257812499997
0.022558593749999998
0.1780517578125
0.41572265625
0.59619140625
0.7065673828125
1.2028564453125
1.522705078125
1.5895751953125
1.6636962890625
1.6717529296875
1.6669189453125
1.638720703125
1.5460693359375
0.020947265625
0.017724609375
0.91201171875
0.7130126953125
1.3833251953124999
2.0665283203125
3.0309082031249996
3.0244628906249997
2.6748046875
2.3291748046875
2.1132568359375
1.944873046875
2.07216796875
1.8498046874999998
1.8119384765625
1.722509765625
1.6524169921874998
1.6330810546874999
1.6072998046875
1.593603515625
1.5396240234374998
3.02607421875
3.02607421875
2.450830078125
2.624853515625
2.389599609375
1.5025634765625
0.022558593749999998
0.0201416015625
0.022558593749999998
0.18449707031249998
0.32065429687499997
0.5486572265624999
0.3923583984375
1.1617675781249999
1.442138671875
1.5758789062499998
1.6451660156249999
1.6556396484375
1.6612792968749999
1.6427490234375
1.561376953125
0.024169921875
0.022558593749999998
0.958740234375
0.7968017578125
1.0868408203125
2.0415527343749997
3.027685546875
3.021240234375
3.027685546875
2.4097412109375
2.1922119140625
2.0101318359375
2.0761962890625
1.915869140625
1.812744140625
1.7370117187499998
1.625830078125
1.6411376953124999
1.6371093749999999
1.5984375
1.5364013671874999
3.021240234375
3.0244628906249997
2.350927734375
2.6079345703124996
2.410546875
1.522705078125
0.020947265625
0.023364257812499997
0.023364257812499997
0.023364257812499997
0.223974609375
0.47775878906249997
0.456005859375
1.0078857421875
1.3494873046875
1.5509033203125
1.6564453124999998
1.6282470703124998
1.6612792968749999
1.635498046875
1.5670166015625
0.024169921875
0.024169921875
0.97001953125
0.8016357421875
0.7194580078124999
2.0415527343749997
2.9455078125
3.0244628906249997
3.0220458984375
2.5160888671875
2.2751953124999997
2.0101318359375
1.9746826171874998
1.9231201171874999
1.85947265625
1.754736328125
1.67578125
1.65
1.6218017578125
1.619384765625
1.5621826171875
3.0228515624999996
3.0236572265625
2.33642578125
2.3162841796875
2.462109375
1.506591796875
0.5905517578125
0.0217529296875
0.019335937499999997
0.022558593749999998
0.18449707031249998
0.4890380859375
0.6268066406249999
0.8451416015625
1.3591552734374999
1.5114257812499998
1.5782958984375
1.6346923828125
1.61455078125
1.6411376953124999
1.6000488281249998
0.024169921875
0.018530273437499998
0.1353515625
0.9249023437499999
0.8765624999999999
1.667724609375
2.3839599609374997
3.0228515624999996
3.027685546875
2.6321044921874996
2.280029296875
2.07216796875
1.9674316406249999
2.05283203125
1.8409423828125
1.77890625
1.654833984375
1.6081054687499998
1.6137451171875
1.5654052734375
1.5637939453124998
1.5484863281249999
3.0244628906249997
2.985791015625
2.2598876953125
2.673193359375
2.1922119140625
0.6711181640624999
0.019335937499999997
0.01611328125
0.02900390625
0.18852539062499998
0.348046875
0.5937744140625
0.8354736328125
1.2665039062499999
1.48564453125
1.542041015625
1.6701416015625
1.6483886718749998
1.6475830078125
1.6306640625
1.5396240234374998
0.0249755859375
0.022558593749999998
0.9692138671874999
0.7806884765625
1.039306640625
2.238134765625
3.0220458984375
3.0244628906249997
2.6627197265625
2.305810546875
2.102783203125
1.93681640625
2.0375244140624997
1.848193359375
1.7909912109375
1.6798095703125
1.638720703125
1.6379150390625
1.5887695312499999
1.60166015625
1.542041015625
3.0252685546875
3.021240234375
2.4911132812499996
2.6159912109374996
2.2671386718749997
1.4244140625
0.02578125
0.0217529296875
0.030615234374999998
0.053173828124999996
0.270703125
0.6018310546875
0.4729248046875
1.2366943359375
1.3873535156249999
1.5927978515624999
1.6612792968749999
1.6298583984375
1.6314697265625
1.61455078125
1.5573486328125
0.0217529296875
0.014501953125
1.0965087890625
0.7315429687499999
1.0191650390625
1.9311767578124999
3.0244628906249997
3.0252685546875
3.02607421875
2.5088378906249997
2.238134765625
1.9827392578124998
2.0697509765624997
1.7668212890625
1.78857421875
1.7587646484375
1.6475830078125
1.6459716796875
1.6451660156249999
1.59521484375
1.5621826171875
3.02607421875
3.0244628906249997
2.2872802734374997
2.6707763671875
2.4282714843749997
1.4469726562499998
0.023364257812499997
0.023364257812499997
0.022558593749999998
0.022558593749999998
0.21914062499999998
0.44633789062499996
0.456005859375
0.8113037109375
1.3269287109374999
1.51787109375
1.5960205078124998
1.622607421875
1.658056640625
1.6540283203125
1.5919921874999998
0.018530273437499998
0.02578125
0.175634765625
0.6598388671875
0.7291259765625
1.7660156249999999
3.0284912109374997
3.0244628906249997
3.0236572265625
2.6240478515624996
2.33642578125
2.165625
2.0987548828125
1.8465820312499999
1.9102294921874998
1.8256347656249998
1.6749755859375
1.6645019531249998
1.638720703125
1.6234130859375
1.5686279296874999
1.972265625
3.0244628906249997
2.34931640625
2.425048828125
2.7166992187499996
1.4832275390624998
0.4640625
0.022558593749999998
0.0249755859375
0.027392578124999997
0.12810058593749998
0.28842773437499997
0.5220703125
0.813720703125
1.2366943359375
1.461474609375
1.6129394531249999
1.6363037109374998
1.6508056640625
1.6475830078125
1.6121337890624998
0.961962890625
0.024169921875
0.022558593749999998
0.7806884765625
0.684814453125
1.7200927734375
2.5515380859374996
3.02607421875
3.01962890625
2.640966796875
2.38154296875
2.1503173828124997
1.9432617187499999
2.0657226562499997
1.9110351562499999
1.799853515625
1.7555419921875
1.6854492187499999
1.6773925781249999
1.6669189453125
1.59521484375
1.5726562499999999
3.0252685546875
2.9720947265624997
2.5418701171875
2.7465087890624997
2.1035888671875
1.1939941406249999
0.023364257812499997
0.022558593749999998
0.022558593749999998
0.1232666015625
0.3520751953125
0.5687988281249999
0.5551025390625
1.1279296875
1.4606689453125
1.56943359375
1.625830078125
1.6379150390625
1.6306640625
1.6081054687499998
1.538818359375
0.024169921875
0.022558593749999998
0.91201171875
0.6114990234375
1.0650878906249999
1.7982421874999999
3.0220458984375
3.0244628906249997
3.0228515624999996
2.473388671875
2.131787109375
1.96904296875
2.1422607421874997
1.9400390625
1.8739746093749998
1.7764892578125
1.690283203125
1.6564453124999998
1.6290527343749999
1.5782958984375
1.5476806640624998
3.0236572265625
3.02607421875
2.4556640625
2.5708740234375
2.415380859375
1.3881591796875
0.023364257812499997
0.0217529296875
0.022558593749999998
0.11923828125
0.2827880859375
0.514013671875
0.47775878906249997
1.264892578125
1.4373046875
1.585546875
1.658056640625
1.6588623046875
1.69189453125
1.6725585937499998
1.577490234375
0.026586914062499998
0.022558593749999998
0.7774658203125
0.6227783203124999
1.0803955078125
2.1704589843749997
3.0268798828124996
3.0252685546875
3.0268798828124996
2.454052734375
2.1624023437499997
1.9843505859375
2.1390380859375
1.8747802734374999
1.8626953124999999
1.7797119140625
1.662890625
1.654833984375
1.6298583984375
1.6000488281249998
1.5734619140625
3.0268798828124996
3.0284912109374997
2.1632080078125
2.4322998046874997
2.4298828125
1.2721435546875
0.023364257812499997
0.017724609375
0.0169189453125
0.024169921875
0.2747314453125
0.5204589843749999
0.5478515625
1.0691162109374999
1.4638916015624999
1.69189453125
1.740234375
1.7418457031249999
1.7378173828124999
1.67900390625
1.6169677734374999
0.023364257812499997
0.024169921875
0.024169921875
0.7379882812499999
0.7541015624999999
2.109228515625
3.0252685546875
3.0301025390625
3.027685546875
2.5273681640624996
2.2026855468749997
1.9521240234375
1.9215087890625
1.9392333984374999
1.8280517578125
1.7684326171875
1.6725585937499998
1.6693359374999999
1.6363037109374998
1.6443603515624998
1.5984375
3.0309082031249996
3.0268798828124996
2.6772216796875
2.152734375
2.4911132812499996
1.5670166015625
0.5325439453124999
0.023364257812499997
0.02578125
0.0217529296875
0.3182373046875
0.5470458984375
0.7500732421874999
0.8282226562499999
1.4550292968749998
1.6411376953124999
1.72734375
1.7370117187499998
1.7233154296875
1.722509765625
1.6830322265625
0.024169921875
0.023364257812499997
0.023364257812499997
0.5325439453124999
0.7677978515624999
1.5476806640624998
2.3557617187499997
3.0228515624999996
3.0252685546875
2.98740234375
2.3477050781249997
2.0818359374999997
1.9343994140624998
2.1293701171875
1.8586669921874999
1.7684326171875
1.6886718749999998
1.5911865234375
1.6322753906249998
1.5968261718749999
1.5791015625
1.5106201171875
3.0228515624999996
3.0325195312499997
2.3396484374999997
2.6739990234374997
2.4290771484375
0.710595703125
0.024169921875
0.023364257812499997
0.024169921875
0.223974609375
0.34562988281249996
0.613916015625
0.6123046875
1.17626953125
1.4953124999999998
1.6177734375
1.7208984374999998
1.7466796875
1.7587646484375
1.7080078125
1.6153564453125
0.026586914062499998
0.0201416015625
0.022558593749999998
0.1611328125
0.6421142578125
2.0069091796875
3.0252685546875
3.0252685546875
3.029296875
2.785986328125
2.5531494140624997
2.3823486328125
2.4548583984375
2.2566650390625
2.070556640625
1.9142578124999998
1.78857421875
1.7635986328125
1.683837890625
1.6250244140624999
1.5476806640624998
3.0309082031249996
3.0268798828124996
3.0236572265625
3.0268798828124996
3.0228515624999996
1.9754882812499999
0.023364257812499997
0.0249755859375
0.0217529296875
0.019335937499999997
0.023364257812499997
0.0733154296875
0.022558593749999998
0.502734375
0.897509765625
1.2979248046874998
1.5025634765625
1.5331787109375
1.5984375
1.5879638671874998
1.5057861328125
0.0169189453125
0.0217529296875
0.023364257812499997
0.027392578124999997
0.019335937499999997
1.4550292968749998
2.9600097656249997
3.0244628906249997
3.0252685546875
3.0284912109374997
3.0252685546875
2.92939453125
3.0059326171875
2.7819580078125
2.6868896484375
2.5168945312499997
2.3565673828125
2.2614990234375
2.0729736328125
1.931982421875
1.8457763671874998
3.0228515624999996
3.0220458984375
3.0268798828124996
3.0236572265625
3.0252685546875
3.0244628906249997
2.112451171875
0.018530273437499998
0.0249755859375
0.023364257812499997
0.024169921875
0.023364257812499997
0.02578125
0.022558593749999998
0.023364257812499997
0.013696289062499999
0.024169921875
0.0298095703125
0.02578125
0.022558593749999998
0.022558593749999998
0.023364257812499997
0.02578125
0.022558593749999998
0.024169921875
0.0281982421875
0.0249755859375
0.0217529296875
0.017724609375
0.027392578124999997
0.023364257812499997
0.0169189453125
0.0217529296875
0.022558593749999998
0.4278076171875
1.0014404296875
1.3639892578125
1.63388671875
1.9988525390624998
2.228466796875
2.3017822265625
2.4677490234375
2.5386474609375
3.02607421875
3.02607421875
3.0228515624999996
3.029296875
3.0228515624999996
3.0252685546875
0.022558593749999998
0.026586914062499998
0.027392578124999997
0.023364257812499997
0.024169921875
0.023364257812499997
0.023364257812499997
0.022558593749999998
0.0249755859375
0.0249755859375
0.023364257812499997
0.0217529296875
0.022558593749999998
0.022558593749999998
0.023364257812499997
0.02578125
0.023364257812499997
0.023364257812499997
0.0201416015625
0.022558593749999998
0.023364257812499997
0.023364257812499997
0.017724609375
0.0169189453125
0.017724609375
0.0217529296875
0.02578125
0.022558593749999998
0.39638671875
0.87333984375
1.2544189453124999
1.4671142578124998
2.031884765625
2.29453125
2.486279296875
2.6361328124999996
3.0236572265625
3.0139892578125
3.0244628906249997
3.0268798828124996
3.0244628906249997
3.0244628906249997
0.6405029296875
0.018530273437499998
0.020947265625
0.023364257812499997
0.023364257812499997
0.022558593749999998
0.023364257812499997
0.019335937499999997
0.022558593749999998
0.022558593749999998
0.023364257812499997
0.023364257812499997
0.022558593749999998
0.023364257812499997
0.024169921875
0.0217529296875
0.019335937499999997
0.023364257812499997
0.0201416015625
0.0281982421875
0.022558593749999998
0.023364257812499997
0.024169921875
0.018530273437499998
0.0217529296875
0.018530273437499998
0.023364257812499997
0.022558593749999998
0.022558593749999998
0.4648681640625
0.8499755859375
1.24716796875
1.7450683593749998
2.0649169921875
2.408935546875
2.5958496093749996
3.0228515624999996
3.0244628906249997
3.0236572265625
3.0228515624999996
3.02607421875
3.0228515624999996
3.0252685546875
3.0244628906249997
0.017724609375
0.020947265625
0.0217529296875
0.023364257812499997
0.022558593749999998
0.022558593749999998
0.019335937499999997
0.0201416015625
0.023364257812499997
0.0201416015625
0.0749267578125
0.1554931640625
0.1345458984375
0.0281982421875
0.023364257812499997
0.022558593749999998
0.0217529296875
0.023364257812499997
0.019335937499999997
0.0249755859375
0.08620605468749999
0.15227050781249998
0.22316894531249998
0.298095703125
0.3520751953125
0.40524902343749997
0.47453613281249996
0.5244873046874999
1.04736328125
1.461474609375
1.88525390625
2.29453125
2.5644287109375
2.85849609375
2.94873046875
3.029296875
3.0309082031249996
3.0244628906249997
3.0236572265625
3.0244628906249997
3.0204345703124997
3.0236572265625
3.0244628906249997
2.963232421875
0.871728515625
0.026586914062499998
0.0217529296875
0.018530273437499998
0.024169921875
0.0217529296875
0.022558593749999998
0.0580078125
0.08056640625
0.1611328125
0.2360595703125
0.1812744140625
0.022558593749999998
0.02578125
0.022558593749999998
0.020947265625
0.0217529296875
0.0717041015625
0.143408203125
0.22075195312499998
0.285205078125
0.37382812499999996
0.43344726562499997
0.4890380859375
0.5551025390625
0.607470703125
1.264892578125
1.7877685546875
2.1470947265625
2.4298828125
2.7134765625
2.940673828125
3.021240234375
3.0244628906249997
3.0268798828124996
3.021240234375
3.029296875
3.021240234375
3.02607421875
3.0301025390625
3.0252685546875
3.0252685546875
1.432470703125
0.41411132812499996
0.026586914062499998
0.023364257812499997
0.0217529296875
0.02578125
0.026586914062499998
0.09748535156249999
0.064453125
0.111181640625
0.2505615234375
0.19094238281249998
0.022558593749999998
0.023364257812499997
0.0217529296875
0.026586914062499998
0.023364257812499997
0.02578125
0.08056640625
0.1611328125
0.2553955078125
0.31904296875
0.38591308593749996
0.4406982421875
0.514013671875
0.5712158203125
1.2109130859375
1.7410400390624998
2.080224609375
2.4339111328125
2.6401611328124996
2.8770263671875
3.0268798828124996
3.0252685546875
3.0252685546875
3.0228515624999996
3.0301025390625
3.0252685546875
3.0252685546875
3.02607421875
3.02607421875
3.0236572265625
1.4276367187499999
0.394775390625
0.023364257812499997
0.023364257812499997
0.022558593749999998
0.0169189453125
0.022558593749999998
0.0201416015625
0.022558593749999998
0.045117187499999996
0.11279296875
0.1393798828125
0.023364257812499997
0.022558593749999998
0.0249755859375
0.020947265625
0.024169921875
0.033032226562499996
0.1119873046875
0.1941650390625
0.2795654296875
0.348046875
0.41330566406249997
0.46728515625
0.5446289062499999
0.5905517578125
0.9007324218749999
1.4630859374999998
1.8336914062499998
2.0431640625
2.486279296875
2.6240478515624996
2.7948486328124997
2.9068359375
3.02607421875
3.0252685546875
3.0268798828124996
3.0252685546875
3.02607421875
3.0252685546875
3.0252685546875
3.0244628906249997
1.6975341796874999
0.58330078125
0.023364257812499997
0.023364257812499997
0.0201416015625
0.022558593749999998
0.0281982421875
0.022558593749999998
0.026586914062499998
0.022558593749999998
0.0733154296875
0.120849609375
0.049145507812499996
0.022558593749999998
0.020947265625
0.022558593749999998
0.046728515624999994
0.124072265625
0.1957763671875
0.2634521484375
0.3585205078125
0.423779296875
0.46970214843749997
0.5470458984375
0.6018310546875
0.6453369140624999
0.6912597656249999
0.7476562499999999
1.2374999999999998
1.429248046875
1.9617919921875
2.2276611328125
2.4548583984375
2.6047119140625
3.0252685546875
3.0244628906249997
3.0252685546875
3.0309082031249996
3.021240234375
3.0236572265625
3.0244628906249997
3.0244628906249997
2.4339111328125
0.5728271484374999
0.02578125
0.020947265625
0.023364257812499997
0.022558593749999998
0.023364257812499997
0.02578125
0.02578125
0.022558593749999998
0.023364257812499997
0.0733154296875
0.045117187499999996
0.019335937499999997
0.0475341796875
0.1200439453125
0.217529296875
0.291650390625
0.36174316406249996
0.42136230468749997
0.5003173828124999
0.554296875
0.60263671875
0.671923828125
0.7154296874999999
0.7621582031249999
0.8096923828125
1.126318359375
1.4816162109375
1.8022705078124999
2.2212158203125
2.4580810546875
2.7239501953125
2.792431640625
3.027685546875
3.0244628906249997
3.02607421875
3.0236572265625
3.0252685546875
3.0284912109374997
3.0252685546875
3.0228515624999996
3.0236572265625
0.8701171875
0.027392578124999997
0.019335937499999997
0.023364257812499997
0.022558593749999998
0.022558593749999998
0.022558593749999998
0.02578125
0.0281982421875
0.017724609375
0.018530273437499998
0.017724609375
0.0217529296875
0.022558593749999998
0.0652587890625
0.167578125
0.23928222656249998
0.30937499999999996
0.39719238281249997
0.46083984375
0.514013671875
0.565576171875
0.6372802734374999
0.6832031249999999
0.726708984375
1.55009765625
1.8828369140624999
2.2179931640625
2.528173828125
2.6296874999999997
2.8915283203124997
2.9447021484375
3.0244628906249997
3.0244628906249997
3.0252685546875
3.029296875
3.0236572265625
3.0244628906249997
3.0236572265625
3.0228515624999996
3.0220458984375
3.0228515624999996
1.5267333984375
0.18852539062499998
0.024169921875
0.022558593749999998
0.023364257812499997
0.024169921875
0.0217529296875
0.022558593749999998
0.0217529296875
0.023364257812499997
0.022558593749999998
0.024169921875
0.022558593749999998
0.023364257812499997
0.023364257812499997
0.017724609375
0.0249755859375
0.0749267578125
0.17724609375
0.2505615234375
0.3182373046875
0.40283203125
0.459228515625
0.514013671875
0.5712158203125
1.7942138671874999
2.3936279296875
2.3718749999999997
2.66513671875
2.866552734375
2.8995849609374997
3.0123779296874997
3.0236572265625
2.9994873046875
3.0252685546875
3.02607421875
3.0284912109374997
3.0236572265625
3.0252685546875
3.02607421875
3.0252685546875
3.0220458984375
2.0729736328125
0.5470458984375
0.024169921875
0.01611328125
0.017724609375
0.022558593749999998
0.0217529296875
0.022558593749999998
0.023364257812499997
0.020947265625
0.022558593749999998
0.022558593749999998
0.017724609375
0.024169921875
0.0217529296875
0.024169921875
0.024169921875
0.027392578124999997
0.0249755859375
0.07412109374999999
0.1506591796875
0.2457275390625
0.310986328125
0.3802734375
0.8386962890624999
1.5911865234375
1.9996582031249999
2.470166015625
2.698974609375
2.8311035156249997
3.01962890625
3.0309082031249996
3.0252685546875
3.0228515624999996
3.0284912109374997
3.0244628906249997
3.0309082031249996
3.0244628906249997
3.0284912109374997
3.021240234375
3.0220458984375
3.01962890625
3.0244628906249997
0.9047607421874999
0.023364257812499997
0.022558593749999998
0.022558593749999998
0.019335937499999997
0.022558593749999998
0.023364257812499997
0.020947265625
0.022558593749999998
0.022558593749999998
0.0217529296875
0.026586914062499998
0.022558593749999998
0.022558593749999998
0.024169921875
0.0169189453125
0.022558593749999998
0.037060546874999996
0.023364257812499997
0.0249755859375
0.11440429687499999
0.18852539062499998
0.26103515625
0.346435546875
1.1400146484375
1.9231201171874999
1.9658203125
2.45888671875
2.6200195312499996
2.7239501953125
2.8874999999999997
2.856884765625
2.8939453124999996
2.8794433593749997
3.0252685546875
3.0236572265625
3.0252685546875
3.0244628906249997
3.0301025390625
3.0204345703124997
3.0220458984375
3.0252685546875
1.6000488281249998
0.26022949218749997
0.018530273437499998
0.023364257812499997
0.024169921875
0.026586914062499998
0.022558593749999998
0.022558593749999998
0.022558593749999998
0.0217529296875
0.022558593749999998
0.02578125
0.0217529296875
0.023364257812499997
0.024169921875
0.0217529296875
0.023364257812499997
0.019335937499999997
0.023364257812499997
0.02578125
0.072509765625
0.149853515625
0.2183349609375
0.310986328125
1.0530029296874999
1.9762939453125
2.1454833984375
2.6176025390624997
2.7569824218749996
2.7730957031249996
3.0147949218749996
3.0228515624999996
3.0268798828124996
2.972900390625
3.0252685546875
3.0236572265625
3.02607421875
3.02607421875
3.027685546875
3.0236572265625
3.02607421875
3.027685546875
3.01962890625
0.32871093749999997
0.023364257812499997
0.018530273437499998
0.023364257812499997
0.023364257812499997
0.026586914062499998
0.023364257812499997
0.024169921875
0.0217529296875
0.022558593749999998
0.026586914062499998
0.023364257812499997
0.019335937499999997
0.0249755859375
0.022558593749999998
0.026586914062499998
0.027392578124999997
0.019335937499999997
0.0217529296875
0.022558593749999998
0.050756835937499994
0.1264892578125
0.22075195312499998
0.6646728515625
1.37607421875
1.4445556640625
2.3452880859375
2.5587890625
2.65869140625
2.91328125
2.963232421875
3.029296875
2.9712890625
3.0244628906249997
3.0268798828124996
3.02607421875
3.0252685546875
3.0228515624999996
3.0236572265625
3.0252685546875
3.0236572265625
3.0236572265625
0.8386962890624999
0.022558593749999998
0.0217529296875
0.022558593749999998
0.0201416015625
0.019335937499999997
0.022558593749999998
0.023364257812499997
0.022558593749999998
0.020947265625
0.027392578124999997
0.023364257812499997
0.0217529296875
0.022558593749999998
0.023364257812499997
0.0249755859375
0.0201416015625
0.022558593749999998
0.027392578124999997
0.023364257812499997
0.024169921875
0.08540039062499999
0.18691406249999998
0.25620117187499997
1.06669921875
1.8659179687499998
2.199462890625
2.4468017578125
2.5797363281249996
2.6876953125
2.8810546875
2.921337890625
2.921337890625
2.905224609375
3.0244628906249997
3.0325195312499997
3.029296875
3.0188232421874996
3.02607421875
3.0244628906249997
3.0236572265625
3.0252685546875
1.3075927734375
0.069287109375
0.026586914062499998
0.023364257812499997
0.022558593749999998
0.022558593749999998
0.019335937499999997
0.023364257812499997
0.022558593749999998
0.024169921875
0.02578125
0.022558593749999998
0.02578125
0.024169921875
0.01611328125
0.023364257812499997
0.023364257812499997
0.024169921875
0.0217529296875
0.022558593749999998
0.0281982421875
0.08056640625
0.18691406249999998
0.2553955078125
0.749267578125
1.9223144531249998
2.4202148437499997
2.4749999999999996
2.7142822265624997
2.8528564453125
2.8899169921874996
3.0010986328125
2.9882080078124997
2.9583984374999996
3.0244628906249997
3.02607421875
3.0268798828124996
3.0252685546875
3.02607421875
3.0301025390625
3.0244628906249997
3.0236572265625
2.022216796875
0.44230957031249996
0.022558593749999998
0.024169921875
0.02578125
0.023364257812499997
0.017724609375
0.02578125
0.022558593749999998
0.024169921875
0.023364257812499997
0.017724609375
0.023364257812499997
0.022558593749999998
0.024169921875
0.020947265625
0.018530273437499998
0.0217529296875
0.023364257812499997
0.022558593749999998
0.022558593749999998
0.069287109375
0.14501953125
0.21672363281249998
0.8846191406249999
1.7692382812499998
2.12373046875
2.52978515625
2.7626220703124997
2.8480224609375
3.01318359375
3.0244628906249997
3.0204345703124997
2.9865966796874996
2.8931396484375
3.029296875
3.0204345703124997
3.0252685546875
3.029296875
3.02607421875
3.0252685546875
3.0252685546875
3.0228515624999996
0.87978515625
0.022558593749999998
0.023364257812499997
0.02578125
0.019335937499999997
0.023364257812499997
0.024169921875
0.020947265625
0.02578125
0.022558593749999998
0.023364257812499997
0.0281982421875
0.024169921875
0.01611328125
0.019335937499999997
0.019335937499999997
0.022558593749999998
0.0217529296875
0.019335937499999997
0.022558593749999998
0.018530273437499998
0.064453125
0.1393798828125
0.6703125
1.2963134765625
1.9674316406249999
2.08828125
2.6377441406249997
2.7650390624999996
2.8190185546874997
2.9302001953124996
2.898779296875
2.9398681640624997
2.9181152343749996
3.01962890625
3.0236572265625
3.0244628906249997
3.0244628906249997
3.0244628906249997
3.027685546875
3.0220458984375
3.0284912109374997
1.4606689453125
0.2570068359375
0.019335937499999997
0.023364257812499997
0.023364257812499997
0.024169921875
0.019335937499999997
0.022558593749999998
0.0249755859375
0.0201416015625
0.0249755859375
0.022558593749999998
0.022558593749999998
0.022558593749999998
0.023364257812499997
0.017724609375
0.019335937499999997
0.0217529296875
0.019335937499999997
0.022558593749999998
0.020947265625
0.0314208984375
0.1007080078125
0.17080078124999998
0.8725341796874999
1.76279296875
1.574267578125
2.5201171875
2.6095458984374997
2.624853515625
2.9140869140624996
2.985791015625
2.9704833984374996
2.9334228515625
3.0252685546875
3.021240234375
3.0284912109374997
3.0236572265625
3.0204345703124997
3.0204345703124997
3.0236572265625
3.0252685546875
3.0252685546875
0.623583984375
0.0201416015625
0.0169189453125
0.026586914062499998
0.024169921875
0.02578125
0.0249755859375
0.023364257812499997
0.022558593749999998
0.023364257812499997
0.022558593749999998
0.022558593749999998
0.020947265625
0.022558593749999998
0.017724609375
0.024169921875
0.023364257812499997
0.0201416015625
0.0249755859375
0.0249755859375
0.0314208984375
0.10634765624999999
0.1957763671875
0.8773681640625
1.5170654296875
2.0254394531249997
2.4161865234374997
2.6039062499999996
2.6925292968749996
2.8915283203124997
2.9430908203125
3.0236572265625
2.9519531249999997
3.0236572265625
3.0309082031249996
3.01962890625
3.0236572265625
3.0236572265625
3.0244628906249997
3.0244628906249997
3.0228515624999996
3.029296875
1.2141357421874999
0.020947265625
0.023364257812499997
0.023364257812499997
0.026586914062499998
0.0217529296875
0.020947265625
0.022558593749999998
0.022558593749999998
0.022558593749999998
0.023364257812499997
0.022558593749999998
0.023364257812499997
0.0201416015625
0.019335937499999997
0.0217529296875
0.0249755859375
0.019335937499999997
0.0217529296875
0.023364257812499997
0.0249755859375
0.057202148437499996
0.159521484375
0.270703125
1.0006347656249999
1.8707519531249999
2.2405517578125
2.479833984375
2.63291015625
2.7223388671874997
2.9197265624999997
2.9737060546875
2.9906249999999996
2.9173095703125
3.0236572265625
3.027685546875
3.02607421875
3.0228515624999996
3.0236572265625
3.0228515624999996
3.0244628906249997
3.021240234375
1.4888671875
0.027392578124999997
0.02578125
0.022558593749999998
0.022558593749999998
0.022558593749999998
0.020947265625
0.022558593749999998
0.0169189453125
0.022558593749999998
0.017724609375
0.02578125
0.019335937499999997
0.020947265625
0.02578125
0.019335937499999997
0.0217529296875
0.022558593749999998
0.024169921875
0.019335937499999997
0.0281982421875
0.064453125
0.1619384765625
0.23525390624999998
0.6936767578124999
1.877197265625
2.4016845703125
2.3855712890625
2.634521484375
2.8069335937499997
2.9020019531249996
2.9849853515625
3.0099609375
2.9455078125
3.0284912109374997
3.01962890625
3.021240234375
3.021240234375
3.0252685546875
3.0244628906249997
3.0252685546875
3.0244628906249997
1.9182861328124998
0.388330078125
0.023364257812499997
0.022558593749999998
0.023364257812499997
0.0249755859375
0.0217529296875
0.02578125
0.023364257812499997
0.023364257812499997
0.022558593749999998
0.026586914062499998
0.024169921875
0.0281982421875
0.024169921875
0.023364257812499997
0.022558593749999998
0.022558593749999998
0.0249755859375
0.0217529296875
0.0249755859375
0.056396484375
0.15791015625
0.2296142578125
0.66064453125
1.5839355468749998
1.9996582031249999
2.4290771484375
2.6304931640625
2.7755126953125
2.98740234375
2.9737060546875
2.9753173828125
2.9680664062499997
2.882666015625
3.0188232421874996
3.0228515624999996
3.0244628906249997
3.0228515624999996
3.0268798828124996
3.0244628906249997
3.0252685546875
3.0244628906249997
0.9861328125
0.022558593749999998
0.019335937499999997
0.020947265625
0.0217529296875
0.024169921875
0.023364257812499997
0.022558593749999998
0.022558593749999998
0.022558593749999998
0.02578125
0.022558593749999998
0.0217529296875
0.019335937499999997
0.023364257812499997
0.024169921875
0.020947265625
0.023364257812499997
0.023364257812499997
0.024169921875
0.0322265625
0.10554199218749999
0.1796630859375
0.652587890625
1.4671142578124998
2.196240234375
2.2534423828125
2.6852783203125
2.8294921874999996
2.9060302734374996
3.0228515624999996
2.9825683593749996
3.0083496093749997
2.9189208984375
3.027685546875
3.0220458984375
3.0236572265625
3.027685546875
3.0220458984375
3.01962890625
3.01962890625
3.0236572265625
1.4058837890625
0.2199462890625
0.024169921875
0.0249755859375
0.026586914062499998
0.022558593749999998
0.024169921875
0.02578125
0.020947265625
0.02578125
0.0249755859375
0.023364257812499997
0.022558593749999998
0.0201416015625
0.022558593749999998
0.023364257812499997
0.02900390625
0.0217529296875
0.024169921875
0.026586914062499998
0.022558593749999998
0.024169921875
0.08942871093749999
0.16677246093749998
0.894287109375
1.764404296875
1.4123291015625
2.4548583984375
2.6441894531249996
2.624853515625
2.8931396484375
2.9737060546875
2.9422851562499996
2.874609375
3.02607421875
3.0204345703124997
3.02607421875
3.0236572265625
3.02607421875
3.02607421875
3.02607421875
3.0252685546875
3.0268798828124996
0.5728271484374999
0.022558593749999998
0.018530273437499998
0.023364257812499997
0.022558593749999998
0.024169921875
0.0201416015625
0.023364257812499997
0.018530273437499998
0.0169189453125
0.017724609375
0.023364257812499997
0.0217529296875
0.022558593749999998
0.023364257812499997
0.027392578124999997
0.024169921875
0.022558593749999998
0.022558593749999998
0.0201416015625
0.030615234374999998
0.10634765624999999
0.20302734374999998
0.862060546875
1.4622802734375
2.1213134765625
2.4854736328125
2.6917236328125
2.8270751953124997
2.9737060546875
3.027685546875
3.027685546875
2.9664550781249996
3.0188232421874996
3.0228515624999996
3.027685546875
3.0252685546875
3.0244628906249997
3.0252685546875
3.0268798828124996
3.02607421875
3.0236572265625
1.1367919921875
0.0249755859375
0.0249755859375
0.020947265625
0.020947265625
0.023364257812499997
0.023364257812499997
0.019335937499999997
0.023364257812499997
0.023364257812499997
0.023364257812499997
0.023364257812499997
0.020947265625
0.019335937499999997
0.022558593749999998
0.023364257812499997
0.023364257812499997
0.017724609375
0.022558593749999998
0.023364257812499997
0.0249755859375
0.0515625
0.15227050781249998
0.6630615234374999
1.1029541015625
2.0455810546874997
2.2872802734374997
2.592626953125
2.737646484375
2.76181640625
2.95517578125
2.9664550781249996
3.0252685546875
2.9140869140624996
3.0220458984375
3.0236572265625
3.0252685546875
3.0204345703124997
3.02607421875
3.02607421875
3.02607421875
3.0284912109374997
1.3978271484375
0.14501953125
0.018530273437499998
0.0201416015625
0.023364257812499997
0.018530273437499998
0.024169921875
0.0249755859375
0.024169921875
0.022558593749999998
0.023364257812499997
0.0201416015625
0.0217529296875
0.024169921875
0.022558593749999998
0.022558593749999998
0.020947265625
0.0217529296875
0.022558593749999998
0.0217529296875
0.022558593749999998
0.02578125
0.10231933593749999
0.17724609375
0.98291015625
2.13662109375
2.7658447265625
2.5966552734375
2.834326171875
3.0252685546875
3.0252685546875
3.0236572265625
3.0236572265625
2.9511474609375
3.0268798828124996
3.0188232421874996
3.0244628906249997
3.02607421875
3.0252685546875
3.0244628906249997
3.0228515624999996
3.01962890625
2.6200195312499996
0.6429199218749999
0.022558593749999998
0.0281982421875
0.0217529296875
0.019335937499999997
0.023364257812499997
0.024169921875
0.0217529296875
0.022558593749999998
0.026586914062499998
0.019335937499999997
0.022558593749999998
0.0217529296875
0.022558593749999998
0.023364257812499997
0.022558593749999998
0.024169921875
0.020947265625
0.023364257812499997
0.023364257812499997
0.018530273437499998
0.027392578124999997
0.07814941406249999
0.881396484375
1.7829345703125
2.1865722656249997
2.6055175781249997
2.7771240234374996
2.8415771484374996
3.0228515624999996
3.0236572265625
3.0236572265625
2.9583984374999996
2.8593017578124997
3.02607421875
3.0236572265625
3.027685546875
3.02607421875
3.0252685546875
3.027685546875
3.02607421875
3.02607421875
1.039306640625
0.023364257812499997
0.0217529296875
0.0169189453125
0.022558593749999998
0.023364257812499997
0.022558593749999998
0.02900390625
0.018530273437499998
0.0201416015625
0.0217529296875
0.026586914062499998
0.0217529296875
0.0217529296875
0.023364257812499997
0.0281982421875
0.023364257812499997
0.027392578124999997
0.027392578124999997
0.0249755859375
0.026586914062499998
0.0281982421875
0.020947265625
0.4874267578125
1.4228027343749998
2.135009765625
2.1615966796875
2.7811523437499996
2.866552734375
2.9422851562499996
3.0236572265625
2.969677734375
3.0236572265625
2.9664550781249996
3.0244628906249997
3.0252685546875
3.0252685546875
3.01962890625
3.02607421875
3.02607421875
3.0252685546875
3.0252685546875
1.5492919921875
0.472119140625
0.023364257812499997
0.017724609375
0.020947265625
0.022558593749999998
0.02900390625
0.022558593749999998
0.0201416015625
0.0217529296875
0.022558593749999998
0.023364257812499997
0.023364257812499997
0.022558593749999998
0.02578125
0.022558593749999998
0.022558593749999998
0.020947265625
0.017724609375
0.026586914062499998
0.022558593749999998
0.024169921875
0.0281982421875
0.02900390625
1.07958984375
1.993212890625
1.783740234375
2.5563720703125
2.6772216796875
2.744091796875
2.995458984375
3.027685546875
3.02607421875
3.0252685546875
3.02607421875
3.0244628906249997
3.02607421875
3.0252685546875
3.0284912109374997
3.0236572265625
3.0244628906249997
3.0252685546875
3.0244628906249997
0.8685058593749999
0.020947265625
0.02578125
0.0217529296875
0.022558593749999998
0.0201416015625
0.0201416015625
0.01611328125
0.018530273437499998
0.0217529296875
0.022558593749999998
0.0217529296875
0.02578125
0.022558593749999998
0.026586914062499998
0.020947265625
0.0169189453125
0.023364257812499997
0.023364257812499997
0.024169921875
0.02578125
0.022558593749999998
0.027392578124999997
0.9313476562499999
1.6685302734374998
2.3130615234375
2.711865234375
2.8560791015625
2.9640380859374997
3.02607421875
3.02607421875
3.02607421875
2.9197265624999997
3.0204345703124997
3.0268798828124996
3.02607421875
3.0244628906249997
3.027685546875
3.0268798828124996
3.018017578125
3.02607421875
3.0252685546875
1.3801025390625
0.023364257812499997
0.024169921875
0.0217529296875
0.020947265625
0.023364257812499997
0.019335937499999997
0.023364257812499997
0.019335937499999997
0.023364257812499997
0.02578125
0.026586914062499998
0.023364257812499997
0.022558593749999998
0.023364257812499997
0.0249755859375
0.019335937499999997
0.017724609375
0.023364257812499997
0.02900390625
0.023364257812499997
0.019335937499999997
0.0201416015625
0.5051513671875
0.9031494140624999
1.7893798828124998
2.0955322265625
2.4234375
2.650634765625
2.6965576171874996
2.9044189453125
2.985791015625
2.9882080078124997
2.9036132812499997
3.0220458984375
3.0204345703124997
3.02607421875
3.0244628906249997
3.0268798828124996
3.0284912109374997
3.02607421875
3.0252685546875
1.4501953125
0.17644042968749998
0.024169921875
0.0281982421875
0.02578125
0.023364257812499997
0.02900390625
0.0217529296875
0.022558593749999998
0.0217529296875
0.02578125
0.020947265625
0.022558593749999998
0.02578125
0.0217529296875
0.0217529296875
0.024169921875
0.022558593749999998
0.018530273437499998
0.023364257812499997
0.023364257812499997
0.015307617187499999
0.023364257812499997
0.07814941406249999
1.126318359375
2.6764160156249996
3.0244628906249997
3.0244628906249997
3.0252685546875
3.0252685546875
3.0244628906249997
3.0301025390625
3.0244628906249997
3.0252685546875
3.01962890625
3.0252685546875
3.027685546875
3.0244628906249997
3.0236572265625
3.02607421875
3.0244628906249997
3.0204345703124997
3.0252685546875
3.02607421875
3.0228515624999996
3.02607421875
3.02607421875
3.0236572265625
3.0252685546875
3.02607421875
3.02607421875
3.0244628906249997
3.0244628906249997
3.027685546875
3.0244628906249997
3.0244628906249997
2.7432861328125
3.0220458984375
3.0268798828124996
3.0244628906249997
3.0244628906249997
3.0284912109374997
3.02607421875
3.0236572265625
3.0252685546875
3.0252685546875
3.0252685546875
3.0244628906249997
3.0252685546875
3.027685546875
3.0284912109374997
3.0220458984375
3.02607421875
3.027685546875
3.0252685546875
3.027685546875
3.02607421875
3.0301025390625
3.02607421875
3.02607421875
3.0228515624999996
3.0220458984375
2.4435791015625
0.0201416015625
0.022558593749999998
0.0217529296875
0.9627685546875
1.9408447265625
2.3420654296875
2.7328124999999996
3.027685546875
3.0236572265625
3.021240234375
3.0317138671875
3.0204345703124997
3.0236572265625
2.9559814453124997
0.023364257812499997
0.019335937499999997
0.022558593749999998
0.5534912109375
0.942626953125
2.0536376953124997
3.0002929687499997
3.0252685546875
3.0236572265625
3.0268798828124996
2.7505371093749997
2.334814453125
1.9924072265625
1.931982421875
1.5323730468749999
1.2890625
1.1222900390625
1.026416015625
0.9555175781249999
0.8483642578124999
0.929736328125
0.8902587890625
3.0252685546875
3.02607421875
1.764404296875
1.9916015624999999
1.4147460937499998
0.022558593749999998
0.0249755859375
0.02578125
0.0217529296875
0.223974609375
0.21269531249999998
0.307763671875
0.4793701171875
0.897509765625
1.1923828125
1.2060791015624999
1.1939941406249999
1.094091796875
1.01513671875
0.9128173828124999
0.8443359374999999
0.022558593749999998
0.022558593749999998
1.5033691406249998
1.3873535156249999
1.5033691406249998
2.2502197265625
3.027685546875
3.029296875
2.5088378906249997
0.8564208984374999
0.3923583984375
0.32145996093749996
0.6815917968749999
0.7476562499999999
0.7943847656249999
0.839501953125
0.9079833984375
0.9329589843749999
0.9571289062499999
0.9176513671875
0.9402099609375
3.0268798828124996
1.9118408203125
0.8548095703124999
0.837890625
0.6630615234374999
0.0926513671875
0.023364257812499997
0.0217529296875
0.023364257812499997
0.6187499999999999
0.87978515625
1.0916748046875
0.8467529296874999
1.4800048828124999
1.393798828125
1.405078125
1.4058837890625
1.3269287109374999
1.3100097656249998
1.3059814453124998
1.21494140625
0.0217529296875
0.2908447265625
2.3984619140625
1.9505126953124998
1.812744140625
2.3968505859375
3.021240234375
3.029296875
1.8860595703124998
0.8910644531249999
0.55751953125
0.6840087890625
1.0320556640625
0.929736328125
1.2342773437499999
1.3043701171875
1.284228515625
1.3591552734374999
1.3309570312499999
1.3382080078124998
1.3502929687499998
3.0220458984375
3.0252685546875
1.0707275390625
1.0046630859374999
1.106982421875
0.41733398437499997
0.023364257812499997
0.023364257812499997
0.0217529296875
0.5841064453125
1.1690185546875
1.464697265625
1.4373046875
1.64677734375
1.7772949218749998
1.7426513671875
1.6846435546874998
1.6371093749999999
1.587158203125
1.525927734375
1.5202880859374999
0.022558593749999998
0.023364257812499997
2.4661376953125
2.2671386718749997
1.931982421875
2.386376953125
2.7424804687499997
3.0244628906249997
2.6240478515624996
1.345458984375
1.018359375
0.9627685546875
1.16337890625
1.4477783203124999
1.3792968749999999
1.3728515625
1.3921875
1.4655029296875
1.4598632812499999
1.4767822265625
1.4518066406249999
1.4791992187499998
3.02607421875
1.3752685546874999
1.052197265625
1.4252197265625
1.0433349609375
0.201416015625
0.0217529296875
0.0169189453125
0.3988037109375
1.2777832031249998
1.49853515625
1.6435546875
1.4945068359375
1.8183837890624999
1.7740722656249999
1.7208984374999998
1.6636962890625
1.6177734375
1.6363037109374998
1.611328125
1.53076171875
0.0169189453125
1.92392578125
2.04638671875
1.754736328125
1.8788085937499999
2.52978515625
3.0228515624999996
3.029296875
1.4800048828124999
1.094091796875
1.0376953125
1.1915771484375
1.4590576171874998
1.4816162109375
1.5146484375
1.4526123046875
1.4888671875
1.5073974609374998
1.509814453125
1.4655029296875
1.46953125
3.021240234375
1.4622802734375
1.2221923828124999
1.3607666015625
1.1931884765625
0.8104980468749999
0.023364257812499997
0.022558593749999998
0.4471435546875
1.1641845703125
1.4195800781249999
1.5911865234375
1.4316650390624999
1.8651123046875
1.8199951171875
1.732177734375
1.6564453124999998
1.6218017578125
1.6121337890624998
1.5968261718749999
1.5911865234375
0.022558593749999998
1.8409423828125
2.183349609375
1.7474853515625
1.8546386718749999
2.1615966796875
3.0284912109374997
3.0252685546875
1.8175781249999998
1.252001953125
1.1239013671875
1.2157470703125
1.4848388671875
1.4477783203124999
1.5235107421874998
1.52109375
1.4558349609374999
1.5154541015624998
1.490478515625
1.4558349609374999
1.4493896484375
3.029296875
2.4032958984375
1.0868408203125
1.4252197265625
1.3639892578125
0.7879394531249999
0.25458984375
0.024169921875
0.2698974609375
0.9240966796875
1.3849365234375
1.6048828124999999
1.47275390625
1.706396484375
1.7942138671874999
1.7096191406249999
1.67578125
1.6201904296874998
1.6161621093749998
1.6290527343749999
1.5718505859374998
0.024169921875
0.580078125
2.1100341796874997
1.7257324218749999
1.7901855468749999
2.360595703125
2.570068359375
3.02607421875
2.2993652343749997
1.4252197265625
1.2350830078125
1.2697265624999998
1.413134765625
1.4244140625
1.5146484375
1.5114257812499998
1.4888671875
1.53720703125
1.533984375
1.4945068359375
1.4953124999999998
2.6723876953124996
3.02607421875
1.1512939453125
1.3744628906249998
1.5082031249999999
1.01513671875
0.4229736328125
0.0217529296875
0.0515625
0.87978515625
1.33740234375
1.5509033203125
1.5726562499999999
1.6951171875
1.7740722656249999
1.738623046875
1.699951171875
1.64677734375
1.625830078125
1.622607421875
1.5726562499999999
0.3794677734375
0.022558593749999998
2.075390625
1.832080078125
1.6209960937499999
2.289697265625
2.5265625
3.027685546875
3.0236572265625
1.5170654296875
1.2697265624999998
1.297119140625
1.4389160156249998
1.558154296875
1.5235107421874998
1.5001464843749999
1.48564453125
1.456640625
1.4840332031249999
1.5170654296875
1.5057861328125
1.4912841796874998
3.0244628906249997
1.3704345703124998
1.2584472656249999
1.5315673828124998
1.09248046875
0.6767578125
0.0249755859375
0.0443115234375
0.594580078125
1.2318603515625
1.4590576171874998
1.5976318359375
1.5243164062499999
1.7499023437499999
1.7072021484375
1.6749755859375
1.6443603515624998
1.6072998046875
1.619384765625
1.6072998046875
1.5565429687499999
0.02900390625
1.8949218749999999
1.944873046875
1.6218017578125
1.8361083984375
2.128564453125
3.0220458984375
3.0236572265625
1.7909912109375
1.3591552734374999
1.313232421875
1.361572265625
1.5621826171875
1.4920898437499999
1.5484863281249999
1.5041748046874999
1.5025634765625
1.5090087890625
1.5009521484375
1.5106201171875
1.5106201171875
3.0268798828124996
1.9392333984374999
1.3180664062499998
1.4953124999999998
1.44052734375
0.992578125
0.019335937499999997
0.024169921875
0.32871093749999997
1.2181640624999999
1.458251953125
1.5702392578125
1.3857421875
1.751513671875
1.748291015625
1.6862548828125
1.638720703125
1.6129394531249999
1.6177734375
1.6089111328124999
1.554931640625
0.022558593749999998
1.119873046875
1.9231201171874999
1.6322753906249998
1.770849609375
2.07216796875
3.0252685546875
3.0252685546875
2.1825439453124997
1.3825195312499998
1.3059814453124998
1.3704345703124998
1.5992431640625
1.4832275390624998
1.53720703125
1.5170654296875
1.50498046875
1.52109375
1.5162597656249999
1.5162597656249999
1.4928955078125
3.02607421875
2.0890869140625
1.3059814453124998
1.5460693359375
1.464697265625
0.968408203125
0.38671875
0.027392578124999997
0.3544921875
1.023193359375
1.377685546875
1.4920898437499999
1.3784912109374998
1.6669189453125
1.7208984374999998
1.662890625
1.674169921875
1.6234130859375
1.6000488281249998
1.6056884765625
1.5597656249999998
0.022558593749999998
0.929736328125
1.9118408203125
1.6306640625
1.7418457031249999
2.263916015625
2.5201171875
3.0268798828124996
2.25263671875
1.53720703125
1.42119140625
1.3929931640625
1.5090087890625
1.5275390624999998
1.5380126953125
1.5001464843749999
1.5073974609374998
1.525927734375
1.5146484375
1.5122314453124999
1.4953124999999998
3.0236572265625
3.02607421875
1.4228027343749998
1.546875
1.4912841796874998
1.0111083984375
0.7226806640625
0.0217529296875
0.18449707031249998
0.7621582031249999
1.3317626953125
1.4953124999999998
1.490478515625
1.5396240234374998
1.722509765625
1.690283203125
1.6346923828125
1.5944091796875
1.603271484375
1.6129394531249999
1.5782958984375
0.022558593749999998
0.022558593749999998
1.8868652343749999
1.690283203125
1.5976318359375
1.9537353515625
2.463720703125
3.0228515624999996
2.8496337890624996
1.722509765625
1.397021484375
1.3688232421875
1.4896728515625
1.5670166015625
1.53720703125
1.5114257812499998
1.509814453125
1.5009521484375
1.5090087890625
1.5106201171875
1.4920898437499999
1.4928955078125
3.0228515624999996
1.4356933593749999
1.3446533203125
1.5992431640625
1.0530029296874999
0.765380859375
0.022558593749999998
0.08620605468749999
0.7234863281249999
1.27294921875
1.42119140625
1.4993408203124998
1.522705078125
1.7152587890625
1.6927001953124998
1.6443603515624998
1.6242187499999998
1.6000488281249998
1.6177734375
1.5863525390625
1.546875
0.023364257812499997
1.8457763671874998
1.7370117187499998
1.542041015625
1.9134521484375
2.1624023437499997
3.0252685546875
2.9398681640624997
1.799853515625
1.4550292968749998
1.3494873046875
1.4195800781249999
1.590380859375
1.5396240234374998
1.5525146484374999
1.5106201171875
1.5073974609374998
1.5186767578125
1.4993408203124998
1.5122314453124999
1.490478515625
3.0252685546875
1.7990478515625
1.445361328125
1.5863525390625
1.400244140625
1.0465576171875
0.058813476562499994
0.053173828124999996
0.410888671875
1.0916748046875
1.42119140625
1.53720703125
1.3744628906249998
1.7982421874999999
1.7152587890625
1.6645019531249998
1.6645019531249998
1.6250244140624999
1.6185791015625
1.6161621093749998
1.5815185546875
0.022558593749999998
1.3639892578125
1.9730712890625
1.6129394531249999
1.6927001953124998
2.13984375
3.0244628906249997
3.0220458984375
2.1245361328125
1.5138427734375
1.3752685546874999
1.3752685546874999
1.542041015625
1.4872558593749998
1.5025634765625
1.4993408203124998
1.496923828125
1.5186767578125
1.5315673828124998
1.5017578125
1.48564453125
3.021240234375
2.7779296875
1.3607666015625
1.561376953125
1.445361328125
1.02158203125
0.1998046875
0.023364257812499997
0.2360595703125
1.055419921875
1.3768798828125
1.5194824218749998
1.3543212890624998
1.7507080078125
1.6927001953124998
1.6886718749999998
1.662890625
1.6008544921874999
1.6129394531249999
1.6218017578125
1.5702392578125
0.0217529296875
0.1297119140625
1.8844482421875
1.6371093749999999
1.6137451171875
2.209130859375
2.6441894531249996
3.02607421875
2.11083984375
1.5025634765625
1.4300537109375
1.40830078125
1.5621826171875
1.4171630859375
1.513037109375
1.5396240234374998
1.5001464843749999
1.5396240234374998
1.4920898437499999
1.4912841796874998
1.4848388671875
1.6749755859375
2.9455078125
1.3672119140624999
1.4115234374999999
1.47275390625
0.9402099609375
0.6123046875
0.019335937499999997
0.1538818359375
0.8121093749999999
1.2947021484374999
1.482421875
1.46630859375
1.5750732421875
1.699951171875
1.690283203125
1.6564453124999998
1.6379150390625
1.6242187499999998
1.606494140625
1.5960205078124998
0.022558593749999998
0.049951171875
1.9658203125
1.72734375
1.5718505859374998
2.064111328125
2.3694580078125
3.029296875
2.5676513671874996
1.6564453124999998
1.3905761718749998
1.3720458984375
1.4816162109375
1.5557373046874998
1.5355957031249998
1.5412353515625
1.5017578125
1.506591796875
1.506591796875
1.5380126953125
1.53720703125
1.5146484375
3.0268798828124996
1.6209960937499999
1.3575439453125
1.5992431640625
1.2818115234374998
0.6574218749999999
0.023364257812499997
0.02578125
0.502734375
1.2987304687499999
1.45341796875
1.533984375
1.5807128906249999
1.74345703125
1.71123046875
1.6475830078125
1.6290527343749999
1.6105224609375
1.6129394531249999
1.5799072265624998
1.51787109375
0.022558593749999998
1.9029785156249999
1.7184814453125
1.5782958984375
1.7370117187499998
2.254248046875
3.0252685546875
3.0252685546875
1.7233154296875
1.4252197265625
1.36962890625
1.4268310546874998
1.5831298828125
1.5162597656249999
1.5347900390625
1.496923828125
1.4880615234374999
1.5267333984375
1.533984375
1.53076171875
1.4848388671875
3.0252685546875
1.687060546875
1.4397216796874999
1.5573486328125
1.3124267578125
0.9893554687499999
0.022558593749999998
0.024169921875
0.49064941406249996
1.1384033203125
1.384130859375
1.5404296874999999
1.43408203125
1.7370117187499998
1.7015624999999999
1.654833984375
1.6330810546874999
1.6242187499999998
1.6121337890624998
1.5944091796875
1.5565429687499999
0.0169189453125
1.5492919921875
1.9053955078125
1.5573486328125
1.6878662109375
2.0858642578124997
2.8593017578124997
3.027685546875
2.0294677734374997
1.522705078125
1.3962158203125
1.432470703125
1.5968261718749999
1.5057861328125
1.538818359375
1.5001464843749999
1.4759765624999999
1.5082031249999999
1.5017578125
1.4977294921875
1.4840332031249999
3.0236572265625
2.5031982421874996
1.3631835937499999
1.5492919921875
1.4510009765624998
0.9144287109375
0.022558593749999998
0.022558593749999998
0.240087890625
0.881396484375
1.3510986328124999
1.4920898437499999
1.400244140625
1.7660156249999999
1.7442626953125
1.7015624999999999
1.6798095703125
1.6411376953124999
1.6403320312499998
1.6185791015625
1.558154296875
0.023364257812499997
0.472119140625
1.867529296875
1.5887695312499999
1.6830322265625
2.2131591796875
2.7328124999999996
3.0244628906249997
2.4363281249999997
1.5251220703125
1.38896484375
1.4228027343749998
1.5170654296875
1.4429443359374998
1.50498046875
1.496923828125
1.4751708984374998
1.5315673828124998
1.5235107421874998
1.4872558593749998
1.4953124999999998
2.5273681640624996
3.0236572265625
1.3543212890624998
1.506591796875
1.5565429687499999
0.91845703125
0.515625
0.022558593749999998
0.064453125
0.8306396484374999
1.2584472656249999
1.4590576171874998
1.4219970703125
1.6201904296874998
1.735400390625
1.6846435546874998
1.658056640625
1.625830078125
1.59521484375
1.587158203125
1.5525146484374999
0.343212890625
0.339990234375
1.9279541015625
1.699951171875
1.5347900390625
2.176904296875
2.4403564453124997
3.027685546875
2.437939453125
1.65966796875
1.4316650390624999
1.3881591796875
1.4953124999999998
1.5589599609375
1.5412353515625
1.5170654296875
1.5073974609374998
1.50498046875
1.51787109375
1.53076171875
1.5114257812499998
2.07861328125
3.0268798828124996
1.56298828125
1.4228027343749998
1.5573486328125
1.168212890625
0.833056640625
0.022558593749999998
0.08217773437499999
0.562353515625
1.164990234375
1.4493896484375
1.5017578125
1.4953124999999998
1.72412109375
1.6935058593749999
1.6612792968749999
1.5992431640625
1.5960205078124998
1.6000488281249998
1.5791015625
0.990966796875
0.023364257812499997
1.687060546875
1.6927001953124998
1.571044921875
1.8046875
2.05927734375
3.02607421875
3.0244628906249997
1.9279541015625
1.4622802734375
1.4074951171874999
1.4364990234375
1.5654052734375
1.53076171875
1.53720703125
1.522705078125
1.5017578125
1.5146484375
1.509814453125
1.513037109375
1.4920898437499999
3.02607421875
1.6024658203125
1.4493896484375
1.6081054687499998
1.4630859374999998
0.8999267578125
0.024169921875
0.030615234374999998
0.562353515625
1.187548828125
1.3857421875
1.5017578125
1.4542236328125
1.72734375
1.6959228515625
1.6524169921874998
1.611328125
1.6153564453125
1.609716796875
1.5960205078124998
1.5541259765625
0.0217529296875
1.635498046875
1.7797119140625
1.593603515625
1.7555419921875
2.064111328125
3.027685546875
3.0244628906249997
1.957763671875
1.490478515625
1.416357421875
1.4413330078125
1.574267578125
1.477587890625
1.5001464843749999
1.4848388671875
1.4928955078125
1.5347900390625
1.52109375
1.5033691406249998
1.474365234375
3.0236572265625
2.1624023437499997
1.3801025390625
1.603271484375
1.4953124999999998
0.974853515625
0.3907470703125
0.030615234374999998
0.32468261718749997
0.9579345703125
1.4042724609375
1.5243164062499999
1.3744628906249998
1.6620849609375
1.7080078125
1.6717529296875
1.658056640625
1.609716796875
1.6056884765625
1.6000488281249998
1.5637939453124998
0.018530273437499998
0.8741455078125
1.8546386718749999
1.5428466796875
1.71123046875
2.21396484375
2.51044921875
3.02607421875
2.2824462890625
1.6137451171875
1.3986328124999998
1.4332763671875
1.5122314453124999
1.5073974609374998
1.533984375
1.5082031249999999
1.5017578125
1.5194824218749998
1.525927734375
1.53076171875
1.4880615234374999
3.027685546875
3.02607421875
1.3599609375
1.5847412109374999
1.51787109375
1.02802734375
0.4640625
0.024169921875
0.18046874999999998
0.961962890625
1.31162109375
1.477587890625
1.477587890625
1.6540283203125
1.6846435546874998
1.6620849609375
1.6475830078125
1.6089111328124999
1.6048828124999999
1.5887695312499999
1.558154296875
0.023364257812499997
0.022558593749999998
1.8199951171875
1.6491943359374999
1.5702392578125
2.196240234375
2.4604980468749997
3.029296875
2.85205078125
1.6604736328124998
1.4356933593749999
1.4026611328124998
1.4977294921875
1.5484863281249999
1.56943359375
1.5033691406249998
1.490478515625
1.5138427734375
1.509814453125
1.5041748046874999
1.4945068359375
1.48564453125
3.0268798828124996
1.4598632812499999
1.400244140625
1.5396240234374998
1.094091796875
0.7532958984375
0.022558593749999998
0.141796875
0.7218749999999999
1.2415283203124998
1.448583984375
1.46953125
1.525927734375
1.687060546875
1.6935058593749999
1.6564453124999998
1.6306640625
1.6129394531249999
1.5992431640625
1.6040771484374998
1.542041015625
0.0217529296875
1.7861572265624999
1.7023681640625
1.5347900390625
1.9150634765624999
2.18818359375
3.0268798828124996
2.9253662109375
1.84013671875
1.4912841796874998
1.4187744140624998
1.5090087890625
1.5984375
1.5202880859374999
1.4993408203124998
1.4848388671875
1.49853515625
1.509814453125
1.5122314453124999
1.509814453125
1.490478515625
3.0236572265625
1.8119384765625
1.3986328124999998
1.6048828124999999
1.4389160156249998
0.7935791015625
0.0217529296875
0.0475341796875
0.43747558593749997
1.2286376953125
1.4244140625
1.5428466796875
1.3446533203125
1.6765869140624998
1.667724609375
1.62744140625
1.658056640625
1.6403320312499998
1.6290527343749999
1.5847412109374999
1.5428466796875
0.0217529296875
1.41796875
1.7926025390625
1.571044921875
1.7289550781249998
2.1100341796874997
3.02607421875
2.995458984375
1.6653076171874999
1.4638916015624999
1.4477783203124999
1.456640625
1.6330810546874999
1.5686279296874999
1.5492919921875
1.50498046875
1.5041748046874999
1.5082031249999999
1.5146484375
1.4993408203124998
1.5082031249999999
3.0284912109374997
1.8820312499999998
1.4630859374999998
1.5911865234375
1.4791992187499998
1.09892578125
0.0217529296875
0.19658203124999998
0.40122070312499997
1.0610595703124999
1.368017578125
1.53720703125
1.3599609375
1.7257324218749999
1.6830322265625
1.66611328125
1.654833984375
1.6250244140624999
1.6081054687499998
1.5879638671874998
1.5533203125
0.022558593749999998
1.271337890625
1.8256347656249998
1.5517089843749998
1.7104248046875
2.14306640625
2.560400390625
3.0236572265625
2.0794189453125
1.574267578125
1.5194824218749998
1.46953125
1.5791015625
1.4429443359374998
1.522705078125
1.522705078125
1.4953124999999998
1.5033691406249998
1.5243164062499999
1.5041748046874999
1.477587890625
3.027685546875
2.860107421875
1.4276367187499999
1.5782958984375
1.4888671875
0.9716308593749999
0.2860107421875
0.1313232421875
0.2255859375
0.8258056640625
1.3494873046875
1.49853515625
1.448583984375
1.670947265625
1.67578125
1.6540283203125
1.6459716796875
1.6177734375
1.6048828124999999
1.60166015625
1.58232421875
0.02578125
0.1329345703125
1.883642578125
1.5605712890624999
1.587158203125
2.03671875
2.4967529296874997
3.02607421875
2.4629150390625
1.5791015625
1.4510009765624998
1.4413330078125
1.477587890625
1.480810546875
1.5557373046874998
1.5235107421874998
1.4888671875
1.5090087890625
1.5218994140625
1.52109375
1.5082031249999999
1.5718505859374998
3.0252685546875
1.4300537109375
1.4236083984374999
1.5887695312499999
0.98291015625
0.7218749999999999
0.022558593749999998
0.064453125
0.80888671875
1.2930908203125
1.4501953125
1.4961181640624999
1.5726562499999999
1.699951171875
1.654833984375
1.6379150390625
1.6266357421875
1.6209960937499999
1.59521484375
1.577490234375
1.3865478515624998
0.0346435546875
1.8900878906249998
1.7055908203124999
1.5645996093749999
2.00771484375
2.2131591796875
3.021240234375
2.5894042968749997
1.7257324218749999
1.4236083984374999
1.40185546875
1.4888671875
1.6371093749999999
1.5726562499999999
1.529150390625
1.522705078125
1.4920898437499999
1.4671142578124998
1.513037109375
1.5517089843749998
1.482421875
3.0252685546875
1.7281494140625
1.5476806640624998
1.5476806640624998
1.2399169921875
0.9958007812499999
0.023364257812499997
0.045117187499999996
0.5035400390625
1.1384033203125
1.4348876953124998
1.5621826171875
1.4437499999999999
1.73056640625
1.6927001953124998
1.6765869140624998
1.6524169921874998
1.603271484375
1.603271484375
1.59521484375
1.5114257812499998
0.017724609375
1.5960205078124998
1.66611328125
1.5436523437499998
1.6951171875
1.977099609375
3.021240234375
3.0027099609374996
1.8667236328124999
1.49853515625
1.4461669921875
1.5476806640624998
1.6427490234375
1.5243164062499999
1.5984375
1.432470703125
1.4679199218749999
1.53720703125
1.574267578125
1.5589599609375
1.5492919921875
3.0284912109374997
1.6443603515624998
1.2858398437499998
1.5114257812499998
1.6081054687499998
0.9740478515625
0.019335937499999997
0.1329345703125
0.5132080078125
1.152099609375
1.3954101562499999
1.4606689453125
1.3446533203125
1.7531249999999998
1.6693359374999999
1.60166015625
1.62744140625
1.674169921875
1.7015624999999999
1.6056884765625
1.4888671875
0.017724609375
1.585546875
1.9835449218749999
1.7023681640625
1.6717529296875
1.95615234375
2.89716796875
3.0252685546875
1.9029785156249999
1.5517089843749998
1.5186767578125
1.442138671875
1.4493896484375
1.493701171875
1.4961181640624999
1.480810546875
1.445361328125
1.6185791015625
1.5557373046874998
1.5597656249999998
1.513037109375
3.021240234375
