2.257470703125
2.1277587890625
1.9182861328124998
1.8844482421875
1.8216064453124998
1.7410400390624998
1.6886718749999998
3.027685546875
3.0252685546875
2.47822265625
2.900390625
2.8311035156249997
1.7128417968749998
0.1957763671875
0.022558593749999998
0.023364257812499997
0.024169921875
0.026586914062499998
0.1264892578125
0.23928222656249998
0.5567138671874999
0.8483642578124999
1.1577392578124999
1.3220947265624998
1.3639892578125
1.3978271484375
1.4920898437499999
1.4767822265625
0.024169921875
0.0217529296875
0.02578125
0.42861328125
0.48017578125
1.6234130859375
2.4749999999999996
3.027685546875
3.0244628906249997
2.8174072265624996
2.586181640625
2.389599609375
2.2614990234375
2.305810546875
2.2494140625
2.093115234375
1.9537353515625
1.8828369140624999
1.8248291015625
1.7797119140625
1.7208984374999998
3.0220458984375
3.0252685546875
2.785986328125
2.6522460937499996
2.92294921875
2.08828125
1.04736328125
0.02578125
0.019335937499999997
0.017724609375
0.0281982421875
0.17241210937499998
0.32871093749999997
0.3029296875
0.781494140625
0.9861328125
1.1915771484375
1.2802001953125
1.3720458984375
1.442138671875
1.4945068359375
0.017724609375
0.022558593749999998
0.024169921875
0.39799804687499996
0.44230957031249996
1.1319580078125
1.9408447265625
3.0228515624999996
3.0268798828124996
2.914892578125
2.69736328125
2.470166015625
2.3662353515625
2.457275390625
2.286474609375
2.1849609375
2.0181884765625
1.8820312499999998
1.8747802734374999
1.7982421874999999
1.732177734375
1.65966796875
3.027685546875
3.0252685546875
2.6739990234374997
2.9326171875
2.6876953125
1.1899658203124999
0.0217529296875
0.022558593749999998
0.0249755859375
0.024169921875
0.0523681640625
0.270703125
0.0845947265625
0.700927734375
0.966796875
1.187548828125
1.3422363281249998
1.3849365234375
1.3382080078124998
1.4920898437499999
1.43408203125
0.022558593749999998
0.023364257812499997
0.6187499999999999
0.6163330078125
0.8677001953125
1.8046875
3.02607421875
3.0204345703124997
3.021240234375
2.6361328124999996
2.5354248046874996
2.3195068359374997
2.4121582031249997
2.3162841796875
2.2365234375
2.0197998046875
1.9343994140624998
1.8731689453125
1.8038818359375
1.722509765625
1.6693359374999999
3.0268798828124996
3.0220458984375
2.6723876953124996
2.9672607421875
2.7239501953125
1.8022705078124999
0.023364257812499997
0.022558593749999998
0.024169921875
0.023364257812499997
0.023364257812499997
0.2553955078125
0.0362548828125
0.5599365234375
0.7903564453124999
1.1738525390624999
1.3639892578125
1.3728515625
1.45341796875
1.51787109375
1.4767822265625
0.023364257812499997
0.026586914062499998
0.459228515625
0.420556640625
0.7404052734375
1.6725585937499998
2.8754150390624997
3.02607421875
3.0236572265625
2.7408691406249996
2.6176025390624997
2.354150390625
2.3614013671875
2.2083251953125
2.2324951171875
2.0713623046875
1.9062011718749998
1.8884765625
1.8312744140625
1.74345703125
1.6935058593749999
3.029296875
3.0252685546875
2.5579833984375
2.9672607421875
2.7585937499999997
1.7877685546875
0.7210693359375
0.02578125
0.0201416015625
0.017724609375
0.0362548828125
0.17644042968749998
0.2457275390625
0.4036376953125
0.8822021484375
1.1158447265625
1.268115234375
1.3543212890624998
1.4203857421875
1.4832275390624998
1.47275390625
0.026586914062499998
0.026586914062499998
0.023364257812499997
0.4809814453125
0.5124023437499999
1.3059814453124998
2.22041015625
3.0220458984375
3.0204345703124997
2.9197265624999997
2.60712890625
2.4403564453124997
2.2921142578125
2.2937255859375
2.2953369140624997
2.1333984375
1.9875732421874999
1.915869140625
1.8264404296874999
1.79501953125
1.6991455078125
1.690283203125
3.02607421875
2.642578125
2.6844726562499996
2.9495361328125
2.408935546875
0.9087890624999999
0.020947265625
0.022558593749999998
0.017724609375
0.017724609375
0.11359863281249999
0.28439941406249997
0.451171875
0.7621582031249999
0.9998291015624999
1.2866455078124999
1.3946044921874998
1.409912109375
1.4832275390624998
1.4945068359375
1.2785888671874999
0.020947265625
0.022558593749999998
0.5518798828125
0.4922607421875
0.7645751953125
2.1438720703125
3.0244628906249997
3.0252685546875
2.9463134765624996
2.6562744140624996
2.5112548828124996
2.26552734375
2.3525390625
2.215576171875
2.1849609375
1.93681640625
1.8788085937499999
1.869140625
1.786962890625
1.7200927734375
1.66611328125
3.0268798828124996
3.02607421875
2.8125732421875
2.9140869140624996
2.50400390625
1.571044921875
0.02578125
0.022558593749999998
0.018530273437499998
0.019335937499999997
0.058813476562499994
0.26748046875
0.1264892578125
0.7436279296874999
1.00224609375
1.2060791015624999
1.3148437499999999
1.3664062499999998
1.48564453125
1.5218994140625
1.4687255859375
0.026586914062499998
0.023364257812499997
0.77666015625
0.451171875
0.749267578125
1.4953124999999998
3.029296875
3.027685546875
3.02607421875
2.7166992187499996
2.5475097656249996
2.338037109375
2.4121582031249997
2.260693359375
2.21396484375
2.04638671875
1.9134521484375
1.8884765625
1.786962890625
1.71123046875
1.6451660156249999
3.021240234375
3.0252685546875
2.4886962890624997
2.9624267578124996
2.7392578125
1.7096191406249999
0.026586914062499998
0.022558593749999998
0.0217529296875
0.0217529296875
0.0668701171875
0.22478027343749998
0.19497070312499998
0.825
0.9007324218749999
1.1384033203125
1.3382080078124998
1.4115234374999999
1.4501953125
1.480810546875
1.456640625
0.023364257812499997
0.023364257812499997
0.12246093749999999
0.44956054687499997
0.6952880859374999
1.6612792968749999
3.0268798828124996
3.0252685546875
3.0301025390625
2.7126708984374996
2.550732421875
2.4145751953125
2.2937255859375
2.193017578125
2.2002685546875
2.0665283203125
1.85625
1.8473876953125
1.8071044921875
1.7394287109375
1.6749755859375
3.0244628906249997
3.0228515624999996
2.53623046875
2.9011962890625
2.8456054687499996
1.7579589843749999
0.5607421874999999
0.0217529296875
0.023364257812499997
0.024169921875
0.02578125
0.15146484375
0.175634765625
0.5422119140625
0.8564208984374999
1.126318359375
1.2640869140625
1.3583496093749998
1.4244140625
1.4864501953125
1.4759765624999999
0.022558593749999998
0.023364257812499997
0.0604248046875
0.42861328125
0.5115966796875
1.6773925781249999
2.4322998046874997
3.0309082031249996
3.0268798828124996
2.802099609375
2.6272705078125
2.4451904296875
2.29453125
2.2550537109374997
2.2115478515625
2.077001953125
1.944873046875
1.9182861328124998
1.7942138671874999
1.7555419921875
1.7047851562499998
1.6451660156249999
3.029296875
2.8286865234375
2.6901123046874997
2.9261718749999996
2.0689453125
1.094091796875
0.018530273437499998
0.018530273437499998
0.022558593749999998
0.0217529296875
0.1571044921875
0.32145996093749996
0.33515625
0.7822998046874999
1.06669921875
1.287451171875
1.3857421875
1.4147460937499998
1.4888671875
1.4953124999999998
0.022558593749999998
0.0217529296875
0.024169921875
0.5712158203125
0.4519775390625
1.0626708984375
1.883642578125
3.0244628906249997
3.02607421875
3.0244628906249997
2.6876953125
2.4548583984375
2.26875
2.3525390625
2.2171875
2.1205078125
1.960986328125
1.8336914062499998
1.8296630859374998
1.783740234375
1.7072021484375
1.65
3.0244628906249997
3.027685546875
2.7183105468749997
2.9100585937499996
2.6200195312499996
1.2254150390625
0.024169921875
0.027392578124999997
0.020947265625
0.022558593749999998
0.12246093749999999
0.2698974609375
0.1152099609375
0.708984375
0.990966796875
1.2052734375
1.377685546875
1.416357421875
1.47275390625
1.5138427734375
1.43408203125
0.022558593749999998
0.022558593749999998
0.607470703125
0.51884765625
0.7839111328124999
1.703173828125
3.0309082031249996
3.0252685546875
3.0268798828124996
2.6949462890625
2.4403564453124997
2.3178955078125
2.3726806640625
2.2792236328124997
2.1946289062499997
1.998046875
1.8828369140624999
1.828857421875
1.7700439453124999
1.6798095703125
1.662890625
3.0244628906249997
3.0268798828124996
2.657080078125
2.9753173828125
2.65869140625
1.796630859375
0.019335937499999997
0.0217529296875
0.0217529296875
0.0217529296875
0.02900390625
0.18449707031249998
0.159521484375
0.6952880859374999
0.88623046875
1.2286376953125
1.364794921875
1.3720458984375
1.4437499999999999
1.50498046875
1.4469726562499998
0.024169921875
0.0217529296875
0.6276123046875
0.38913574218749997
0.8403076171874999
1.77568359375
2.8311035156249997
3.02607421875
3.027685546875
2.7392578125
2.5467041015625
2.358984375
2.30419921875
2.1076171875
2.144677734375
2.0375244140624997
1.896533203125
1.88525390625
1.76279296875
1.7072021484375
1.6733642578124999
3.02607421875
3.0228515624999996
2.570068359375
2.9962646484374997
2.72314453125
1.783740234375
0.8274169921875
0.023364257812499997
0.026586914062499998
0.022558593749999998
0.0539794921875
0.2280029296875
0.3117919921875
0.49467773437499996
0.889453125
1.1384033203125
1.3019531249999998
1.4074951171874999
1.458251953125
1.5033691406249998
1.4840332031249999
0.018530273437499998
0.022558593749999998
0.022558593749999998
0.4568115234375
0.5615478515625
1.4469726562499998
2.358984375
3.0325195312499997
3.0228515624999996
2.9358398437499997
2.5934326171874997
2.350927734375
2.2357177734375
2.1922119140625
2.21396484375
2.0955322265625
1.9182861328124998
1.8578613281249998
1.8232177734375
1.7265380859375
1.6653076171874999
1.638720703125
3.0083496093749997
2.650634765625
2.6852783203125
2.969677734375
2.29453125
0.849169921875
0.023364257812499997
0.0217529296875
0.0169189453125
0.0523681640625
0.1071533203125
0.32145996093749996
0.4922607421875
0.8274169921875
1.02802734375
1.284228515625
1.4139404296875
1.4042724609375
1.47275390625
1.5170654296875
1.332568359375
0.018530273437499998
0.02578125
0.578466796875
0.49951171875
0.8113037109375
2.244580078125
3.0301025390625
3.0188232421874996
3.0091552734375
2.634521484375
2.470166015625
2.27841796875
2.3098388671875
2.21396484375
2.1567626953125
1.9513183593749999
1.803076171875
1.8054931640624998
1.7168701171874998
1.6483886718749998
1.641943359375
3.0252685546875
3.0236572265625
2.7851806640624996
2.882666015625
2.3235351562499997
1.5299560546875
0.022558593749999998
0.026586914062499998
0.023364257812499997
0.018530273437499998
0.0378662109375
0.314208984375
0.24089355468749998
0.7726318359375
1.03125
1.255224609375
1.38896484375
1.4389160156249998
1.5033691406249998
1.5428466796875
1.4912841796874998
0.022558593749999998
0.0249755859375
0.8040527343749999
0.5115966796875
0.7677978515624999
1.5283447265624999
3.0244628906249997
3.0244628906249997
3.0228515624999996
2.7271728515625
2.4814453125
2.2953369140624997
2.3533447265625
2.1728759765625
2.109228515625
1.9754882812499999
1.8498046874999998
1.7853515624999998
1.7499023437499999
1.6669189453125
1.6185791015625
3.0228515624999996
3.0268798828124996
2.5450927734374997
2.963232421875
2.6377441406249997
1.606494140625
0.023364257812499997
0.022558593749999998
0.0249755859375
0.022558593749999998
0.0990966796875
0.270703125
0.25458984375
0.8362792968749999
0.9974121093749999
1.206884765625
1.3075927734375
1.4195800781249999
1.474365234375
1.5162597656249999
1.4864501953125
0.0281982421875
0.0249755859375
0.3343505859375
0.533349609375
0.7959960937499999
1.6524169921874998
3.0204345703124997
3.0252685546875
3.0301025390625
2.6965576171874996
2.4596923828125
2.3050048828125
2.199462890625
2.1084228515625
2.1567626953125
2.0165771484375
1.835302734375
1.8296630859374998
1.7660156249999999
1.6636962890625
1.6048828124999999
3.0244628906249997
3.0268798828124996
2.463720703125
2.7650390624999996
2.745703125
1.5831298828125
0.507568359375
0.022558593749999998
0.024169921875
0.022558593749999998
0.0910400390625
0.24169921875
0.30454101562499997
0.6388916015624999
0.94423828125
1.24716796875
1.3857421875
1.4042724609375
1.4461669921875
1.545263671875
1.5073974609374998
0.02900390625
0.027392578124999997
0.314208984375
0.6582275390625
0.6187499999999999
1.7249267578124998
2.5676513671874996
3.0228515624999996
3.0252685546875
2.719921875
2.5144775390625
2.3082275390625
2.1599853515625
2.1406494140625
2.101171875
1.9384277343749998
1.8457763671874998
1.7740722656249999
1.7684326171875
1.6781982421875
1.6435546875
1.5968261718749999
3.0236572265625
2.70703125
2.5708740234375
2.785986328125
1.957763671875
0.994189453125
0.022558593749999998
0.022558593749999998
0.022558593749999998
0.061230468749999996
0.22719726562499998
0.404443359375
0.42941894531249997
0.9466552734375
1.16015625
1.361572265625
1.477587890625
1.49853515625
1.5331787109375
1.5396240234374998
0.023364257812499997
0.024169921875
0.027392578124999997
0.6920654296875
0.5792724609375
1.2503906249999999
2.1777099609375
3.027685546875
3.0244628906249997
3.0204345703124997
2.5966552734375
2.3017822265625
2.1680419921875
2.205908203125
2.0955322265625
2.0407470703125
1.90458984375
1.783740234375
1.75634765625
1.6830322265625
1.6218017578125
1.5492919921875
3.0244628906249997
3.0301025390625
2.6498291015624997
2.81015625
2.4677490234375
1.0385009765625
0.022558593749999998
0.0217529296875
0.019335937499999997
0.10634765624999999
0.11843261718749999
0.34562988281249996
0.217529296875
0.8604492187499999
1.10859375
1.2938964843749998
1.48564453125
1.48564453125
1.5380126953125
1.5686279296874999
1.4679199218749999
0.0217529296875
0.023364257812499997
0.53173828125
0.43505859375
0.7798828124999999
1.9746826171874998
3.0268798828124996
3.0244628906249997
3.0301025390625
2.7094482421875
2.5152832031249996
2.3017822265625
2.3855712890625
2.28486328125
2.212353515625
1.977099609375
1.8377197265624998
1.8232177734375
1.7692382812499998
1.6910888671875
1.635498046875
3.0252685546875
3.02607421875
2.744091796875
3.0228515624999996
2.7739013671875
1.8143554687499999
0.019335937499999997
0.019335937499999997
0.0217529296875
0.027392578124999997
0.024169921875
0.1007080078125
0.0298095703125
0.488232421875
0.7001220703125
1.0739501953125
1.2866455078124999
1.3341796874999998
1.4244140625
1.493701171875
1.43408203125
0.020947265625
0.022558593749999998
0.024169921875
0.019335937499999997
0.022558593749999998
1.2882568359375
2.6208251953125
3.0252685546875
3.01962890625
3.0284912109374997
3.0252685546875
3.0236572265625
3.0252685546875
3.0228515624999996
3.02607421875
3.0172119140625
2.9318115234374997
3.0002929687499997
2.9833740234375
2.9600097656249997
3.0099609375
3.02607421875
3.0268798828124996
3.0252685546875
3.0268798828124996
3.021240234375
3.0228515624999996
3.0236572265625
0.024169921875
0.020947265625
0.022558593749999998
0.017724609375
0.019335937499999997
0.024169921875
0.023364257812499997
0.022558593749999998
0.027392578124999997
0.0249755859375
0.0217529296875
0.019335937499999997
0.022558593749999998
0.0249755859375
0.019335937499999997
0.022558593749999998
0.023364257812499997
0.023364257812499997
0.019335937499999997
0.022558593749999998
0.022558593749999998
0.022558593749999998
0.022558593749999998
0.023364257812499997
0.022558593749999998
0.0169189453125
0.22075195312499998
1.0385009765625
1.8038818359375
2.1615966796875
2.4951416015624996
2.6780273437499997
3.021240234375
3.0284912109374997
3.0244628906249997
3.029296875
3.0204345703124997
3.02607421875
3.0244628906249997
3.027685546875
3.0268798828124996
3.0252685546875
0.020947265625
0.0217529296875
0.022558593749999998
0.023364257812499997
0.024169921875
0.017724609375
0.022558593749999998
0.0201416015625
0.023364257812499997
0.022558593749999998
0.022558593749999998
0.027392578124999997
0.0217529296875
0.020947265625
0.022558593749999998
0.027392578124999997
0.017724609375
0.022558593749999998
0.022558593749999998
0.0217529296875
0.022558593749999998
0.018530273437499998
0.0249755859375
0.022558593749999998
0.022558593749999998
0.024169921875
0.026586914062499998
0.646142578125
1.445361328125
1.7732666015624998
2.167236328125
2.56201171875
3.0252685546875
3.0252685546875
3.0252685546875
3.0236572265625
3.029296875
3.0284912109374997
3.0236572265625
3.0236572265625
3.0228515624999996
3.0236572265625
0.019335937499999997
0.024169921875
0.0217529296875
0.022558593749999998
0.0249755859375
0.022558593749999998
0.0249755859375
0.022558593749999998
0.0217529296875
0.026586914062499998
0.0249755859375
0.023364257812499997
0.022558593749999998
0.0217529296875
0.023364257812499997
0.022558593749999998
0.022558593749999998
0.0217529296875
0.0201416015625
0.022558593749999998
0.0217529296875
0.0281982421875
0.024169921875
0.022558593749999998
0.019335937499999997
0.0217529296875
0.024169921875
0.023364257812499997
0.6968994140625
1.416357421875
1.8062988281249999
2.23974609375
2.6764160156249996
2.937451171875
3.021240234375
3.0252685546875
3.021240234375
3.0284912109374997
3.0236572265625
3.0244628906249997
3.0228515624999996
3.029296875
3.027685546875
0.0217529296875
0.027392578124999997
0.022558593749999998
0.0217529296875
0.026586914062499998
0.022558593749999998
0.022558593749999998
0.022558593749999998
0.0217529296875
0.023364257812499997
0.022558593749999998
0.0217529296875
0.022558593749999998
0.022558593749999998
0.02578125
0.022558593749999998
0.023364257812499997
0.027392578124999997
0.022558593749999998
0.0201416015625
0.022558593749999998
0.023364257812499997
0.020947265625
0.022558593749999998
0.0201416015625
0.020947265625
0.018530273437499998
0.024169921875
0.9224853515625
1.4389160156249998
1.977099609375
2.437939453125
2.7207275390624996
3.0252685546875
3.029296875
3.0268798828124996
3.0244628906249997
3.0252685546875
3.027685546875
3.0220458984375
3.0252685546875
3.0236572265625
0.4358642578125
0.022558593749999998
0.0217529296875
0.020947265625
0.020947265625
0.02578125
0.022558593749999998
0.0217529296875
0.018530273437499998
0.022558593749999998
0.022558593749999998
0.0217529296875
0.018530273437499998
0.022558593749999998
0.022558593749999998
0.026586914062499998
0.024169921875
0.03544921875
0.111181640625
0.17885742187499998
0.26425781249999997
0.3198486328125
0.3746337890625
0.44794921875
0.501123046875
0.5438232421875
0.60263671875
0.6493652343749999
1.0465576171875
1.5782958984375
2.0262451171875
2.32998046875
2.673193359375
3.027685546875
3.0284912109374997
3.0252685546875
3.0244628906249997
3.029296875
3.0252685546875
3.0236572265625
3.02607421875
3.0228515624999996
3.0244628906249997
3.0301025390625
0.09426269531249999
0.02578125
0.023364257812499997
0.023364257812499997
0.022558593749999998
0.0201416015625
0.0201416015625
0.022558593749999998
0.023364257812499997
0.0217529296875
0.024169921875
0.020947265625
0.0217529296875
0.027392578124999997
0.037060546874999996
0.12165527343749999
0.1941650390625
0.28439941406249997
0.35288085937499997
0.41330566406249997
0.4648681640625
0.543017578125
0.5929687499999999
0.6421142578125
0.7001220703125
0.742822265625
0.7774658203125
1.2125244140625
1.9754882812499999
2.144677734375
2.7030029296875
2.9962646484374997
3.02607421875
3.0228515624999996
3.0236572265625
3.0236572265625
3.02607421875
3.0236572265625
3.0228515624999996
3.0236572265625
3.0284912109374997
3.02607421875
1.654833984375
0.02900390625
0.022558593749999998
0.0249755859375
0.0249755859375
0.026586914062499998
0.023364257812499997
0.023364257812499997
0.022558593749999998
0.0217529296875
0.023364257812499997
0.022558593749999998
0.023364257812499997
0.023364257812499997
0.019335937499999997
0.0668701171875
0.1377685546875
0.2360595703125
0.30454101562499997
0.36979980468749996
0.45439453124999996
0.5043457031249999
0.559130859375
0.6066650390625
0.6767578125
0.7154296874999999
1.3317626953125
1.8796142578125
2.3323974609375
2.6224365234375
3.02607421875
3.0244628906249997
3.0244628906249997
3.0268798828124996
3.0204345703124997
3.02607421875
3.0252685546875
3.02607421875
3.0244628906249997
3.0244628906249997
3.029296875
3.0252685546875
2.737646484375
0.0362548828125
0.023364257812499997
0.0217529296875
0.0217529296875
0.01611328125
0.017724609375
0.020947265625
0.027392578124999997
0.0217529296875
0.0217529296875
0.020947265625
0.027392578124999997
0.022558593749999998
0.0217529296875
0.023364257812499997
0.072509765625
0.15227050781249998
0.2263916015625
0.2892333984375
0.378662109375
0.439892578125
0.4954833984375
0.5687988281249999
0.6131103515624999
0.662255859375
1.0368896484374999
1.3462646484374998
1.9650146484375
2.358984375
2.5676513671874996
2.9269775390625
3.0301025390625
3.0284912109374997
3.0284912109374997
3.0252685546875
3.0220458984375
3.0244628906249997
3.0244628906249997
3.0252685546875
3.02607421875
3.0236572265625
3.029296875
0.02578125
0.022558593749999998
0.02900390625
0.027392578124999997
0.023364257812499997
0.023364257812499997
0.0217529296875
0.0249755859375
0.0249755859375
0.0249755859375
0.022558593749999998
0.023364257812499997
0.023364257812499997
0.022558593749999998
0.0281982421875
0.130517578125
0.201416015625
0.2715087890625
0.36416015625
0.423779296875
0.488232421875
0.5551025390625
0.6090820312499999
0.6533935546874999
0.7001220703125
0.7613525390625
0.897509765625
1.7507080078125
2.19140625
2.421826171875
2.744091796875
3.021240234375
3.0252685546875
3.0228515624999996
3.0188232421874996
3.027685546875
3.0236572265625
3.0252685546875
3.0244628906249997
3.0252685546875
3.0204345703124997
3.0244628906249997
0.4390869140625
0.023364257812499997
0.02578125
0.022558593749999998
0.027392578124999997
0.022558593749999998
0.019335937499999997
0.022558593749999998
0.0217529296875
0.017724609375
0.022558593749999998
0.0217529296875
0.022558593749999998
0.022558593749999998
0.050756835937499994
0.133740234375
0.1998046875
0.275537109375
0.35771484374999996
0.42136230468749997
0.48178710937499997
0.5599365234375
0.6147216796875
0.65419921875
0.7226806640625
0.7597412109374999
0.800830078125
1.2334716796875
1.754736328125
2.012548828125
2.338037109375
2.4355224609375
2.695751953125
2.8141845703125
2.9398681640624997
3.0220458984375
3.0252685546875
3.0236572265625
3.0252685546875
3.0244628906249997
3.021240234375
3.0236572265625
0.9434326171874999
0.018530273437499998
0.023364257812499997
0.022558593749999998
0.022558593749999998
0.022558593749999998
0.0169189453125
0.018530273437499998
0.026586914062499998
0.02900390625
0.0217529296875
0.0281982421875
0.0201416015625
0.07412109374999999
0.1893310546875
0.2578125
0.3230712890625
0.410888671875
0.4680908203125
0.5244873046874999
0.5808837890624999
0.6493652343749999
0.6968994140625
0.7404052734375
0.7927734375
0.8282226562499999
1.4679199218749999
2.0246337890625
2.31064453125
2.5233398437499996
2.7005859374999996
2.963232421875
3.021240234375
3.0204345703124997
3.027685546875
3.029296875
3.02607421875
3.027685546875
3.0309082031249996
3.0268798828124996
3.0244628906249997
3.027685546875
2.309033203125
0.022558593749999998
0.022558593749999998
0.022558593749999998
0.0217529296875
0.0217529296875
0.023364257812499997
0.022558593749999998
0.022558593749999998
0.0169189453125
0.0217529296875
0.023364257812499997
0.023364257812499997
0.019335937499999997
0.0281982421875
0.095068359375
0.20302734374999998
0.270703125
0.339990234375
0.40283203125
0.48017578125
0.5325439453124999
0.591357421875
0.6517822265625
0.700927734375
0.8201660156249999
1.6298583984375
2.1849609375
2.6280761718749996
2.7722900390625
2.9269775390625
3.0244628906249997
3.02607421875
3.0172119140625
3.0220458984375
3.0236572265625
3.029296875
3.0244628906249997
3.0220458984375
3.02607421875
3.0228515624999996
3.0268798828124996
3.0188232421874996
0.40283203125
0.0217529296875
0.022558593749999998
0.0217529296875
0.022558593749999998
0.026586914062499998
0.022558593749999998
0.023364257812499997
0.022558593749999998
0.023364257812499997
0.02578125
0.023364257812499997
0.026586914062499998
0.020947265625
0.027392578124999997
0.03544921875
0.11359863281249999
0.18852539062499998
0.278759765625
0.3472412109375
0.4125
0.472119140625
0.543017578125
0.5969970703124999
1.0836181640625
1.5565429687499999
1.69833984375
2.4169921875
2.727978515625
2.8705810546875
3.0220458984375
3.0244628906249997
3.027685546875
3.01318359375
3.0244628906249997
3.0228515624999996
3.027685546875
3.0252685546875
3.0301025390625
3.0268798828124996
3.0252685546875
3.0236572265625
0.4809814453125
0.023364257812499997
0.02578125
0.0217529296875
0.020947265625
0.022558593749999998
0.023364257812499997
0.0217529296875
0.022558593749999998
0.026586914062499998
0.0217529296875
0.0217529296875
0.027392578124999997
0.022558593749999998
0.023364257812499997
0.022558593749999998
0.026586914062499998
0.09829101562499999
0.19094238281249998
0.265869140625
0.33515625
0.4125
0.48017578125
0.5357666015625
0.9385986328125
1.5637939453124998
2.1946289062499997
2.5475097656249996
2.8045166015625
2.872998046875
3.0123779296874997
3.0244628906249997
3.0236572265625
2.995458984375
3.0059326171875
3.0228515624999996
3.0244628906249997
3.027685546875
3.02607421875
3.0236572265625
3.02607421875
3.027685546875
1.4203857421875
0.0201416015625
0.022558593749999998
0.022558593749999998
0.0201416015625
0.018530273437499998
0.027392578124999997
0.026586914062499998
0.022558593749999998
0.022558593749999998
0.022558593749999998
0.022558593749999998
0.022558593749999998
0.0217529296875
0.0217529296875
0.022558593749999998
0.019335937499999997
0.0249755859375
0.0636474609375
0.1409912109375
0.217529296875
0.30856933593749997
0.37302246093749997
0.4310302734375
0.9249023437499999
1.464697265625
2.1986572265624997
2.7175048828125
2.9761230468749997
3.0252685546875
3.0268798828124996
3.0236572265625
3.0252685546875
3.0220458984375
2.9672607421875
3.027685546875
3.0252685546875
3.0268798828124996
3.0228515624999996
3.0284912109374997
3.0244628906249997
3.0204345703124997
3.0236572265625
0.057202148437499996
0.026586914062499998
0.020947265625
0.0217529296875
0.024169921875
0.022558593749999998
0.023364257812499997
0.02578125
0.0217529296875
0.02578125
0.022558593749999998
0.022558593749999998
0.023364257812499997
0.019335937499999997
0.0249755859375
0.023364257812499997
0.020947265625
0.0217529296875
0.043505859375
0.11843261718749999
0.2199462890625
0.2876220703125
0.35126953125
0.9893554687499999
1.4864501953125
2.0149658203125
2.392822265625
2.9318115234374997
3.029296875
3.0244628906249997
3.0244628906249997
3.0236572265625
3.02607421875
2.9680664062499997
3.0252685546875
3.0236572265625
3.0236572265625
3.0244628906249997
3.0236572265625
3.02607421875
3.0228515624999996
3.02607421875
1.02158203125
0.018530273437499998
0.0217529296875
0.022558593749999998
0.019335937499999997
0.0201416015625
0.020947265625
0.0217529296875
0.022558593749999998
0.019335937499999997
0.022558593749999998
0.013696289062499999
0.01611328125
0.023364257812499997
0.022558593749999998
0.022558593749999998
0.024169921875
0.02578125
0.019335937499999997
0.03544921875
0.11762695312499999
0.1877197265625
0.262646484375
0.343212890625
0.9740478515625
1.4066894531249998
2.11083984375
2.6135742187499997
2.8254638671874996
2.9261718749999996
3.0252685546875
3.02607421875
3.0244628906249997
3.01962890625
2.9865966796874996
3.0268798828124996
3.0244628906249997
3.02607421875
3.0236572265625
3.0244628906249997
3.02607421875
3.029296875
2.6079345703124996
0.0249755859375
0.026586914062499998
0.0249755859375
0.0217529296875
0.022558593749999998
0.022558593749999998
0.023364257812499997
0.022558593749999998
0.022558593749999998
0.0217529296875
0.022558593749999998
0.0217529296875
0.022558593749999998
0.018530273437499998
0.019335937499999997
0.0169189453125
0.0217529296875
0.023364257812499997
0.04833984375
0.1264892578125
0.19255371093749998
0.285205078125
0.34965820312499996
0.8572265625
1.3873535156249999
2.2268554687499997
2.5007812499999997
2.9100585937499996
3.0244628906249997
3.02607421875
3.0244628906249997
3.0252685546875
3.0244628906249997
2.9849853515625
3.029296875
3.0252685546875
3.027685546875
3.029296875
3.021240234375
3.0244628906249997
3.0244628906249997
2.9197265624999997
0.02578125
0.019335937499999997
0.022558593749999998
0.026586914062499998
0.024169921875
0.019335937499999997
0.02578125
0.023364257812499997
0.022558593749999998
0.022558593749999998
0.023364257812499997
0.018530273437499998
0.023364257812499997
0.023364257812499997
0.02900390625
0.020947265625
0.0281982421875
0.022558593749999998
0.022558593749999998
0.0708984375
0.146630859375
0.24492187499999998
0.30937499999999996
0.3762451171875
1.2012451171875
1.8626953124999999
1.8199951171875
2.6079345703124996
2.8149902343749997
2.8786376953125
3.0252685546875
3.0244628906249997
2.9680664062499997
2.9600097656249997
3.0244628906249997
3.02607421875
3.0252685546875
3.0236572265625
3.027685546875
3.0252685546875
3.0252685546875
3.0236572265625
0.4439208984375
0.02578125
0.0217529296875
0.022558593749999998
0.0249755859375
0.018530273437499998
0.023364257812499997
0.024169921875
0.022558593749999998
0.022558593749999998
0.024169921875
0.022558593749999998
0.024169921875
0.022558593749999998
0.022558593749999998
0.022558593749999998
0.0217529296875
0.023364257812499997
0.023364257812499997
0.0878173828125
0.1699951171875
0.2618408203125
0.330322265625
0.3907470703125
1.1923828125
1.69189453125
2.321923828125
2.8496337890624996
3.0236572265625
3.0252685546875
3.0123779296874997
3.0244628906249997
3.0228515624999996
3.0164062499999997
3.0236572265625
3.0188232421874996
3.0236572265625
3.0244628906249997
3.02607421875
3.0252685546875
3.0244628906249997
3.0236572265625
1.039306640625
0.0217529296875
0.027392578124999997
0.023364257812499997
0.0201416015625
0.023364257812499997
0.022558593749999998
0.022558593749999998
0.0201416015625
0.022558593749999998
0.023364257812499997
0.024169921875
0.0104736328125
0.023364257812499997
0.026586914062499998
0.020947265625
0.022558593749999998
0.023364257812499997
0.023364257812499997
0.02578125
0.120849609375
0.191748046875
0.26425781249999997
0.330322265625
0.7565185546875
1.3825195312499998
2.0729736328125
2.4202148437499997
2.86494140625
2.9817626953125
3.0252685546875
3.0252685546875
3.021240234375
3.0139892578125
2.9761230468749997
3.0244628906249997
3.0252685546875
3.0236572265625
3.0228515624999996
3.021240234375
3.0309082031249996
3.0204345703124997
3.0252685546875
0.019335937499999997
0.0217529296875
0.020947265625
0.022558593749999998
0.018530273437499998
0.022558593749999998
0.026586914062499998
0.022558593749999998
0.02578125
0.022558593749999998
0.023364257812499997
0.023364257812499997
0.0217529296875
0.024169921875
0.022558593749999998
0.022558593749999998
0.022558593749999998
0.019335937499999997
0.024169921875
0.10634765624999999
0.18369140625
0.25620117187499997
0.33837890625
0.889453125
1.24072265625
1.87236328125
2.5499267578125
2.811767578125
2.9785400390624996
3.0284912109374997
3.0252685546875
3.02607421875
3.0244628906249997
3.027685546875
3.0252685546875
3.0244628906249997
3.0268798828124996
3.027685546875
3.027685546875
3.021240234375
3.0236572265625
3.0244628906249997
0.9402099609375
0.023364257812499997
0.023364257812499997
0.023364257812499997
0.023364257812499997
0.027392578124999997
0.018530273437499998
0.023364257812499997
0.018530273437499998
0.024169921875
0.017724609375
0.022558593749999998
0.0217529296875
0.022558593749999998
0.019335937499999997
0.024169921875
0.02578125
0.023364257812499997
0.022558593749999998
0.064453125
0.14501953125
0.2118896484375
0.30937499999999996
0.3714111328125
1.042529296875
1.4864501953125
2.144677734375
2.6683593749999996
2.850439453125
2.9640380859374997
3.0244628906249997
3.02607421875
3.0268798828124996
3.0268798828124996
2.9358398437499997
3.0252685546875
3.02607421875
3.0244628906249997
3.0228515624999996
3.0301025390625
3.02607421875
3.021240234375
2.1406494140625
0.0201416015625
0.026586914062499998
0.0201416015625
0.019335937499999997
0.019335937499999997
0.023364257812499997
0.027392578124999997
0.023364257812499997
0.017724609375
0.027392578124999997
0.023364257812499997
0.024169921875
0.019335937499999997
0.017724609375
0.0217529296875
0.018530273437499998
0.022558593749999998
0.023364257812499997
0.050756835937499994
0.133740234375
0.207861328125
0.2972900390625
0.359326171875
0.8040527343749999
1.5484863281249999
2.14306640625
2.47822265625
2.8286865234375
2.9608154296875
3.0244628906249997
3.0252685546875
3.0236572265625
2.9906249999999996
2.9600097656249997
3.02607421875
3.0252685546875
3.0244628906249997
3.0244628906249997
3.027685546875
3.0204345703124997
3.0244628906249997
2.8657470703124996
0.0281982421875
0.024169921875
0.020947265625
0.024169921875
0.024169921875
0.023364257812499997
0.026586914062499998
0.0217529296875
0.022558593749999998
0.0217529296875
0.022558593749999998
0.026586914062499998
0.020947265625
0.020947265625
0.023364257812499997
0.022558593749999998
0.019335937499999997
0.022558593749999998
0.0298095703125
0.09990234375
0.18046874999999998
0.27231445312499997
0.34079589843749997
0.8886474609374999
1.458251953125
2.152734375
2.0576660156249997
2.9221435546874996
3.0252685546875
3.0228515624999996
3.0244628906249997
3.0244628906249997
2.9898193359375
2.98740234375
3.02607421875
3.027685546875
3.0252685546875
3.0268798828124996
3.02607421875
3.0244628906249997
3.0252685546875
3.0252685546875
0.291650390625
0.022558593749999998
0.023364257812499997
0.0217529296875
0.0249755859375
0.023364257812499997
0.022558593749999998
0.024169921875
0.0217529296875
0.019335937499999997
0.027392578124999997
0.0217529296875
0.0249755859375
0.023364257812499997
0.022558593749999998
0.023364257812499997
0.022558593749999998
0.027392578124999997
0.023364257812499997
0.0322265625
0.1329345703125
0.20866699218749998
0.275537109375
0.34562988281249996
1.16337890625
1.6636962890625
2.2695556640625
2.8174072265624996
2.9970703125
3.0244628906249997
3.0301025390625
3.02607421875
3.0268798828124996
3.021240234375
3.0244628906249997
3.027685546875
3.027685546875
3.0220458984375
3.0204345703124997
3.0083496093749997
3.01962890625
3.0244628906249997
1.1738525390624999
0.0217529296875
0.022558593749999998
0.015307617187499999
0.0217529296875
0.018530273437499998
0.0217529296875
0.024169921875
0.02578125
0.023364257812499997
0.022558593749999998
0.0201416015625
0.020947265625
0.0217529296875
0.0217529296875
0.0217529296875
0.0201416015625
0.022558593749999998
0.0217529296875
0.024169921875
0.08620605468749999
0.165966796875
0.2360595703125
0.32468261718749997
0.8983154296875
1.3027587890624999
2.126953125
2.4919189453125
2.8995849609374997
2.9680664062499997
3.0309082031249996
3.0236572265625
3.0244628906249997
3.0228515624999996
2.95517578125
3.01962890625
3.0228515624999996
3.0252685546875
3.0228515624999996
3.0268798828124996
3.027685546875
3.0244628906249997
3.02607421875
0.0249755859375
0.0217529296875
0.0217529296875
0.023364257812499997
0.0249755859375
0.019335937499999997
0.0217529296875
0.02578125
0.022558593749999998
0.018530273437499998
0.022558593749999998
0.0249755859375
0.02900390625
0.022558593749999998
0.022558593749999998
0.027392578124999997
0.02578125
0.024169921875
0.026586914062499998
0.08056640625
0.15791015625
0.2296142578125
0.31904296875
0.8225830078124999
1.2334716796875
2.112451171875
2.6272705078125
2.7722900390625
2.9108642578125
3.0268798828124996
3.0236572265625
3.0236572265625
3.02607421875
2.979345703125
3.029296875
3.0244628906249997
3.02607421875
3.02607421875
3.027685546875
3.0244628906249997
3.029296875
3.0236572265625
0.0443115234375
0.0169189453125
0.0169189453125
0.0217529296875
0.0249755859375
0.022558593749999998
0.023364257812499997
0.024169921875
0.024169921875
0.0169189453125
0.037060546874999996
0.017724609375
0.023364257812499997
0.026586914062499998
0.01611328125
0.022558593749999998
0.023364257812499997
0.023364257812499997
0.020947265625
0.061230468749999996
0.13857421875
0.21672363281249998
0.3069580078125
0.3681884765625
1.1214843749999999
1.84013671875
2.2856689453125
2.808544921875
3.011572265625
3.02607421875
3.0244628906249997
3.02607421875
3.0252685546875
3.0027099609374996
2.9583984374999996
3.027685546875
3.0244628906249997
3.02607421875
3.0244628906249997
3.0228515624999996
3.0244628906249997
3.0252685546875
1.0159423828125
0.017724609375
0.024169921875
0.0217529296875
0.022558593749999998
0.023364257812499997
0.022558593749999998
0.0281982421875
0.0169189453125
0.024169921875
0.027392578124999997
0.0217529296875
0.022558593749999998
0.018530273437499998
0.0201416015625
0.020947265625
0.023364257812499997
0.022558593749999998
0.018530273437499998
0.026586914062499998
0.09426269531249999
0.193359375
0.26748046875
0.33515625
0.797607421875
1.3801025390625
2.0431640625
2.3154785156249997
2.818212890625
2.9608154296875
3.02607421875
3.0252685546875
3.0244628906249997
2.96484375
2.956787109375
3.0236572265625
3.0244628906249997
3.0284912109374997
3.0268798828124996
3.0228515624999996
3.0244628906249997
3.0236572265625
2.6756103515625
0.017724609375
0.022558593749999998
0.0217529296875
0.023364257812499997
0.017724609375
0.026586914062499998
0.022558593749999998
0.022558593749999998
0.022558593749999998
0.018530273437499998
0.02578125
0.023364257812499997
0.02578125
0.023364257812499997
0.023364257812499997
0.023364257812499997
0.0217529296875
0.0201416015625
0.026586914062499998
0.10231933593749999
0.1973876953125
0.26425781249999997
0.33193359375
1.187548828125
1.6564453124999998
2.3614013671875
2.3340087890625
3.0244628906249997
3.0236572265625
3.027685546875
3.0244628906249997
3.0204345703124997
2.9994873046875
2.9575927734375
3.0252685546875
3.0228515624999996
3.0252685546875
3.0244628906249997
3.021240234375
3.0284912109374997
3.02607421875
3.0188232421874996
0.3262939453125
0.023364257812499997
0.020947265625
0.023364257812499997
0.024169921875
0.022558593749999998
0.0217529296875
0.0217529296875
0.023364257812499997
0.022558593749999998
0.027392578124999997
0.024169921875
0.022558593749999998
0.026586914062499998
0.0249755859375
0.0169189453125
0.022558593749999998
0.023364257812499997
0.023364257812499997
0.023364257812499997
0.08701171875
0.1611328125
0.233642578125
0.8515869140625
1.21494140625
1.7337890624999999
1.9634033203124999
2.81015625
3.0027099609374996
3.0244628906249997
3.02607421875
3.0252685546875
3.0244628906249997
2.9656494140625
3.0236572265625
3.027685546875
3.0236572265625
3.0244628906249997
3.0236572265625
3.0236572265625
3.0252685546875
3.02607421875
1.0948974609375
0.0201416015625
0.023364257812499997
0.022558593749999998
0.023364257812499997
0.022558593749999998
0.023364257812499997
0.0217529296875
0.022558593749999998
0.022558593749999998
0.023364257812499997
0.022558593749999998
0.024169921875
0.022558593749999998
0.0217529296875
0.022558593749999998
0.023364257812499997
0.0217529296875
0.022558593749999998
0.023364257812499997
0.06767578125
0.141796875
0.2102783203125
0.3053466796875
0.9563232421875
1.4373046875
2.2171875
2.6498291015624997
2.9253662109375
3.0107666015624996
3.0244628906249997
3.0268798828124996
3.0244628906249997
2.9962646484374997
2.9438964843749997
3.0244628906249997
3.02607421875
3.01962890625
3.0252685546875
3.0244628906249997
3.0284912109374997
3.0244628906249997
3.02607421875
0.018530273437499998
0.022558593749999998
0.02578125
0.023364257812499997
0.022558593749999998
0.017724609375
0.022558593749999998
0.018530273437499998
0.022558593749999998
0.022558593749999998
0.022558593749999998
0.0249755859375
0.026586914062499998
0.023364257812499997
0.023364257812499997
0.024169921875
0.022558593749999998
0.022558593749999998
0.0281982421875
0.0539794921875
0.1329345703125
0.2280029296875
0.29970703125
0.7782714843749999
1.164990234375
2.109228515625
2.6063232421875
2.8133789062499996
3.0083496093749997
3.0236572265625
3.0228515624999996
3.0236572265625
3.0252685546875
2.9849853515625
3.0220458984375
3.0252685546875
3.0236572265625
3.0236572265625
3.0228515624999996
3.0244628906249997
3.0309082031249996
3.01962890625
0.07412109374999999
0.022558593749999998
0.026586914062499998
0.022558593749999998
0.017724609375
0.023364257812499997
0.0217529296875
0.022558593749999998
0.023364257812499997
0.023364257812499997
0.022558593749999998
0.02578125
0.0281982421875
0.024169921875
0.0217529296875
0.023364257812499997
0.017724609375
0.020947265625
0.024169921875
0.041088867187499996
0.12165527343749999
0.22316894531249998
0.2827880859375
0.35126953125
1.2536132812499998
1.941650390625
2.3404541015625
2.8335205078124996
3.005126953125
3.021240234375
3.027685546875
3.0252685546875
3.02607421875
3.001904296875
3.0268798828124996
3.0252685546875
3.0244628906249997
3.0228515624999996
3.0228515624999996
3.0244628906249997
3.0236572265625
3.021240234375
0.9692138671874999
0.0217529296875
0.0201416015625
0.020947265625
0.022558593749999998
0.022558593749999998
0.023364257812499997
0.0201416015625
0.022558593749999998
0.022558593749999998
0.027392578124999997
0.02578125
0.027392578124999997
0.026586914062499998
0.022558593749999998
0.019335937499999997
0.024169921875
0.019335937499999997
0.022558593749999998
0.024169921875
0.0829833984375
0.1877197265625
0.2553955078125
0.3198486328125
1.12470703125
1.6862548828125
2.321923828125
2.8625244140625
3.0268798828124996
3.01962890625
3.02607421875
3.0252685546875
3.02607421875
3.0228515624999996
2.953564453125
3.0252685546875
3.0236572265625
3.0301025390625
3.0236572265625
3.0301025390625
3.02607421875
3.0220458984375
2.209130859375
0.022558593749999998
0.01611328125
0.022558593749999998
0.022558593749999998
0.017724609375
0.019335937499999997
0.022558593749999998
0.022558593749999998
0.0217529296875
0.022558593749999998
0.0217529296875
0.023364257812499997
0.023364257812499997
0.0217529296875
0.0217529296875
0.023364257812499997
0.0217529296875
0.0217529296875
0.02578125
0.04833984375
0.12246093749999999
0.19899902343749998
0.2715087890625
1.1295410156249999
1.6306640625
2.3759033203124997
2.62646484375
3.0252685546875
3.0236572265625
3.0172119140625
3.0244628906249997
3.0284912109374997
3.0252685546875
2.9519531249999997
3.0252685546875
3.02607421875
3.0236572265625
3.021240234375
3.0252685546875
3.02607421875
3.029296875
3.027685546875
0.2698974609375
0.0217529296875
0.0201416015625
0.0217529296875
0.0217529296875
0.019335937499999997
0.023364257812499997
0.0217529296875
0.019335937499999997
0.0249755859375
0.0217529296875
0.022558593749999998
0.0217529296875
0.019335937499999997
0.023364257812499997
0.020947265625
0.02578125
0.024169921875
0.023364257812499997
0.023364257812499997
0.04189453125
0.120849609375
0.2215576171875
0.7742431640624999
1.1666015625
1.6749755859375
2.1889892578125
2.7916259765625
3.027685546875
3.0301025390625
3.0244628906249997
3.0244628906249997
3.0244628906249997
2.969677734375
3.0204345703124997
3.0252685546875
3.0244628906249997
3.0188232421874996
3.0252685546875
3.0252685546875
3.02607421875
3.0244628906249997
1.08603515625
0.024169921875
0.02578125
0.0201416015625
0.022558593749999998
0.024169921875
0.0217529296875
0.022558593749999998
0.0217529296875
0.0217529296875
0.0249755859375
0.0201416015625
0.02900390625
0.0217529296875
0.0217529296875
0.023364257812499997
0.013696289062499999
0.023364257812499997
0.024169921875
0.0281982421875
0.0475341796875
0.11843261718749999
0.2215576171875
0.28842773437499997
1.013525390625
1.7426513671875
2.28486328125
2.7384521484374997
3.0236572265625
3.0268798828124996
3.0244628906249997
3.0244628906249997
3.02607421875
3.0228515624999996
2.9906249999999996
3.0268798828124996
3.0244628906249997
3.02607421875
3.0244628906249997
3.0228515624999996
3.02607421875
3.02607421875
1.2374999999999998
0.0217529296875
0.019335937499999997
0.0249755859375
0.026586914062499998
0.026586914062499998
0.022558593749999998
0.020947265625
0.022558593749999998
0.023364257812499997
0.0217529296875
0.02900390625
0.023364257812499997
0.022558593749999998
0.0249755859375
0.0217529296875
0.022558593749999998
0.023364257812499997
0.023364257812499997
0.020947265625
0.02578125
0.088623046875
0.18691406249999998
0.26022949218749997
0.7033447265624999
1.4332763671875
2.0939208984374997
2.5354248046874996
2.8609130859375
3.0236572265625
3.0284912109374997
3.027685546875
3.0284912109374997
3.0228515624999996
2.9817626953125
3.0236572265625
3.027685546875
3.0244628906249997
3.02607421875
3.0244628906249997
3.02607421875
3.02607421875
3.0244628906249997
0.0217529296875
0.020947265625
0.022558593749999998
0.0217529296875
0.020947265625
0.023364257812499997
0.0201416015625
0.023364257812499997
0.023364257812499997
0.022558593749999998
0.017724609375
0.0281982421875
0.0217529296875
0.0249755859375
0.02578125
0.020947265625
0.024169921875
0.023364257812499997
0.024169921875
0.02900390625
0.08701171875
0.19497070312499998
0.265869140625
0.34079589843749997
1.3365966796875
2.0987548828125
2.5048095703124997
2.9430908203125
3.0268798828124996
3.0244628906249997
3.0228515624999996
3.021240234375
3.02607421875
3.0244628906249997
3.0252685546875
3.0244628906249997
3.02607421875
3.0228515624999996
3.0244628906249997
3.0244628906249997
3.0228515624999996
3.0252685546875
1.7257324218749999
0.897509765625
0.8016357421875
1.1786865234375
1.8175781249999998
3.02607421875
3.0244628906249997
3.0236572265625
3.0236572265625
3.0228515624999996
3.0244628906249997
3.02607421875
3.0244628906249997
3.0252685546875
3.0244628906249997
3.02607421875
3.0228515624999996
3.02607421875
3.0252685546875
3.0220458984375
3.0244628906249997
3.0284912109374997
3.0252685546875
3.0252685546875
3.0236572265625
3.0228515624999996
3.0220458984375
3.0268798828124996
3.0236572265625
3.0228515624999996
3.0244628906249997
3.0228515624999996
3.0244628906249997
3.0244628906249997
3.02607421875
3.0252685546875
3.0228515624999996
3.0284912109374997
3.0252685546875
3.0228515624999996
3.029296875
3.0236572265625
2.892333984375
3.0252685546875
3.0228515624999996
3.0268798828124996
3.0220458984375
3.01962890625
3.0252685546875
3.0252685546875
3.01962890625
3.0228515624999996
3.0244628906249997
3.0252685546875
3.0244628906249997
3.0252685546875
0.02578125
0.023364257812499997
0.024169921875
0.0878173828125
1.6234130859375
3.02607421875
3.0252685546875
3.0284912109374997
3.0228515624999996
3.029296875
3.0252685546875
3.02607421875
3.0123779296874997
3.0252685546875
3.02607421875
3.0228515624999996
3.0252685546875
3.021240234375
2.808544921875
2.56201171875
2.2808349609375
3.0252685546875
3.0252685546875
3.02607421875
3.02607421875
2.69091796875
1.6806152343749998
0.023364257812499997
0.022558593749999998
0.0217529296875
0.0217529296875
0.0249755859375
0.017724609375
0.023364257812499997
0.1812744140625
0.018530273437499998
0.11037597656249999
0.130517578125
0.29245605468749997
0.343212890625
0.44956054687499997
0.510791015625
0.0249755859375
0.023364257812499997
0.023364257812499997
0.022558593749999998
0.4036376953125
1.4872558593749998
3.0252685546875
3.021240234375
3.0244628906249997
3.02607421875
2.6965576171874996
2.39765625
2.3662353515625
2.080224609375
1.9303710937499998
1.75634765625
1.5033691406249998
1.426025390625
1.2906738281249999
1.07958984375
0.781494140625
3.0236572265625
3.02607421875
2.9366455078125
2.8423828125
2.3195068359374997
0.9240966796875
0.022558593749999998
0.0281982421875
0.023364257812499997
0.022558593749999998
0.020947265625
0.019335937499999997
0.020947265625
0.3279052734375
0.4197509765625
0.5953857421875
0.6977050781249999
0.66064453125
0.688037109375
0.5687988281249999
0.6968994140625
0.022558593749999998
0.0281982421875
0.0217529296875
0.043505859375
0.443115234375
1.5621826171875
3.0284912109374997
3.0268798828124996
3.02607421875
2.5579833984375
1.9682373046875
1.496923828125
1.3237060546875
0.9877441406249999
1.1851318359375
1.1416259765624999
0.93779296875
1.0642822265625
1.0489746093749999
0.9651855468749999
0.9329589843749999
2.3436767578124997
3.0252685546875
2.358984375
2.418603515625
2.24619140625
0.7903564453124999
0.023364257812499997
0.020947265625
0.024169921875
0.023364257812499997
0.107958984375
0.1998046875
0.1812744140625
0.3520751953125
0.64453125
0.871728515625
1.2109130859375
1.2173583984375
1.2125244140625
1.3083984375
1.22783203125
0.023364257812499997
0.022558593749999998
0.1232666015625
0.7259033203124999
0.7855224609375
1.9553466796874999
2.80048828125
3.021240234375
3.02607421875
2.5080322265625
2.023828125
1.6371093749999999
1.43408203125
1.49853515625
1.5662109375
1.4977294921875
1.4630859374999998
1.42119140625
1.4526123046875
1.4574462890625
1.3857421875
1.3712402343749999
3.02607421875
2.6498291015624997
2.2953369140624997
2.2357177734375
1.3881591796875
0.49306640625
0.022558593749999998
0.024169921875
0.020947265625
0.2795654296875
0.613916015625
0.8999267578125
0.8950927734374999
1.2447509765625
1.5444580078124999
1.6822265625
1.719287109375
1.78857421875
1.84013671875
1.832080078125
0.9353759765624999
0.02578125
0.39396972656249996
1.7047851562499998
1.738623046875
2.1551513671875
2.792431640625
3.0204345703124997
3.0244628906249997
2.4766113281249997
1.7184814453125
1.3390136718749999
1.2423339843749999
1.442138671875
1.5645996093749999
1.6129394531249999
1.5154541015624998
1.46953125
1.4783935546875
1.456640625
1.429248046875
1.4493896484375
3.0252685546875
2.8858886718749996
1.740234375
1.7426513671875
1.4219970703125
0.39719238281249997
0.0249755859375
0.023364257812499997
0.0217529296875
0.49951171875
0.8225830078124999
1.106982421875
1.147265625
1.47275390625
1.6072998046875
1.6886718749999998
1.66611328125
1.5645996093749999
1.5726562499999999
1.5202880859374999
1.4034667968749999
0.022558593749999998
0.022558593749999998
2.0173828124999997
1.7450683593749998
1.8667236328124999
2.410546875
3.0252685546875
3.02607421875
2.7706787109374997
1.5347900390625
1.2342773437499999
1.1351806640625
1.409912109375
1.43408203125
1.5621826171875
1.4816162109375
1.4542236328125
1.4759765624999999
1.4598632812499999
1.4107177734374998
1.3792968749999999
3.01318359375
2.7972656249999996
1.5645996093749999
1.8119384765625
1.522705078125
0.7178466796874999
0.02578125
0.02578125
0.022558593749999998
0.3988037109375
0.7855224609375
1.1931884765625
1.126318359375
1.4751708984374998
1.5895751953125
1.716064453125
1.7531249999999998
1.6612792968749999
1.6137451171875
1.6314697265625
1.55009765625
0.020947265625
0.01611328125
1.8618896484374998
1.7329833984374998
1.8844482421875
2.5458984375
3.0244628906249997
3.0252685546875
2.7851806640624996
1.8046875
1.4244140625
1.2697265624999998
1.3623779296874998
1.4703369140625
1.5541259765625
1.5251220703125
1.5146484375
1.5001464843749999
1.5082031249999999
1.4735595703125
1.4655029296875
3.0301025390625
3.02607421875
1.75634765625
1.7861572265624999
1.6185791015625
0.8805908203124999
0.2038330078125
0.022558593749999998
0.020947265625
0.193359375
0.8596435546875
1.16337890625
1.297119140625
1.3059814453124998
1.6048828124999999
1.6910888671875
1.7176757812499999
1.6435546875
1.6524169921874998
1.6612792968749999
1.5879638671874998
0.0217529296875
0.020947265625
1.77568359375
1.7748779296875
1.6620849609375
2.20751953125
2.9575927734375
3.0220458984375
3.027685546875
1.9940185546875
1.4518066406249999
1.3124267578125
1.2947021484374999
1.506591796875
1.6153564453125
1.603271484375
1.513037109375
1.52109375
1.5364013671874999
1.5186767578125
1.4880615234374999
1.4872558593749998
3.0228515624999996
1.7845458984375
1.533984375
1.754736328125
0.9257080078125
0.32548828124999996
0.022558593749999998
0.023364257812499997
0.17080078124999998
0.7694091796875
1.0513916015625
1.351904296875
1.3551269531249999
1.6008544921874999
1.6862548828125
1.7394287109375
1.7249267578124998
1.6524169921874998
1.65
1.6475830078125
1.529150390625
0.0217529296875
1.6814208984374999
1.8062988281249999
1.7184814453125
2.1551513671875
2.56201171875
3.0268798828124996
3.0317138671875
2.1116455078125
1.5565429687499999
1.332568359375
1.303564453125
1.5436523437499998
1.5919921874999998
1.53076171875
1.5114257812499998
1.5186767578125
1.5492919921875
1.493701171875
1.5154541015624998
1.496923828125
3.0268798828124996
2.2276611328125
1.6564453124999998
1.735400390625
1.4348876953124998
0.8499755859375
0.022558593749999998
0.020947265625
0.017724609375
0.5969970703124999
1.0546142578125
1.2963134765625
1.1770751953125
1.5887695312499999
1.6830322265625
1.7208984374999998
1.7507080078125
1.6822265625
1.6636962890625
1.6379150390625
1.546875
0.024169921875
0.684814453125
1.8739746093749998
1.609716796875
1.8626953124999999
2.4145751953125
3.0228515624999996
3.0244628906249997
2.470166015625
1.641943359375
1.4364990234375
1.3124267578125
1.4598632812499999
1.5815185546875
1.606494140625
1.5645996093749999
1.5621826171875
1.5750732421875
1.5678222656249998
1.50498046875
1.5323730468749999
3.02607421875
3.0252685546875
2.0310791015625
2.225244140625
1.9215087890625
1.1939941406249999
0.0201416015625
0.022558593749999998
0.022558593749999998
0.32468261718749997
0.591357421875
0.833056640625
0.833056640625
1.281005859375
1.405078125
1.6089111328124999
1.6620849609375
1.6129394531249999
1.6137451171875
1.638720703125
1.5597656249999998
0.026586914062499998
0.022558593749999998
1.5509033203125
1.271337890625
1.416357421875
2.1535400390625
3.01318359375
3.01962890625
2.96162109375
2.2034912109375
1.9247314453125
1.6620849609375
1.706396484375
1.5807128906249999
1.7507080078125
1.654833984375
1.6024658203125
1.6379150390625
1.606494140625
1.554931640625
1.5412353515625
3.02607421875
3.0236572265625
2.051220703125
2.0979492187499997
1.9650146484375
1.1239013671875
0.41411132812499996
0.0217529296875
0.0217529296875
0.0475341796875
0.50595703125
0.8362792968749999
0.958740234375
1.1545166015625
1.3978271484375
1.5355957031249998
1.6072998046875
1.590380859375
1.6048828124999999
1.6218017578125
1.5686279296874999
0.020947265625
0.0201416015625
1.55009765625
1.3204833984375
1.3527099609375
2.031884765625
2.5885986328125
3.0252685546875
3.02607421875
2.3356201171874997
1.9352050781249999
1.7603759765625
1.6991455078125
1.7474853515625
1.7958251953125
1.7055908203124999
1.638720703125
1.6306640625
1.6298583984375
1.5565429687499999
1.5186767578125
1.622607421875
3.0236572265625
2.0310791015625
1.9988525390624998
2.20107421875
1.585546875
0.4326416015625
0.023364257812499997
0.0249755859375
0.0281982421875
0.515625
0.7339599609374999
0.9651855468749999
1.1013427734374999
1.351904296875
1.4719482421874999
1.6081054687499998
1.609716796875
1.5847412109374999
1.5944091796875
1.5847412109374999
1.361572265625
0.017724609375
1.4864501953125
1.37607421875
1.2785888671874999
1.960986328125
2.5064208984375
3.0309082031249996
3.0252685546875
2.386376953125
2.0197998046875
1.7313720703125
1.6524169921874998
1.7926025390625
1.7217041015624999
1.683837890625
1.6161621093749998
1.58232421875
1.6314697265625
1.574267578125
1.5533203125
1.5525146484374999
3.029296875
2.3654296875
2.1624023437499997
2.2107421874999997
1.66611328125
0.974853515625
0.022558593749999998
0.02578125
0.022558593749999998
0.3552978515625
0.7025390625
0.9474609374999999
0.887841796875
1.3599609375
1.461474609375
1.5654052734375
1.5911865234375
1.5718505859374998
1.6081054687499998
1.6234130859375
1.5533203125
0.022558593749999998
0.517236328125
1.6242187499999998
1.2769775390625
1.509814453125
2.02705078125
3.02607421875
3.02607421875
2.6748046875
2.0971435546875
1.7531249999999998
1.662890625
1.8006591796875
1.767626953125
1.7450683593749998
1.6556396484375
1.56943359375
1.6040771484374998
1.5992431640625
1.5476806640624998
1.5347900390625
3.0244628906249997
3.0244628906249997
2.1068115234375
2.2429687499999997
1.9601806640625
1.061865234375
0.023364257812499997
0.023364257812499997
0.0217529296875
0.34885253906249997
0.6066650390625
0.87978515625
0.889453125
1.38896484375
1.4276367187499999
1.5436523437499998
1.6185791015625
1.6089111328124999
1.6056884765625
1.6105224609375
1.5412353515625
0.022558593749999998
0.023364257812499997
1.5428466796875
1.222998046875
1.43408203125
2.14306640625
3.0220458984375
3.0228515624999996
3.0252685546875
2.1487060546875
1.8635009765625
1.683837890625
1.8457763671874998
1.6572509765624999
1.7853515624999998
1.674169921875
1.561376953125
1.6209960937499999
1.6371093749999999
1.5654052734375
1.52109375
3.021240234375
3.0228515624999996
1.98515625
2.204296875
2.0439697265625
1.0868408203125
0.24169921875
0.0217529296875
0.0249755859375
0.16274414062499998
0.5212646484375
0.749267578125
0.8685058593749999
1.2028564453125
1.3792968749999999
1.5678222656249998
1.6379150390625
1.590380859375
1.5960205078124998
1.6169677734374999
1.5758789062499998
0.018530273437499998
0.022558593749999998
1.4928955078125
1.3470703124999999
1.24716796875
2.112451171875
2.7062255859374997
3.0268798828124996
3.0268798828124996
2.3227294921875
2.0044921875
1.735400390625
1.69189453125
1.7047851562499998
1.7595703125
1.6773925781249999
1.606494140625
1.56943359375
1.585546875
1.5565429687499999
1.52109375
2.7787353515624997
3.0252685546875
2.14951171875
2.0520263671875
2.1551513671875
1.47275390625
0.6670898437499999
0.023364257812499997
0.023364257812499997
0.027392578124999997
0.43828124999999996
0.7694091796875
0.968408203125
0.9692138671874999
1.3865478515624998
1.5114257812499998
1.638720703125
1.5960205078124998
1.5654052734375
1.58232421875
1.58232421875
0.019335937499999997
0.0281982421875
1.1609619140625
1.3140380859374998
1.2310546875
1.6403320312499998
2.152734375
3.0268798828124996
3.0268798828124996
2.53623046875
1.977099609375
1.7732666015624998
1.7055908203124999
1.7490966796874998
1.7394287109375
1.7394287109375
1.6508056640625
1.5968261718749999
1.6322753906249998
1.5839355468749998
1.5396240234374998
1.5267333984375
3.0236572265625
2.2405517578125
2.0987548828125
2.160791015625
1.9231201171874999
0.7541015624999999
0.0217529296875
0.022558593749999998
0.017724609375
0.43425292968749996
0.6896484374999999
0.9369873046874999
0.9571289062499999
1.3092041015625
1.4574462890625
1.5670166015625
1.5863525390625
1.587158203125
1.5984375
1.5750732421875
1.496923828125
0.0217529296875
0.9732421874999999
1.46630859375
1.2270263671875
1.3897705078125
2.0955322265625
3.0252685546875
3.0252685546875
2.5660400390625
2.1221191406249997
1.8417480468749998
1.6773925781249999
1.8151611328125
1.754736328125
1.7861572265624999
1.641943359375
1.5863525390625
1.6185791015625
1.593603515625
1.5863525390625
1.5146484375
3.0252685546875
2.9253662109375
2.0415527343749997
2.2695556640625
1.9674316406249999
1.1915771484375
0.018530273437499998
0.022558593749999998
0.023364257812499997
0.265869140625
0.5663818359375
0.8926757812499999
0.8177490234375
1.21171875
1.4356933593749999
1.52109375
1.6169677734374999
1.5517089843749998
1.5847412109374999
1.609716796875
1.5347900390625
0.0217529296875
0.023364257812499997
1.458251953125
1.198828125
1.4026611328124998
2.1865722656249997
2.947119140625
3.02607421875
3.0252685546875
2.2751953124999997
1.8908935546874999
1.764404296875
1.754736328125
1.7877685546875
1.75634765625
1.6822265625
1.5839355468749998
1.6250244140624999
1.6008544921874999
1.5404296874999999
1.5347900390625
3.0252685546875
3.0284912109374997
2.0278564453125
2.273583984375
2.0375244140624997
1.255224609375
0.027392578124999997
0.0217529296875
0.024169921875
0.2263916015625
0.5043457031249999
0.758935546875
0.9063720703125
1.216552734375
1.3422363281249998
1.5017578125
1.606494140625
1.5605712890624999
1.5734619140625
1.585546875
1.5492919921875
0.020947265625
0.023364257812499997
1.458251953125
1.24072265625
1.2254150390625
1.8667236328124999
2.8496337890624996
3.02607421875
3.0309082031249996
2.3082275390625
2.0334960937499997
1.8256347656249998
1.8095214843749998
1.7579589843749999
1.7845458984375
1.7104248046875
1.5895751953125
1.6169677734374999
1.6153564453125
1.5807128906249999
1.5492919921875
1.5186767578125
3.0252685546875
2.12373046875
2.0681396484375
2.2590820312499997
1.3043701171875
0.5003173828124999
0.0249755859375
0.0169189453125
0.022558593749999998
0.4390869140625
0.6614501953124999
0.9369873046874999
1.0207763671874999
1.3027587890624999
1.477587890625
1.561376953125
1.6153564453125
1.585546875
1.6056884765625
1.6056884765625
1.4928955078125
0.0201416015625
1.3728515625
1.351904296875
1.2052734375
1.7926025390625
2.4169921875
3.0252685546875
3.0236572265625
2.4886962890624997
2.08828125
1.783740234375
1.7072021484375
1.8763916015625
1.8489990234375
1.7507080078125
1.6765869140624998
1.619384765625
1.6290527343749999
1.5758789062499998
1.5460693359375
1.5218994140625
3.0236572265625
2.560400390625
2.2083251953125
2.3009765625
1.79501953125
1.1255126953124999
0.022558593749999998
0.023364257812499997
0.023364257812499997
0.27634277343749997
0.6050537109374999
0.865283203125
0.784716796875
1.271337890625
1.4445556640625
1.55009765625
1.603271484375
1.6040771484374998
1.6089111328124999
1.6081054687499998
1.529150390625
0.019335937499999997
0.0201416015625
1.53720703125
1.1915771484375
1.4123291015625
2.08505859375
3.0236572265625
3.0244628906249997
2.8705810546875
2.1358154296875
1.9037841796875
1.7265380859375
1.796630859375
1.7797119140625
1.791796875
1.6806152343749998
1.619384765625
1.6298583984375
1.6201904296874998
1.5670166015625
1.5299560546875
3.0301025390625
3.0244628906249997
2.2115478515625
2.3654296875
1.9779052734375
1.132763671875
0.0169189453125
0.022558593749999998
0.0249755859375
0.2771484375
0.523681640625
0.7839111328124999
0.7315429687499999
1.3067871093749999
1.3253173828125
1.5323730468749999
1.5887695312499999
1.5879638671874998
1.5976318359375
1.6218017578125
1.5299560546875
0.0217529296875
0.023364257812499997
1.5380126953125
1.2342773437499999
1.3075927734375
2.0810302734375
3.0301025390625
3.0284912109374997
2.9358398437499997
2.292919921875
2.0093261718749997
1.7055908203124999
1.848193359375
1.6177734375
1.79501953125
1.7047851562499998
1.5702392578125
1.6298583984375
1.6234130859375
1.571044921875
1.5275390624999998
3.0252685546875
3.0244628906249997
2.115673828125
2.2187988281249997
2.006103515625
1.135986328125
0.3746337890625
0.022558593749999998
0.022558593749999998
0.040283203125
0.39799804687499996
0.749267578125
0.8024414062499999
1.0916748046875
1.3301513671874998
1.480810546875
1.5726562499999999
1.5839355468749998
1.5944091796875
1.611328125
1.5597656249999998
0.022558593749999998
0.023364257812499997
1.4638916015624999
1.2020507812499999
1.3075927734375
2.0625
2.69091796875
3.02607421875
3.0244628906249997
2.4049072265625
2.0101318359375
1.8119384765625
1.7490966796874998
1.64677734375
1.8224121093749999
1.738623046875
1.6427490234375
1.6508056640625
1.61455078125
1.6177734375
1.5492919921875
2.167236328125
3.0252685546875
2.109228515625
2.1390380859375
2.2727783203125
1.546875
0.3472412109375
0.023364257812499997
0.022558593749999998
0.023364257812499997
0.41008300781249996
0.6292236328124999
0.839501953125
1.0320556640625
1.2955078125
1.4356933593749999
1.5895751953125
1.6040771484374998
1.5791015625
1.6209960937499999
1.5968261718749999
0.6759521484375
0.023364257812499997
1.4655029296875
1.3140380859374998
1.147265625
1.9666259765624998
2.6627197265625
3.0268798828124996
3.0244628906249997
2.4258544921875
2.0729736328125
1.8618896484374998
1.7531249999999998
1.8578613281249998
1.8248291015625
1.7555419921875
1.6532226562499999
1.60166015625
1.6636962890625
1.6322753906249998
1.561376953125
1.538818359375
3.0236572265625
2.334814453125
2.2171875
2.29453125
1.6363037109374998
0.839501953125
0.026586914062499998
0.022558593749999998
0.0217529296875
0.33193359375
0.607470703125
0.825
0.7710205078125
1.2189697265625
1.4558349609374999
1.554931640625
1.5919921874999998
1.5670166015625
1.6040771484374998
1.611328125
1.5251220703125
0.022558593749999998
0.1248779296875
1.4477783203124999
1.1867431640625
1.4864501953125
2.126953125
3.02607421875
3.02607421875
2.7755126953125
2.2034912109375
1.843359375
1.7281494140625
1.8626953124999999
1.7853515624999998
1.77568359375
1.7345947265625
1.6242187499999998
1.6459716796875
1.6000488281249998
1.5678222656249998
1.55009765625
3.0252685546875
3.0268798828124996
2.2856689453125
2.2727783203125
2.0069091796875
1.181103515625
0.027392578124999997
0.020947265625
0.019335937499999997
0.265869140625
0.4648681640625
0.720263671875
0.6936767578124999
1.2963134765625
1.4445556640625
1.5758789062499998
1.6048828124999999
1.587158203125
1.5927978515624999
1.603271484375
1.5428466796875
0.022558593749999998
0.023364257812499997
1.5082031249999999
1.239111328125
1.36962890625
2.0778076171874997
3.029296875
3.027685546875
3.0268798828124996
2.2236328125
1.9553466796874999
1.7926025390625
1.8973388671875
1.7635986328125
1.7772949218749998
1.7120361328125
1.609716796875
1.6346923828125
1.6072998046875
1.5678222656249998
1.5323730468749999
3.029296875
3.0252685546875
2.0552490234375
2.3525390625
2.0375244140624997
1.1496826171874999
0.069287109375
0.022558593749999998
0.0201416015625
0.08137207031249999
0.410888671875
0.7887451171875
0.77666015625
1.1158447265625
1.3229003906249999
1.5243164062499999
1.6403320312499998
1.6072998046875
1.5670166015625
1.611328125
1.52109375
0.020947265625
0.023364257812499997
1.44052734375
1.2673095703125
1.3688232421875
2.26875
2.8979736328124996
3.027685546875
3.0244628906249997
2.33642578125
2.0496093749999997
1.8296630859374998
1.7523193359375
1.7716552734375
1.7829345703125
1.7313720703125
1.6636962890625
1.6935058593749999
1.6330810546874999
1.5984375
1.5919921874999998
3.0244628906249997
3.0228515624999996
2.189794921875
2.373486328125
2.1599853515625
1.3059814453124998
0.1353515625
0.022558593749999998
0.02900390625
0.018530273437499998
0.404443359375
0.6211669921874999
0.8483642578124999
0.9385986328125
1.2963134765625
1.4840332031249999
1.5734619140625
1.6185791015625
1.6081054687499998
1.6129394531249999
1.558154296875
0.022558593749999998
0.019335937499999997
0.94423828125
1.3341796874999998
1.2181640624999999
1.7507080078125
2.8464111328125
3.0244628906249997
3.0252685546875
2.5088378906249997
2.0085205078125
1.7934082031249998
1.7337890624999999
1.82080078125
1.8199951171875
1.791796875
1.6491943359374999
1.625830078125
1.6733642578124999
1.5807128906249999
1.5758789062499998
1.590380859375
3.0244628906249997
2.12373046875
2.0471923828125
2.2760009765625
1.3929931640625
0.56396484375
0.023364257812499997
0.023364257812499997
0.024169921875
0.322265625
0.5526855468749999
0.8346679687499999
0.903955078125
1.219775390625
1.4203857421875
1.6105224609375
1.6314697265625
1.5895751953125
1.5984375
1.5815185546875
1.4840332031249999
0.0217529296875
0.97001953125
1.380908203125
1.2028564453125
1.687060546875
2.3130615234375
3.02607421875
3.02607421875
2.4806396484374997
2.067333984375
1.843359375
1.7023681640625
1.8586669921874999
1.8175781249999998
1.8344970703124999
1.7007568359374998
1.6556396484375
1.6218017578125
1.5533203125
1.5484863281249999
1.5251220703125
3.0236572265625
2.7980712890625
2.1567626953125
2.29453125
1.9948242187499998
1.1883544921875
0.022558593749999998
0.02578125
0.024169921875
0.23283691406249998
0.572021484375
0.8080810546874999
0.7130126953125
1.3075927734375
1.44052734375
1.554931640625
1.63388671875
1.6008544921874999
1.60166015625
1.59521484375
1.5299560546875
0.0201416015625
0.024169921875
1.6089111328124999
1.2616699218749998
1.4276367187499999
2.204296875
3.0228515624999996
3.0268798828124996
2.9060302734374996
2.231689453125
1.87236328125
1.7700439453124999
1.7901855468749999
1.8167724609375
1.770849609375
1.7023681640625
1.6379150390625
1.6459716796875
1.619384765625
1.5686279296874999
1.5428466796875
3.0244628906249997
3.0220458984375
2.08505859375
2.2840576171875
2.03671875
1.2366943359375
0.023364257812499997
0.022558593749999998
0.0249755859375
0.2553955078125
0.4809814453125
0.736376953125
0.7025390625
1.2093017578125
1.340625
1.46953125
1.5992431640625
1.593603515625
1.6169677734374999
1.6435546875
1.5807128906249999
0.0217529296875
0.017724609375
1.4977294921875
1.2302490234374999
1.22783203125
2.2389404296874997
3.0236572265625
3.02607421875
3.0252685546875
2.2389404296874997
1.9956298828124999
1.8175781249999998
1.8151611328125
1.6806152343749998
1.8175781249999998
1.7265380859375
1.6322753906249998
1.6427490234375
1.6483886718749998
1.6000488281249998
1.5573486328125
1.7539306640624999
3.0244628906249997
2.086669921875
2.11083984375
2.067333984375
1.1416259765624999
0.36979980468749996
0.022558593749999998
0.022558593749999998
0.023364257812499997
0.40283203125
0.694482421875
0.8104980468749999
1.03125
1.2930908203125
1.490478515625
1.59521484375
1.6290527343749999
1.6209960937499999
1.606494140625
1.5734619140625
1.1698242187499999
0.023364257812499997
1.4671142578124998
1.3309570312499999
1.2286376953125
1.8868652343749999
2.6272705078125
3.0244628906249997
3.0236572265625
2.4145751953125
2.0778076171874997
1.8022705078124999
1.7176757812499999
1.8103271484374999
1.8046875
1.764404296875
1.7023681640625
1.6411376953124999
1.6371093749999999
1.5968261718749999
1.5702392578125
1.5758789062499998
3.0236572265625
2.4556640625
2.099560546875
2.2341064453125
1.7362060546875
0.974853515625
0.0169189453125
0.023364257812499997
0.0217529296875
0.39719238281249997
0.575244140625
0.8314453125
0.7742431640624999
1.313232421875
1.4518066406249999
1.5887695312499999
1.63388671875
1.5839355468749998
1.6056884765625
1.6556396484375
1.400244140625
0.022558593749999998
0.026586914062499998
1.3784912109374998
1.15693359375
1.3921875
2.5515380859374996
3.02607421875
3.021240234375
2.771484375
2.0633056640625
1.85947265625
1.76279296875
1.8755859375
1.7934082031249998
1.783740234375
1.6822265625
1.651611328125
1.6645019531249998
1.6330810546874999
1.5573486328125
1.52109375
3.0236572265625
2.5177001953125
2.263916015625
2.289697265625
1.8095214843749998
0.9974121093749999
0.017724609375
0.0217529296875
0.022558593749999998
0.262646484375
0.4842041015625
0.7645751953125
0.775048828125
1.2769775390625
1.380908203125
1.5968261718749999
1.6403320312499998
1.5992431640625
1.61455078125
1.6000488281249998
1.5492919921875
0.022558593749999998
0.018530273437499998
1.490478515625
1.22138671875
1.429248046875
2.0657226562499997
3.0244628906249997
3.0244628906249997
2.8593017578124997
2.231689453125
1.9553466796874999
1.80791015625
1.877197265625
