2.599072265625
2.4169921875
2.296142578125
2.0262451171875
3.0244628906249997
3.0244628906249997
3.0244628906249997
3.0244628906249997
3.0244628906249997
2.7416748046875
1.1561279296875
0.12165527343749999
0.022558593749999998
0.023364257812499997
0.0249755859375
0.027392578124999997
0.017724609375
0.017724609375
0.02578125
0.022558593749999998
0.14421386718749998
0.31259765624999997
0.510791015625
0.6832031249999999
0.865283203125
0.017724609375
0.023364257812499997
0.01611328125
0.0217529296875
0.020947265625
0.16435546874999998
1.0650878906249999
3.01962890625
3.0228515624999996
3.02607421875
3.0244628906249997
3.0220458984375
3.029296875
3.021240234375
3.0244628906249997
3.0244628906249997
2.8399658203125
2.76826171875
2.6208251953125
2.3887939453125
2.2236328125
1.9891845703125
3.02607421875
3.0236572265625
3.0244628906249997
3.0244628906249997
2.818212890625
2.1873779296875
0.8822021484375
0.023364257812499997
0.020947265625
0.022558593749999998
0.0201416015625
0.022558593749999998
0.0249755859375
0.017724609375
0.0281982421875
0.026586914062499998
0.18852539062499998
0.30051269531249997
0.4278076171875
0.6662841796875
0.8266113281249999
0.024169921875
0.020947265625
0.022558593749999998
0.017724609375
0.23203125
0.79921875
3.0220458984375
3.021240234375
3.0236572265625
3.0228515624999996
3.02607421875
3.01962890625
3.0204345703124997
3.0252685546875
3.0244628906249997
2.9156982421874997
2.7811523437499996
2.5885986328125
2.3920166015624997
2.2357177734375
1.9714599609374999
3.02607421875
3.0244628906249997
3.0268798828124996
3.02607421875
2.8931396484375
2.4548583984375
0.6872314453124999
0.0201416015625
0.024169921875
0.023364257812499997
0.0217529296875
0.018530273437499998
0.017724609375
0.022558593749999998
0.018530273437499998
0.023364257812499997
0.26828613281249997
0.427001953125
0.5583251953125
0.7387939453125
0.9224853515625
0.023364257812499997
0.0281982421875
0.020947265625
0.020947265625
0.1571044921875
0.5454345703125
3.0268798828124996
3.0228515624999996
3.0244628906249997
3.0204345703124997
3.0244628906249997
3.0244628906249997
3.0284912109374997
3.0236572265625
3.0244628906249997
3.027685546875
2.9205322265625
2.642578125
2.463720703125
2.2614990234375
2.0520263671875
3.0228515624999996
3.0228515624999996
3.0236572265625
3.0236572265625
3.0099609375
2.512060546875
1.029638671875
0.019335937499999997
0.0201416015625
0.023364257812499997
0.018530273437499998
0.019335937499999997
0.0217529296875
0.020947265625
0.0217529296875
0.0201416015625
0.19497070312499998
0.362548828125
0.49467773437499996
0.765380859375
0.942626953125
0.024169921875
0.0217529296875
0.0249755859375
0.018530273437499998
0.045117187499999996
0.5132080078125
1.4848388671875
3.0228515624999996
3.01962890625
3.02607421875
3.02607421875
3.0244628906249997
3.0244628906249997
3.02607421875
3.0228515624999996
2.9390625
2.8254638671874996
2.6981689453124997
2.47822265625
2.360595703125
2.1793212890625
2.1221191406249997
3.0244628906249997
3.027685546875
3.0164062499999997
3.0268798828124996
2.6844726562499996
1.9384277343749998
0.020947265625
0.024169921875
0.026586914062499998
0.024169921875
0.023364257812499997
0.019335937499999997
0.02578125
0.023364257812499997
0.019335937499999997
0.1619384765625
0.2553955078125
0.4922607421875
0.6380859375
1.06669921875
0.022558593749999998
0.026586914062499998
0.0217529296875
0.0217529296875
0.0217529296875
0.3955810546875
0.9289306640624999
3.027685546875
3.0244628906249997
3.0236572265625
3.01962890625
3.0252685546875
3.0244628906249997
3.027685546875
3.0268798828124996
3.0244628906249997
3.018017578125
2.7690673828124996
2.6119628906249996
2.4355224609375
2.2365234375
1.9376220703125
3.0268798828124996
3.0244628906249997
3.0204345703124997
3.02607421875
2.8399658203125
2.0214111328124997
0.5647705078124999
0.022558593749999998
0.023364257812499997
0.0249755859375
0.0201416015625
0.017724609375
0.018530273437499998
0.020947265625
0.022558593749999998
0.0966796875
0.20866699218749998
0.375439453125
0.5736328125
0.7863281249999999
0.9031494140624999
0.019335937499999997
0.022558593749999998
0.0217529296875
0.0281982421875
0.159521484375
0.9007324218749999
3.0244628906249997
3.0309082031249996
3.0252685546875
3.0228515624999996
3.0236572265625
3.0236572265625
3.0244628906249997
3.0252685546875
3.0244628906249997
2.9769287109375
2.7972656249999996
2.7336181640625
2.5370361328124997
2.2236328125
2.0625
3.0244628906249997
3.0236572265625
3.0236572265625
3.0268798828124996
2.9326171875
2.4766113281249997
0.8322509765624999
0.020947265625
0.0217529296875
0.018530273437499998
0.023364257812499997
0.022558593749999998
0.0169189453125
0.020947265625
0.0217529296875
0.0217529296875
0.20302734374999998
0.33193359375
0.6066650390625
0.8306396484374999
0.9853271484374999
0.0201416015625
0.017724609375
0.020947265625
0.027392578124999997
0.17241210937499998
0.58974609375
2.7126708984374996
3.0236572265625
3.01962890625
3.0252685546875
3.0220458984375
3.02607421875
3.0244628906249997
3.0268798828124996
3.0236572265625
2.9358398437499997
2.7996826171875
2.6683593749999996
2.4580810546875
2.2913085937499997
2.0431640625
3.0252685546875
3.01962890625
3.02607421875
3.0309082031249996
3.01318359375
2.566845703125
1.7772949218749998
0.017724609375
0.022558593749999998
0.022558593749999998
0.0169189453125
0.020947265625
0.023364257812499997
0.020947265625
0.0249755859375
0.014501953125
0.24089355468749998
0.47050781249999996
0.5889404296874999
0.765380859375
0.9837158203124999
0.0217529296875
0.020947265625
0.022558593749999998
0.022558593749999998
0.0749267578125
0.4278076171875
2.247802734375
3.0236572265625
3.0244628906249997
3.0228515624999996
3.027685546875
3.0228515624999996
3.0244628906249997
3.0228515624999996
3.0244628906249997
3.0268798828124996
2.8818603515624996
2.69736328125
2.5305908203125
2.2993652343749997
2.0375244140624997
3.021240234375
3.0236572265625
3.0252685546875
3.01962890625
3.0188232421874996
2.5877929687499996
1.662890625
0.19013671875
0.024169921875
0.0249755859375
0.022558593749999998
0.0217529296875
0.02578125
0.018530273437499998
0.02578125
0.026586914062499998
0.13615722656249998
0.24169921875
0.43425292968749996
0.6533935546874999
0.7742431640624999
0.0201416015625
0.033032226562499996
0.01611328125
0.020947265625
0.020947265625
0.4680908203125
1.08603515625
3.01962890625
3.0252685546875
3.0284912109374997
3.0244628906249997
3.0244628906249997
3.0220458984375
3.0252685546875
3.0268798828124996
3.0252685546875
2.8778320312499996
2.771484375
2.66513671875
2.405712890625
2.1785156249999997
1.9392333984374999
3.021240234375
3.0236572265625
3.0236572265625
3.02607421875
2.784375
2.1938232421875
0.5712158203125
0.022558593749999998
0.0217529296875
0.022558593749999998
0.02578125
0.023364257812499997
0.024169921875
0.018530273437499998
0.023364257812499997
0.0201416015625
0.2618408203125
0.5180419921875
0.74443359375
0.9305419921875
0.5204589843749999
0.0217529296875
0.022558593749999998
0.022558593749999998
0.022558593749999998
0.201416015625
0.717041015625
3.01962890625
3.021240234375
3.0228515624999996
3.0236572265625
3.021240234375
3.0268798828124996
3.0228515624999996
3.0236572265625
2.921337890625
2.921337890625
2.843994140625
2.6296874999999997
2.4886962890624997
2.3211181640625
2.0334960937499997
3.0244628906249997
3.0244628906249997
3.0252685546875
3.027685546875
2.9269775390625
2.5386474609375
0.575244140625
0.020947265625
0.0217529296875
0.020947265625
0.0201416015625
0.0281982421875
0.026586914062499998
0.0217529296875
0.017724609375
0.022558593749999998
0.18369140625
0.32951660156249996
0.5196533203125
0.64775390625
0.8741455078125
0.01611328125
0.024169921875
0.0201416015625
0.020947265625
0.1796630859375
0.5736328125
3.0204345703124997
3.0244628906249997
3.0244628906249997
3.0204345703124997
3.0284912109374997
3.0309082031249996
3.02607421875
3.0268798828124996
3.0244628906249997
3.0228515624999996
2.8109619140624997
2.6739990234374997
2.5265625
2.3235351562499997
2.11083984375
3.0252685546875
3.027685546875
3.0252685546875
3.0244628906249997
3.018017578125
2.5652343749999997
1.052197265625
0.017724609375
0.014501953125
0.0217529296875
0.022558593749999998
0.01611328125
0.026586914062499998
0.020947265625
0.02578125
0.022558593749999998
0.15791015625
0.25217285156249997
0.38510742187499997
0.6308349609374999
0.8040527343749999
0.0217529296875
0.023364257812499997
0.0217529296875
0.02578125
0.008056640625
0.5712158203125
1.36962890625
3.027685546875
3.0244628906249997
3.0252685546875
3.021240234375
3.0236572265625
3.0252685546875
3.021240234375
3.021240234375
3.0244628906249997
2.9261718749999996
2.7900146484375
2.578125
2.4065185546875
2.2518310546875
3.0220458984375
3.0268798828124996
3.027685546875
3.0252685546875
3.0244628906249997
2.6603027343749996
1.973876953125
0.0217529296875
0.026586914062499998
0.01611328125
0.020947265625
0.023364257812499997
0.022558593749999998
0.02578125
0.026586914062499998
0.024169921875
0.019335937499999997
0.2183349609375
0.4568115234375
0.6324462890625
0.8548095703124999
0.020947265625
0.023364257812499997
0.02578125
0.022558593749999998
0.017724609375
0.2860107421875
1.0159423828125
3.0252685546875
3.0228515624999996
3.0244628906249997
3.02607421875
3.0244628906249997
3.02607421875
3.0244628906249997
3.027685546875
3.02607421875
2.9020019531249996
2.7336181640625
2.6369384765625
2.4443847656249997
2.2212158203125
2.0133544921874997
3.0252685546875
3.0244628906249997
3.0220458984375
3.0228515624999996
2.9285888671875
2.0971435546875
0.6405029296875
0.0217529296875
0.0217529296875
0.01611328125
0.024169921875
0.0169189453125
0.0249755859375
0.027392578124999997
0.018530273437499998
0.1200439453125
0.207861328125
0.323876953125
0.4842041015625
0.7379882812499999
0.929736328125
0.020947265625
0.0217529296875
0.0217529296875
0.0394775390625
0.18449707031249998
0.9643798828125
3.0228515624999996
3.0164062499999997
3.0284912109374997
3.0236572265625
3.0268798828124996
3.0252685546875
3.0268798828124996
3.029296875
3.0244628906249997
2.977734375
2.7561767578125
2.5966552734375
2.3646240234375
2.4258544921875
2.05927734375
3.0301025390625
3.0244628906249997
3.0244628906249997
3.0236572265625
3.001904296875
2.40732421875
0.8854248046875
0.0217529296875
0.026586914062499998
0.020947265625
0.023364257812499997
0.026586914062499998
0.0201416015625
0.0217529296875
0.02578125
0.022558593749999998
0.1264892578125
0.270703125
0.53818359375
0.7339599609374999
0.9015380859375
0.020947265625
0.022558593749999998
0.022558593749999998
0.0217529296875
0.214306640625
0.4729248046875
1.8957275390625
3.0244628906249997
3.0172119140625
3.0236572265625
3.0252685546875
3.0301025390625
3.0236572265625
3.02607421875
3.0309082031249996
2.9720947265624997
2.91328125
2.753759765625
2.5708740234375
2.39443359375
2.23974609375
3.021240234375
3.0220458984375
3.01962890625
3.0236572265625
2.9342285156249996
2.5112548828124996
1.7974365234374998
0.02578125
0.023364257812499997
0.022558593749999998
0.017724609375
0.0249755859375
0.0201416015625
0.020947265625
0.02578125
0.0217529296875
0.16032714843749998
0.3907470703125
0.517236328125
0.694482421875
0.9385986328125
0.022558593749999998
0.023364257812499997
0.017724609375
0.0201416015625
0.022558593749999998
0.49306640625
1.132763671875
3.0244628906249997
3.0236572265625
3.0236572265625
3.0228515624999996
3.0228515624999996
3.0244628906249997
3.0244628906249997
3.0204345703124997
3.0244628906249997
2.9156982421874997
2.7158935546875
2.5394531249999996
2.4339111328125
2.1325927734375
2.5950439453125
3.0244628906249997
3.0268798828124996
3.018017578125
3.02607421875
2.7722900390625
1.9223144531249998
0.3520751953125
0.0217529296875
0.022558593749999998
0.0217529296875
0.022558593749999998
0.0217529296875
0.020947265625
0.022558593749999998
0.026586914062499998
0.1297119140625
0.24089355468749998
0.42861328125
0.6517822265625
0.8040527343749999
0.3343505859375
0.0281982421875
0.0217529296875
0.026586914062499998
0.018530273437499998
0.10151367187499999
1.044140625
3.0244628906249997
3.0244628906249997
3.0244628906249997
3.02607421875
3.021240234375
3.0236572265625
3.0252685546875
3.027685546875
3.0236572265625
2.96484375
2.7529541015624996
2.6143798828125
2.3823486328125
2.1084228515625
1.9867675781249998
3.0301025390625
3.01962890625
3.0244628906249997
3.0220458984375
2.8641357421875
2.263916015625
0.726708984375
0.023364257812499997
0.019335937499999997
0.022558593749999998
0.023364257812499997
0.02578125
0.0217529296875
0.030615234374999998
0.0298095703125
0.020947265625
0.19658203124999998
0.29326171875
0.543017578125
0.7210693359375
0.8749511718749999
0.022558593749999998
0.020947265625
0.023364257812499997
0.020947265625
0.15468749999999998
0.5889404296874999
2.8834716796874997
3.02607421875
3.0252685546875
3.027685546875
3.0244628906249997
3.0244628906249997
3.0244628906249997
3.0228515624999996
3.027685546875
3.0067382812499996
2.843994140625
2.6844726562499996
2.518505859375
2.3565673828125
2.1245361328125
3.0244628906249997
3.0236572265625
3.0236572265625
3.0228515624999996
2.8802490234375
2.5168945312499997
0.52529296875
0.022558593749999998
0.0217529296875
0.0217529296875
0.023364257812499997
0.023364257812499997
0.020947265625
0.0249755859375
0.0217529296875
0.024169921875
0.1377685546875
0.41733398437499997
0.56396484375
0.6977050781249999
0.9418212890625
0.020947265625
0.020947265625
0.0217529296875
0.018530273437499998
0.0249755859375
0.4318359375
2.5636230468749996
3.0228515624999996
3.0236572265625
3.0236572265625
3.0244628906249997
3.0244628906249997
3.021240234375
3.0204345703124997
3.029296875
3.0252685546875
2.79404296875
2.698974609375
2.5483154296875
2.305810546875
2.096337890625
3.02607421875
3.0228515624999996
3.0268798828124996
3.0244628906249997
3.021240234375
2.5894042968749997
1.4413330078125
0.018530273437499998
0.0249755859375
0.0201416015625
0.024169921875
0.020947265625
0.020947265625
0.020947265625
0.024169921875
0.03544921875
0.1345458984375
0.265869140625
0.36899414062499997
0.64453125
0.863671875
0.023364257812499997
0.0217529296875
0.0217529296875
0.020947265625
0.0217529296875
0.533349609375
1.22783203125
3.0228515624999996
3.0244628906249997
3.02607421875
3.0228515624999996
3.0228515624999996
3.021240234375
3.0268798828124996
3.0228515624999996
3.0252685546875
2.86494140625
2.776318359375
2.560400390625
2.37509765625
2.1954345703125
1.9835449218749999
3.0244628906249997
3.0244628906249997
3.0228515624999996
3.0220458984375
2.7110595703125
2.0536376953124997
0.06767578125
0.0217529296875
0.018530273437499998
0.0217529296875
0.023364257812499997
0.023364257812499997
0.020947265625
0.01611328125
0.023364257812499997
0.019335937499999997
0.2553955078125
0.53173828125
0.47373046874999997
0.9555175781249999
0.024169921875
0.020947265625
0.0217529296875
0.020947265625
0.024169921875
0.22880859374999998
0.7919677734374999
3.027685546875
3.0244628906249997
3.02607421875
3.0236572265625
3.0284912109374997
3.0244628906249997
3.0268798828124996
3.0244628906249997
3.0252685546875
2.9116699218749997
2.7706787109374997
2.6458007812499997
2.4645263671874997
2.2993652343749997
1.998046875
3.0236572265625
3.0244628906249997
3.02607421875
3.0228515624999996
2.9092529296875
2.2002685546875
0.588134765625
0.017724609375
0.022558593749999998
0.02578125
0.0217529296875
0.0201416015625
0.02578125
0.022558593749999998
0.0217529296875
0.020947265625
0.2360595703125
0.39638671875
0.5293212890625
0.7355712890624999
0.878173828125
0.0249755859375
0.020947265625
0.022558593749999998
0.020947265625
0.19094238281249998
0.87978515625
3.0236572265625
3.0204345703124997
3.0236572265625
3.02607421875
3.0244628906249997
3.0236572265625
3.0244628906249997
3.0268798828124996
3.0244628906249997
2.8681640625
2.7932373046874996
2.6288818359375
2.4685546874999997
2.1954345703125
2.0246337890625
3.027685546875
3.0204345703124997
3.0220458984375
3.0236572265625
2.8899169921874996
2.5499267578125
0.97646484375
0.0249755859375
0.022558593749999998
0.026586914062499998
0.02578125
0.0169189453125
0.019335937499999997
0.017724609375
0.022558593749999998
0.020947265625
0.20947265625
0.35690917968749997
0.5712158203125
0.671923828125
0.837890625
0.0217529296875
0.026586914062499998
0.023364257812499997
0.026586914062499998
0.22880859374999998
0.562353515625
1.4429443359374998
3.0252685546875
3.02607421875
3.0220458984375
3.0244628906249997
3.0301025390625
3.0244628906249997
3.0236572265625
3.027685546875
3.0252685546875
2.9422851562499996
2.7489257812499996
2.5233398437499996
2.3307861328125
2.0874755859375
3.02607421875
3.0244628906249997
3.0244628906249997
3.02607421875
3.02607421875
2.6514404296875
1.8788085937499999
0.020947265625
0.01611328125
0.02578125
0.019335937499999997
0.020947265625
0.019335937499999997
0.019335937499999997
0.0217529296875
0.0217529296875
0.104736328125
0.37060546875
0.4962890625
0.42136230468749997
0.8701171875
0.026586914062499998
0.022558593749999998
0.0217529296875
0.020947265625
0.026586914062499998
0.35126953125
1.018359375
3.0244628906249997
3.0268798828124996
3.021240234375
3.0268798828124996
3.0220458984375
3.0244628906249997
3.0244628906249997
3.0244628906249997
3.02607421875
2.8915283203124997
2.7505371093749997
2.5692626953124997
2.44921875
2.15595703125
2.14306640625
3.0188232421874996
3.02607421875
3.0284912109374997
3.0244628906249997
2.8818603515624996
1.996435546875
0.42216796874999996
0.01611328125
0.0201416015625
0.024169921875
0.0217529296875
0.023364257812499997
0.0201416015625
0.0217529296875
0.0201416015625
0.0926513671875
0.18369140625
0.36496582031249997
0.5365722656249999
0.7742431640624999
0.8451416015625
0.0201416015625
0.023364257812499997
0.02578125
0.0201416015625
0.18046874999999998
1.0401123046875
3.0244628906249997
3.0228515624999996
3.0244628906249997
3.0204345703124997
3.02607421875
3.0228515624999996
3.0188232421874996
3.0228515624999996
3.0244628906249997
3.0059326171875
2.8367431640625
2.6192138671875
2.43310546875
2.22041015625
2.0504150390625
3.0236572265625
3.0244628906249997
3.021240234375
3.0244628906249997
2.882666015625
2.3759033203124997
0.8443359374999999
0.018530273437499998
0.020947265625
0.0298095703125
0.023364257812499997
0.0217529296875
0.020947265625
0.023364257812499997
0.0217529296875
0.0684814453125
0.24492187499999998
0.37705078124999997
0.5824951171875
0.71865234375
0.8451416015625
0.015307617187499999
0.022558593749999998
0.022558593749999998
0.017724609375
0.1538818359375
0.5808837890624999
2.2776123046875
3.029296875
3.0228515624999996
3.0236572265625
3.0236572265625
3.0236572265625
3.0220458984375
3.0236572265625
3.0236572265625
3.0236572265625
2.8464111328125
2.7102539062499997
2.5072265624999996
2.3799316406249997
2.14306640625
3.0244628906249997
3.0252685546875
3.0188232421874996
3.0220458984375
2.9422851562499996
2.5660400390625
0.7049560546875
0.020947265625
0.022558593749999998
0.0201416015625
0.020947265625
0.023364257812499997
0.0249755859375
0.0217529296875
0.0249755859375
0.0217529296875
0.1740234375
0.32145996093749996
0.5228759765625
0.678369140625
0.9168457031249999
0.0217529296875
0.023364257812499997
0.02578125
0.022558593749999998
0.08540039062499999
0.6751464843749999
2.642578125
3.0188232421874996
3.0228515624999996
3.0236572265625
3.02607421875
3.0228515624999996
3.0220458984375
3.0244628906249997
3.0236572265625
3.0228515624999996
2.8512451171874997
2.6925292968749996
2.4886962890624997
2.2727783203125
2.0576660156249997
3.0268798828124996
3.0228515624999996
3.0252685546875
3.0220458984375
3.029296875
2.6192138671875
1.9150634765624999
0.20705566406249998
0.0201416015625
0.027392578124999997
0.0217529296875
0.022558593749999998
0.023364257812499997
0.026586914062499998
0.026586914062499998
0.018530273437499998
0.1377685546875
0.26425781249999997
0.4245849609375
0.6670898437499999
0.85400390625
0.0249755859375
0.023364257812499997
0.019335937499999997
0.0169189453125
0.022558593749999998
0.45439453124999996
1.1577392578124999
3.02607421875
3.027685546875
3.01962890625
3.01962890625
3.0236572265625
3.0172119140625
3.0236572265625
3.0236572265625
3.021240234375
2.8029052734374997
2.705419921875
2.5112548828124996
2.3823486328125
2.2187988281249997
2.018994140625
3.0156005859375
3.0236572265625
3.021240234375
3.0172119140625
2.7593994140625
2.1116455078125
0.2118896484375
0.0217529296875
0.019335937499999997
0.026586914062499998
0.020947265625
0.0217529296875
0.023364257812499997
0.022558593749999998
0.02578125
0.0845947265625
0.230419921875
0.49306640625
0.66064453125
0.837890625
0.0201416015625
0.015307617187499999
0.022558593749999998
0.020947265625
0.0217529296875
0.1780517578125
0.734765625
3.0228515624999996
3.01962890625
3.0228515624999996
3.0252685546875
3.0252685546875
3.0252685546875
3.01962890625
3.0244628906249997
3.0228515624999996
2.9986816406249996
2.8053222656249996
2.6441894531249996
2.4943359375
2.281640625
2.035107421875
3.0236572265625
3.021240234375
3.0252685546875
3.0244628906249997
2.9124755859375
2.204296875
0.485009765625
0.023364257812499997
0.0249755859375
0.01611328125
0.0169189453125
0.022558593749999998
0.0217529296875
0.018530273437499998
0.023364257812499997
0.0201416015625
0.22880859374999998
0.40122070312499997
0.56396484375
0.8129150390625
0.961962890625
0.0201416015625
0.023364257812499997
0.0169189453125
0.0217529296875
0.21914062499999998
0.688037109375
3.001904296875
3.029296875
3.021240234375
3.0236572265625
3.0244628906249997
3.0244628906249997
3.0244628906249997
3.0220458984375
3.027685546875
3.0188232421874996
2.7561767578125
2.6232421875
2.6159912109374996
2.1712646484375
1.9996582031249999
3.0236572265625
3.0244628906249997
3.0236572265625
3.0236572265625
2.8738037109374996
2.5410644531249997
1.02802734375
0.0201416015625
0.017724609375
0.0217529296875
0.022558593749999998
0.0169189453125
0.0217529296875
0.0217529296875
0.0217529296875
0.022558593749999998
0.141796875
0.2038330078125
0.41572265625
0.5865234375
0.7782714843749999
0.023364257812499997
0.020947265625
0.0217529296875
0.022558593749999998
0.17080078124999998
0.5341552734375
1.41796875
3.0236572265625
3.027685546875
3.0244628906249997
3.0236572265625
3.0236572265625
3.0244628906249997
3.01962890625
3.0244628906249997
3.0244628906249997
2.9414794921875
2.7513427734375
2.578125
2.384765625
2.21396484375
3.0252685546875
3.02607421875
3.0252685546875
3.027685546875
3.0268798828124996
2.60068359375
1.8457763671874998
0.023364257812499997
0.017724609375
0.0217529296875
0.0217529296875
0.02578125
0.0217529296875
0.0217529296875
0.0217529296875
0.022558593749999998
0.207861328125
0.34160156249999996
0.510791015625
0.6010253906249999
0.7557128906249999
0.023364257812499997
0.024169921875
0.023364257812499997
0.0217529296875
0.02578125
0.3343505859375
0.928125
3.0268798828124996
3.0228515624999996
3.02607421875
3.0228515624999996
3.01962890625
3.0236572265625
3.02607421875
3.0236572265625
3.01962890625
2.9342285156249996
2.7593994140625
2.6441894531249996
2.4838623046875
2.2647216796875
2.08828125
3.021240234375
3.021240234375
3.02607421875
3.0252685546875
2.91328125
2.0407470703125
0.4125
0.022558593749999998
0.0217529296875
0.0281982421875
0.0217529296875
0.0217529296875
0.022558593749999998
0.026586914062499998
0.022558593749999998
0.06606445312499999
0.25217285156249997
0.41330566406249997
0.581689453125
0.7669921875
0.881396484375
0.020947265625
0.017724609375
0.017724609375
0.0217529296875
0.1393798828125
0.8668945312499999
3.0244628906249997
3.0236572265625
3.0228515624999996
3.0244628906249997
3.0284912109374997
3.0268798828124996
3.0244628906249997
3.01962890625
3.0268798828124996
2.9914306640625
2.7722900390625
2.6385498046875
2.2051025390625
2.2663330078125
2.1035888671875
3.02607421875
3.021240234375
3.0244628906249997
3.0284912109374997
2.8874999999999997
2.486279296875
0.8902587890625
0.0217529296875
0.0249755859375
0.023364257812499997
0.0217529296875
0.022558593749999998
0.0201416015625
0.0201416015625
0.022558593749999998
0.0217529296875
0.14018554687499998
0.2634521484375
0.4519775390625
0.6292236328124999
0.7927734375
0.022558593749999998
0.020947265625
0.022558593749999998
0.0201416015625
0.1345458984375
0.44633789062499996
1.7692382812499998
3.0236572265625
3.0244628906249997
3.0204345703124997
3.0244628906249997
3.02607421875
3.01962890625
3.0244628906249997
3.0220458984375
3.0236572265625
2.9020019531249996
2.7336181640625
2.5974609374999997
2.4322998046874997
2.228466796875
3.0252685546875
3.0252685546875
3.0244628906249997
3.0204345703124997
3.0164062499999997
2.6780273437499997
0.8451416015625
0.020947265625
0.02578125
0.023364257812499997
0.0217529296875
0.024169921875
0.015307617187499999
0.022558593749999998
0.022558593749999998
0.0201416015625
0.38994140624999996
0.3552978515625
0.5164306640624999
0.7162353515625
0.8991210937499999
0.023364257812499997
0.018530273437499998
0.0217529296875
0.022558593749999998
0.0990966796875
0.43505859375
2.5483154296875
3.0236572265625
3.0244628906249997
3.01962890625
3.0236572265625
3.0228515624999996
3.0236572265625
3.0188232421874996
3.0252685546875
3.0236572265625
2.848828125
2.6860839843749997
2.5877929687499996
2.3452880859375
2.18818359375
3.0204345703124997
3.021240234375
3.01962890625
3.0204345703124997
3.0284912109374997
2.6176025390624997
1.9698486328125
0.301318359375
0.0217529296875
0.0217529296875
0.022558593749999998
0.0217529296875
0.019335937499999997
0.023364257812499997
0.022558593749999998
0.020947265625
0.08701171875
0.17724609375
0.36496582031249997
0.58974609375
0.7194580078124999
0.018530273437499998
0.022558593749999998
0.018530273437499998
0.0249755859375
0.0169189453125
0.37060546875
1.0449462890624999
3.0244628906249997
3.0228515624999996
3.027685546875
3.0228515624999996
3.0244628906249997
3.027685546875
3.0244628906249997
3.029296875
3.02607421875
2.9970703125
2.81015625
2.6369384765625
2.49755859375
2.3638183593749997
2.1003662109375
3.0252685546875
3.0228515624999996
3.0244628906249997
3.0220458984375
3.0252685546875
2.3178955078125
0.5285156249999999
0.02578125
0.020947265625
0.019335937499999997
0.0281982421875
0.022558593749999998
0.018530273437499998
0.0169189453125
0.023364257812499997
0.02578125
0.09748535156249999
0.269091796875
0.40927734374999997
0.6211669921874999
0.29648437499999997
0.017724609375
0.019335937499999997
0.020947265625
0.0249755859375
0.124072265625
0.6260009765625
3.0236572265625
3.0236572265625
3.02607421875
3.02607421875
3.027685546875
3.0204345703124997
3.0228515624999996
3.0252685546875
3.029296875
3.0244628906249997
2.9253662109375
2.7819580078125
2.657080078125
2.4419677734375
2.2486083984375
3.0268798828124996
3.0220458984375
3.02607421875
3.0228515624999996
3.0067382812499996
2.3783203125
0.7299316406249999
0.0169189453125
0.022558593749999998
0.020947265625
0.0201416015625
0.02578125
0.019335937499999997
0.022558593749999998
0.018530273437499998
0.022558593749999998
0.20705566406249998
0.285205078125
0.4487548828125
0.6775634765624999
0.7355712890624999
0.020947265625
0.020947265625
0.012890625
0.0169189453125
0.0217529296875
0.46083984375
2.7489257812499996
3.0236572265625
3.027685546875
3.0244628906249997
3.0204345703124997
3.02607421875
3.0220458984375
3.02607421875
3.0228515624999996
3.02607421875
2.9688720703125
2.8552734374999997
2.8069335937499997
2.5676513671874996
2.3791259765625
3.01962890625
3.0244628906249997
3.0236572265625
3.0252685546875
3.0228515624999996
2.7392578125
1.7531249999999998
0.14501953125
0.024169921875
0.027392578124999997
0.020947265625
0.022558593749999998
0.020947265625
0.023364257812499997
0.022558593749999998
0.0217529296875
0.059619140625
0.1554931640625
0.36174316406249996
0.5406005859374999
0.6405029296875
0.023364257812499997
0.020947265625
0.022558593749999998
0.020947265625
0.01611328125
0.3069580078125
1.042529296875
3.0252685546875
3.0244628906249997
3.0228515624999996
3.0236572265625
3.0244628906249997
3.021240234375
3.029296875
3.01962890625
3.0252685546875
2.9575927734375
2.874609375
2.6820556640624997
2.5080322265625
2.33642578125
3.0252685546875
3.0244628906249997
3.01962890625
3.0244628906249997
3.0236572265625
2.8141845703125
2.3323974609375
0.230419921875
0.02900390625
0.027392578124999997
0.020947265625
0.0217529296875
0.022558593749999998
0.020947265625
0.018530273437499998
0.024169921875
0.061230468749999996
0.1635498046875
0.5003173828124999
0.38107910156249997
0.49064941406249996
0.024169921875
0.019335937499999997
0.024169921875
0.017724609375
0.0201416015625
0.0201416015625
0.6171386718749999
3.0228515624999996
3.0284912109374997
3.0204345703124997
3.02607421875
3.0244628906249997
3.0228515624999996
3.02607421875
3.0244628906249997
3.0244628906249997
2.9173095703125
2.7320068359375
2.60068359375
2.3912109375
2.21396484375
1.98837890625
3.0244628906249997
3.02607421875
3.0244628906249997
3.0252685546875
3.01962890625
2.2969482421875
0.71865234375
0.0201416015625
0.026586914062499998
0.022558593749999998
0.026586914062499998
0.022558593749999998
0.0217529296875
0.0249755859375
0.019335937499999997
0.015307617187499999
0.1297119140625
0.2618408203125
0.36496582031249997
0.53173828125
0.655810546875
0.022558593749999998
0.020947265625
0.017724609375
0.020947265625
0.0249755859375
0.5244873046874999
2.9672607421875
3.0244628906249997
3.029296875
3.0236572265625
3.0244628906249997
3.0188232421874996
3.0268798828124996
3.0204345703124997
3.0244628906249997
3.029296875
2.9221435546874996
2.82626953125
2.711865234375
2.5958496093749996
2.4169921875
3.0309082031249996
3.0236572265625
3.01962890625
3.027685546875
3.0228515624999996
2.7271728515625
1.1351806640625
0.026586914062499998
0.02578125
0.0249755859375
0.0217529296875
0.020947265625
0.0201416015625
0.0201416015625
0.018530273437499998
0.02578125
0.0555908203125
0.0765380859375
0.2280029296875
0.33757324218749996
0.45761718749999997
0.022558593749999998
0.0169189453125
0.020947265625
0.027392578124999997
0.023364257812499997
0.17724609375
1.036083984375
3.018017578125
3.0236572265625
3.0236572265625
3.0301025390625
3.027685546875
3.0244628906249997
3.02607421875
3.0244628906249997
3.027685546875
2.9447021484375
2.7755126953125
2.711865234375
2.5845703125
2.36865234375
3.027685546875
3.0252685546875
3.0220458984375
3.029296875
3.0244628906249997
2.779541015625
1.132763671875
0.018530273437499998
0.0217529296875
0.0201416015625
0.0201416015625
0.0217529296875
0.022558593749999998
0.023364257812499997
0.0217529296875
0.0201416015625
0.017724609375
0.091845703125
0.2135009765625
0.378662109375
0.507568359375
0.022558593749999998
0.023364257812499997
0.022558593749999998
0.0249755859375
0.022558593749999998
0.15791015625
1.3792968749999999
3.0228515624999996
3.0244628906249997
3.0188232421874996
3.0236572265625
3.02607421875
3.0236572265625
3.0204345703124997
3.02607421875
3.02607421875
3.018017578125
2.9092529296875
2.81015625
2.6119628906249996
2.463720703125
2.5950439453125
3.0244628906249997
3.0268798828124996
3.0236572265625
3.0236572265625
2.8681640625
2.23330078125
0.6493652343749999
0.020947265625
0.0169189453125
0.022558593749999998
0.017724609375
0.020947265625
0.0217529296875
0.022558593749999998
0.0217529296875
0.0281982421875
0.1538818359375
0.298095703125
0.5124023437499999
0.6493652343749999
0.45439453124999996
0.018530273437499998
0.0169189453125
0.0217529296875
0.020947265625
0.038671874999999994
0.7283203125
3.021240234375
3.0236572265625
3.029296875
3.0236572265625
3.0236572265625
3.0228515624999996
3.0236572265625
3.0236572265625
3.021240234375
3.02607421875
2.9011962890625
2.7650390624999996
2.5902099609375
2.489501953125
2.3050048828125
3.021240234375
3.0244628906249997
3.0252685546875
3.0268798828124996
3.0244628906249997
2.5918212890624996
0.8523925781249999
0.022558593749999998
0.0217529296875
0.022558593749999998
0.022558593749999998
0.022558593749999998
0.024169921875
0.020947265625
0.020947265625
0.0217529296875
0.022558593749999998
0.141796875
0.3101806640625
0.46567382812499997
0.55107421875
0.0217529296875
0.022558593749999998
0.024169921875
0.0217529296875
0.024169921875
0.269091796875
2.9543701171874996
3.0236572265625
3.0244628906249997
3.0236572265625
3.0236572265625
3.0236572265625
3.02607421875
3.0236572265625
3.0244628906249997
3.02607421875
2.9342285156249996
2.8383544921875
2.7247558593749996
2.5370361328124997
2.3227294921875
3.01962890625
3.0252685546875
3.0252685546875
3.0268798828124996
3.0244628906249997
2.5757080078124996
0.9974121093749999
0.026586914062499998
0.0169189453125
0.0249755859375
0.0169189453125
0.0217529296875
0.023364257812499997
0.0201416015625
0.02578125
0.020947265625
0.1168212890625
0.16274414062499998
0.29970703125
0.507568359375
0.5406005859374999
0.022558593749999998
0.020947265625
0.022558593749999998
0.014501953125
0.0169189453125
0.19658203124999998
2.312255859375
3.0268798828124996
3.0188232421874996
3.0268798828124996
3.029296875
3.0244628906249997
3.0244628906249997
3.0220458984375
3.0244628906249997
3.021240234375
3.0139892578125
2.9253662109375
2.8302978515625
2.6707763671875
2.5152832031249996
3.0252685546875
3.027685546875
3.01962890625
3.0244628906249997
3.0236572265625
2.7819580078125
2.086669921875
0.37785644531249996
0.0217529296875
0.022558593749999998
0.0249755859375
0.0217529296875
0.020947265625
0.02578125
0.018530273437499998
0.0249755859375
0.0217529296875
0.1119873046875
0.28037109374999997
0.40283203125
0.475341796875
0.0249755859375
0.022558593749999998
0.022558593749999998
0.0201416015625
0.020947265625
0.136962890625
0.8201660156249999
3.029296875
3.0252685546875
3.027685546875
3.027685546875
3.0244628906249997
3.029296875
3.0220458984375
3.0244628906249997
3.0236572265625
2.96484375
2.8834716796874997
2.7730957031249996
2.6490234375
2.5225341796875
3.0244628906249997
3.0252685546875
3.027685546875
3.0252685546875
3.0236572265625
3.027685546875
2.0173828124999997
0.501123046875
0.0201416015625
0.0217529296875
0.0217529296875
0.022558593749999998
0.0217529296875
0.022558593749999998
0.0217529296875
0.019335937499999997
0.0217529296875
0.024169921875
0.0459228515625
0.22075195312499998
0.31743164062499996
0.019335937499999997
0.024169921875
0.020947265625
0.023364257812499997
0.0201416015625
0.022558593749999998
0.5953857421875
3.0228515624999996
3.0301025390625
3.0236572265625
3.0284912109374997
3.0236572265625
3.0236572265625
3.0244628906249997
3.0236572265625
3.02607421875
3.0268798828124996
2.9720947265624997
2.8947509765625
2.8125732421875
2.608740234375
2.42666015625
3.0204345703124997
3.0244628906249997
3.01962890625
3.0236572265625
3.0228515624999996
2.4049072265625
0.7968017578125
0.027392578124999997
0.0217529296875
0.022558593749999998
0.020947265625
0.024169921875
0.020947265625
0.017724609375
0.020947265625
0.0217529296875
0.12165527343749999
0.20947265625
0.3907470703125
0.4568115234375
0.631640625
0.020947265625
0.0201416015625
0.0201416015625
0.018530273437499998
0.02900390625
0.3802734375
2.7577880859375
3.0236572265625
3.0228515624999996
3.0236572265625
3.0244628906249997
3.0236572265625
3.0236572265625
3.0244628906249997
3.027685546875
3.0252685546875
2.9342285156249996
2.63935546875
2.6401611328124996
2.521728515625
2.3718749999999997
3.0252685546875
3.0228515624999996
3.0228515624999996
3.0228515624999996
3.0228515624999996
2.763427734375
1.651611328125
0.017724609375
0.020947265625
0.022558593749999998
0.027392578124999997
0.0201416015625
0.0201416015625
0.017724609375
0.0217529296875
0.022558593749999998
0.020947265625
0.1007080078125
0.20625
0.3021240234375
0.3746337890625
0.0169189453125
0.022558593749999998
0.0217529296875
0.022558593749999998
0.019335937499999997
0.191748046875
1.0763671875
3.0244628906249997
3.0244628906249997
3.0244628906249997
3.0220458984375
3.0220458984375
3.0220458984375
3.0252685546875
3.0236572265625
3.027685546875
2.9624267578124996
2.843994140625
2.6949462890625
2.5966552734375
2.415380859375
3.027685546875
3.0244628906249997
3.0244628906249997
3.0268798828124996
3.01962890625
2.8359375
1.4115234374999999
0.12890625
0.0217529296875
0.022558593749999998
0.022558593749999998
0.020947265625
0.022558593749999998
0.0217529296875
0.026586914062499998
0.020947265625
0.0684814453125
0.153076171875
0.310986328125
0.43344726562499997
0.662255859375
0.023364257812499997
0.024169921875
0.023364257812499997
0.023364257812499997
0.022558593749999998
0.033837890625
0.8773681640625
3.0220458984375
3.0244628906249997
3.0244628906249997
3.0244628906249997
3.0228515624999996
3.0228515624999996
3.0204345703124997
3.0236572265625
3.0252685546875
2.979345703125
2.9068359375
2.8391601562499997
2.7046142578124996
2.5877929687499996
2.421826171875
3.02607421875
3.0083496093749997
3.0228515624999996
3.0268798828124996
2.8955566406249997
2.281640625
0.7065673828125
0.0217529296875
0.023364257812499997
0.0249755859375
0.023364257812499997
0.0217529296875
0.018530273437499998
0.020947265625
0.022558593749999998
0.020947265625
0.049145507812499996
0.17644042968749998
0.3472412109375
0.4165283203125
0.53173828125
0.022558593749999998
0.02578125
0.020947265625
0.02578125
0.020947265625
0.6123046875
3.02607421875
3.0220458984375
3.027685546875
3.0236572265625
3.0252685546875
3.0252685546875
3.021240234375
3.0204345703124997
3.0252685546875
3.0236572265625
2.9447021484375
2.7908203124999997
2.6272705078125
2.4451904296875
2.2695556640625
3.0252685546875
3.0236572265625
3.0244628906249997
3.021240234375
3.0188232421874996
2.7021972656249997
0.878173828125
0.023364257812499997
0.022558593749999998
0.017724609375
0.022558593749999998
0.0217529296875
0.0298095703125
0.020947265625
0.020947265625
0.022558593749999998
0.03544921875
0.13857421875
0.278759765625
0.4197509765625
0.6114990234375
0.0217529296875
0.0217529296875
0.022558593749999998
0.020947265625
0.022558593749999998
0.19094238281249998
2.5370361328124997
3.02607421875
3.0252685546875
3.0252685546875
3.0244628906249997
3.0252685546875
3.02607421875
3.0244628906249997
3.0252685546875
3.0228515624999996
2.9712890625
2.914892578125
2.7892089843749996
2.578125
2.431494140625
3.0236572265625
3.0236572265625
3.0236572265625
3.029296875
3.0252685546875
2.7577880859375
1.0626708984375
0.0217529296875
0.022558593749999998
0.020947265625
0.020947265625
0.018530273437499998
0.020947265625
0.0217529296875
0.022558593749999998
0.01611328125
0.023364257812499997
0.0580078125
0.1699951171875
0.35771484374999996
0.5124023437499999
0.0169189453125
0.020947265625
0.022558593749999998
0.0217529296875
0.0217529296875
0.1571044921875
1.2785888671874999
3.0236572265625
3.0236572265625
3.0284912109374997
3.02607421875
3.0244628906249997
3.0244628906249997
3.027685546875
3.0228515624999996
3.0228515624999996
3.0244628906249997
2.92939453125
2.8738037109374996
2.760205078125
2.6530517578125
3.021240234375
3.0268798828124996
3.0228515624999996
3.0236572265625
3.021240234375
2.7827636718749997
2.13662109375
0.018530273437499998
0.020947265625
0.022558593749999998
0.0217529296875
0.020947265625
0.0217529296875
0.0249755859375
0.023364257812499997
0.020947265625
0.0217529296875
0.14824218749999998
0.37060546875
0.44150390624999997
0.562353515625
0.017724609375
0.017724609375
0.0249755859375
0.0217529296875
0.0217529296875
0.09426269531249999
0.7742431640624999
3.0268798828124996
3.0228515624999996
3.0228515624999996
3.0244628906249997
3.0244628906249997
3.0244628906249997
3.0236572265625
3.02607421875
3.0228515624999996
2.9914306640625
2.92939453125
2.8294921874999996
2.6981689453124997
2.5660400390625
2.9882080078124997
3.027685546875
3.0252685546875
3.01962890625
3.0252685546875
3.0228515624999996
2.2341064453125
0.7355712890624999
0.0217529296875
0.017724609375
0.020947265625
0.017724609375
0.0217529296875
0.022558593749999998
0.019335937499999997
0.024169921875
0.0217529296875
0.0555908203125
0.16677246093749998
0.2698974609375
0.42539062499999997
0.0708984375
0.018530273437499998
0.020947265625
0.023364257812499997
0.0249755859375
0.0201416015625
0.65419921875
3.0244628906249997
3.0284912109374997
3.0236572265625
3.021240234375
3.0244628906249997
3.0228515624999996
3.0236572265625
3.02607421875
3.0268798828124996
3.01962890625
2.9849853515625
2.9302001953124996
2.8206298828125
2.6530517578125
2.5305908203125
3.0284912109374997
3.029296875
3.021240234375
3.0252685546875
3.02607421875
2.5088378906249997
0.9933837890624999
0.0249755859375
0.022558593749999998
0.0217529296875
0.022558593749999998
0.022558593749999998
0.023364257812499997
0.02578125
0.02578125
0.018530273437499998
0.1264892578125
0.1732177734375
0.3037353515625
0.3746337890625
0.459228515625
0.017724609375
0.023364257812499997
0.0217529296875
0.020947265625
0.020947265625
0.2989013671875
2.5676513671874996
3.0228515624999996
3.0236572265625
3.0244628906249997
3.02607421875
3.027685546875
3.0244628906249997
3.021240234375
3.0244628906249997
3.0244628906249997
3.01962890625
2.9720947265624997
2.8254638671874996
2.6941406249999997
2.5571777343749997
3.0228515624999996
3.0244628906249997
3.0228515624999996
3.0228515624999996
3.0244628906249997
2.7650390624999996
1.9617919921875
0.019335937499999997
0.02578125
0.022558593749999998
0.0217529296875
0.0249755859375
0.023364257812499997
0.022558593749999998
0.0201416015625
0.024169921875
0.02578125
0.08620605468749999
0.2384765625
0.36174316406249996
0.48178710937499997
0.018530273437499998
0.023364257812499997
0.0217529296875
0.0249755859375
0.020947265625
0.11843261718749999
0.7557128906249999
3.0236572265625
3.0244628906249997
3.0252685546875
3.0236572265625
3.0236572265625
3.0228515624999996
3.0252685546875
3.02607421875
3.027685546875
2.9825683593749996
2.8536621093749996
2.776318359375
2.6764160156249996
2.5096435546875
3.0204345703124997
3.0284912109374997
3.0268798828124996
3.0252685546875
3.0236572265625
3.0228515624999996
1.8328857421875
0.36416015625
0.02578125
0.0217529296875
0.0201416015625
0.017724609375
0.0217529296875
0.0217529296875
0.0217529296875
0.017724609375
0.0217529296875
0.075732421875
0.10634765624999999
0.3101806640625
0.4471435546875
0.020947265625
0.024169921875
0.0169189453125
0.020947265625
0.0217529296875
0.0217529296875
0.7718261718749999
3.02607421875
3.0228515624999996
3.0204345703124997
3.0244628906249997
3.0244628906249997
3.02607421875
3.0252685546875
3.02607421875
3.0252685546875
3.021240234375
2.9930419921875
2.8697753906249996
2.7094482421875
2.5193115234374996
2.3203125
3.0220458984375
3.029296875
3.0244628906249997
3.0204345703124997
2.969677734375
2.3340087890625
0.8677001953125
0.02578125
0.0217529296875
0.020947265625
0.023364257812499997
0.026586914062499998
0.023364257812499997
0.027392578124999997
0.022558593749999998
0.0169189453125
0.1264892578125
0.20866699218749998
0.3520751953125
0.491455078125
0.5696044921875
0.023364257812499997
0.0217529296875
0.022558593749999998
0.02578125
0.022558593749999998
0.5035400390625
2.9906249999999996
3.0236572265625
3.02607421875
3.0252685546875
3.0236572265625
3.0236572265625
3.02607421875
3.0244628906249997
3.0236572265625
3.0244628906249997
2.9946533203124996
2.8955566406249997
2.7722900390625
2.6304931640625
2.4596923828125
3.0244628906249997
3.0228515624999996
3.0284912109374997
3.029296875
3.0252685546875
2.745703125
0.8515869140625
0.022558593749999998
0.0217529296875
0.024169921875
0.024169921875
0.0169189453125
0.0249755859375
0.022558593749999998
0.0217529296875
0.024169921875
0.075732421875
0.16274414062499998
0.3198486328125
0.4245849609375
0.55107421875
0.0201416015625
0.02578125
0.026586914062499998
0.019335937499999997
0.0217529296875
0.18288574218749998
2.6143798828125
3.0244628906249997
3.0244628906249997
3.0244628906249997
3.0228515624999996
3.0244628906249997
3.0268798828124996
3.0204345703124997
3.0244628906249997
3.029296875
2.905224609375
2.8464111328125
2.7505371093749997
2.5789306640625
2.43310546875
3.0236572265625
3.0228515624999996
3.0228515624999996
3.0220458984375
3.0268798828124996
2.7207275390624996
1.2060791015624999
0.020947265625
0.022558593749999998
0.023364257812499997
0.0217529296875
0.022558593749999998
0.01611328125
0.017724609375
0.022558593749999998
0.024169921875
0.020947265625
0.10634765624999999
0.4197509765625
0.36899414062499997
0.515625
0.0217529296875
0.0217529296875
0.017724609375
0.0201416015625
0.022558593749999998
0.27231445312499997
1.0707275390625
3.0236572265625
3.0236572265625
3.0236572265625
3.0284912109374997
3.0252685546875
3.0268798828124996
3.02607421875
3.0244628906249997
3.01962890625
3.0075439453125
2.9205322265625
2.792431640625
2.642578125
2.4766113281249997
2.6514404296875
3.0228515624999996
3.02607421875
3.0244628906249997
3.0284912109374997
2.8222412109375
2.1567626953125
0.09023437499999999
0.019335937499999997
0.0217529296875
0.0217529296875
0.017724609375
0.0201416015625
0.0217529296875
0.0217529296875
0.0169189453125
0.0201416015625
0.09345703124999999
0.19658203124999998
0.36979980468749996
0.4318359375
0.017724609375
0.0249755859375
0.023364257812499997
0.017724609375
0.0217529296875
0.02578125
0.6380859375
3.0228515624999996
3.0236572265625
3.0252685546875
3.021240234375
3.0252685546875
3.0301025390625
3.0244628906249997
3.0204345703124997
3.0204345703124997
3.0244628906249997
2.8939453124999996
2.7803466796875
2.6764160156249996
2.5563720703125
2.402490234375
3.0244628906249997
3.0244628906249997
3.021240234375
3.029296875
3.0252685546875
2.31708984375
1.026416015625
0.0169189453125
0.022558593749999998
0.022558593749999998
0.0217529296875
0.026586914062499998
0.022558593749999998
0.026586914062499998
0.01611328125
0.0217529296875
0.0878173828125
0.159521484375
0.23203125
0.38913574218749997
0.459228515625
0.0217529296875
0.022558593749999998
0.024169921875
0.026586914062499998
0.024169921875
0.5921630859375
2.9060302734374996
3.0220458984375
3.0228515624999996
3.0228515624999996
3.0284912109374997
3.0236572265625
3.0244628906249997
3.0228515624999996
3.0244628906249997
3.0236572265625
2.9438964843749997
2.9124755859375
2.7980712890625
2.5877929687499996
2.399267578125
3.021240234375
3.02607421875
3.0244628906249997
3.0252685546875
3.02607421875
2.6490234375
1.0973144531249999
0.017724609375
0.023364257812499997
0.024169921875
0.018530273437499998
0.0217529296875
0.01611328125
0.0217529296875
0.0217529296875
0.0201416015625
0.0378662109375
0.103125
0.2578125
0.378662109375
0.475341796875
0.0217529296875
0.020947265625
0.020947265625
0.0169189453125
0.020947265625
0.24331054687499998
1.8506103515624999
3.0228515624999996
3.0268798828124996
3.0252685546875
3.0236572265625
3.0244628906249997
3.0228515624999996
3.027685546875
3.02607421875
3.027685546875
2.9704833984374996
2.8544677734375
2.7513427734375
2.6925292968749996
2.5177001953125
3.02607421875
3.0236572265625
3.0228515624999996
3.027685546875
3.0220458984375
2.7996826171875
1.9940185546875
0.023364257812499997
0.019335937499999997
0.022558593749999998
0.0217529296875
0.020947265625
0.0217529296875
0.022558593749999998
0.0169189453125
0.01611328125
0.0749267578125
0.169189453125
0.30615234375
0.35690917968749997
0.4447265625
0.022558593749999998
0.019335937499999997
0.0217529296875
0.017724609375
0.026586914062499998
0.18046874999999998
0.7677978515624999
3.0252685546875
3.0228515624999996
3.027685546875
3.02607421875
3.0204345703124997
3.0228515624999996
3.0236572265625
3.0244628906249997
3.0220458984375
2.9930419921875
2.9124755859375
2.8012939453124996
2.698974609375
2.4685546874999997
3.0244628906249997
3.0220458984375
3.0244628906249997
3.0244628906249997
3.0244628906249997
2.9583984374999996
2.1648193359375
0.5220703125
0.0217529296875
0.0217529296875
0.0249755859375
0.020947265625
0.020947265625
0.020947265625
0.020947265625
0.0201416015625
0.020947265625
0.053173828124999996
0.14421386718749998
0.33676757812499997
0.47050781249999996
0.020947265625
0.022558593749999998
0.020947265625
0.026586914062499998
0.0201416015625
0.023364257812499997
0.8064697265624999
3.029296875
3.0228515624999996
3.018017578125
3.0228515624999996
3.0188232421874996
3.0236572265625
3.0228515624999996
3.0284912109374997
3.0228515624999996
3.021240234375
2.9430908203125
2.8375488281249996
2.67158203125
2.5007812499999997
2.34609375
3.02607421875
3.0204345703124997
3.0252685546875
3.0244628906249997
2.9906249999999996
2.4725830078124997
0.9474609374999999
0.0249755859375
0.027392578124999997
0.023364257812499997
0.022558593749999998
0.022558593749999998
0.0217529296875
0.0217529296875
0.019335937499999997
0.0217529296875
0.08137207031249999
0.19899902343749998
0.314208984375
0.4568115234375
0.5671875
0.0217529296875
0.018530273437499998
0.017724609375
0.022558593749999998
0.07814941406249999
0.40927734374999997
2.5483154296875
3.0228515624999996
3.0236572265625
3.0228515624999996
3.0228515624999996
3.0244628906249997
3.0268798828124996
3.0236572265625
3.02607421875
3.0244628906249997
2.956787109375
2.7900146484375
2.744091796875
2.6055175781249997
2.4427734375
3.0228515624999996
3.0220458984375
3.0228515624999996
3.0244628906249997
3.0220458984375
2.8053222656249996
0.8870361328124999
0.0217529296875
0.023364257812499997
0.022558593749999998
0.02578125
0.0217529296875
0.022558593749999998
0.023364257812499997
0.020947265625
0.0201416015625
0.0910400390625
0.24895019531249998
0.3746337890625
0.4318359375
0.555908203125
0.023364257812499997
0.022558593749999998
0.019335937499999997
0.02578125
0.022558593749999998
0.19497070312499998
2.4790283203124996
3.0268798828124996
3.0244628906249997
3.0244628906249997
3.027685546875
3.0228515624999996
3.0228515624999996
3.0236572265625
3.021240234375
3.0228515624999996
2.9326171875
2.8721923828125
2.7658447265625
2.5950439453125
2.3759033203124997
3.0244628906249997
3.01962890625
3.0236572265625
3.0236572265625
3.0228515624999996
2.7722900390625
1.5057861328125
0.11923828125
0.022558593749999998
0.022558593749999998
0.026586914062499998
0.0249755859375
0.023364257812499997
0.0201416015625
0.0088623046875
0.022558593749999998
0.057202148437499996
0.040283203125
0.15871582031249998
0.2900390625
0.4036376953125
0.019335937499999997
0.0201416015625
0.0217529296875
0.023364257812499997
0.020947265625
0.2425048828125
0.9208740234374999
3.0236572265625
3.0220458984375
3.0236572265625
3.0220458984375
3.0236572265625
3.0268798828124996
3.0220458984375
3.0252685546875
3.029296875
3.0107666015624996
2.9076416015624997
2.824658203125
2.67158203125
2.4951416015624996
2.3726806640625
3.0228515624999996
3.0204345703124997
3.01962890625
3.0244628906249997
2.9600097656249997
2.3557617187499997
0.84755859375
0.022558593749999998
0.023364257812499997
0.022558593749999998
0.023364257812499997
0.019335937499999997
0.022558593749999998
0.024169921875
0.022558593749999998
0.020947265625
0.08942871093749999
0.19658203124999998
0.278759765625
0.4149169921875
0.026586914062499998
0.017724609375
0.0169189453125
0.020947265625
0.022558593749999998
0.0217529296875
0.5857177734375
3.0244628906249997
3.02607421875
3.0228515624999996
3.0204345703124997
3.0228515624999996
3.027685546875
3.0244628906249997
3.0268798828124996
3.0204345703124997
3.0244628906249997
2.9559814453124997
2.9664550781249996
2.7561767578125
2.6103515625
2.3936279296875
3.0244628906249997
3.0252685546875
3.0236572265625
3.0252685546875
3.027685546875
2.7392578125
0.8564208984374999
0.019335937499999997
0.0217529296875
0.023364257812499997
0.018530273437499998
0.0217529296875
0.0201416015625
0.0249755859375
0.0217529296875
0.02578125
0.0717041015625
0.17482910156249998
0.33757324218749996
0.45439453124999996
0.605859375
0.023364257812499997
0.017724609375
0.026586914062499998
0.017724609375
0.023364257812499997
0.09023437499999999
2.8311035156249997
3.0244628906249997
3.0252685546875
3.0236572265625
3.0220458984375
3.02607421875
3.0236572265625
3.0236572265625
3.02607421875
3.0236572265625
2.9334228515625
2.882666015625
2.7972656249999996
2.553955078125
2.3839599609374997
3.0236572265625
3.027685546875
3.0244628906249997
3.0349365234374996
3.02607421875
2.7577880859375
1.1537109374999999
0.022558593749999998
0.020947265625
0.022558593749999998
0.0217529296875
0.024169921875
0.020947265625
0.0201416015625
0.0217529296875
0.0217529296875
0.023364257812499997
0.043505859375
0.19013671875
0.32468261718749997
0.3746337890625
0.020947265625
0.023364257812499997
0.0217529296875
0.0217529296875
0.022558593749999998
0.1941650390625
0.9837158203124999
3.0284912109374997
3.0220458984375
3.0268798828124996
3.0220458984375
3.0244628906249997
3.0204345703124997
3.0228515624999996
3.02607421875
3.0244628906249997
2.9922363281249997
2.8899169921874996
2.7722900390625
2.6466064453125
2.487890625
3.018017578125
3.0268798828124996
3.0244628906249997
3.0301025390625
3.02607421875
2.7908203124999997
2.115673828125
0.020947265625
0.0281982421875
0.0217529296875
0.015307617187499999
0.022558593749999998
0.020947265625
0.0217529296875
0.017724609375
0.023364257812499997
0.0201416015625
0.0797607421875
0.25620117187499997
0.359326171875
0.514013671875
0.023364257812499997
0.027392578124999997
0.023364257812499997
0.023364257812499997
0.022558593749999998
0.0459228515625
0.6123046875
3.0236572265625
3.0252685546875
3.0236572265625
3.027685546875
3.018017578125
3.021240234375
3.0244628906249997
3.0228515624999996
3.0244628906249997
3.0204345703124997
2.9261718749999996
2.8109619140624997
2.7819580078125
2.5644287109375
3.0204345703124997
3.0244628906249997
3.0204345703124997
3.02607421875
3.0236572265625
3.01962890625
2.1986572265624997
0.514013671875
0.0249755859375
0.024169921875
0.020947265625
0.0217529296875
0.0217529296875
0.020947265625
0.0201416015625
0.0201416015625
0.0217529296875
0.13857421875
0.24331054687499998
0.323876953125
0.47050781249999996
0.027392578124999997
0.020947265625
0.0249755859375
0.017724609375
0.01611328125
0.0281982421875
0.7259033203124999
3.0301025390625
3.0236572265625
3.0204345703124997
3.021240234375
3.0220458984375
3.0252685546875
3.021240234375
3.0188232421874996
3.021240234375
3.0252685546875
2.937451171875
2.8431884765624997
2.6925292968749996
2.528173828125
2.321923828125
3.0244628906249997
3.0236572265625
3.0228515624999996
3.0252685546875
3.0244628906249997
2.608740234375
1.1464599609375
0.023364257812499997
0.019335937499999997
0.024169921875
0.0217529296875
0.0201416015625
0.023364257812499997
0.02578125
0.020947265625
0.0217529296875
0.02578125
0.1087646484375
0.23686523437499998
0.37060546875
0.459228515625
0.020947265625
0.020947265625
0.020947265625
0.020947265625
0.014501953125
0.3021240234375
1.9456787109375
3.0317138671875
3.0244628906249997
3.02607421875
3.0252685546875
3.0236572265625
3.0244628906249997
3.0252685546875
3.02607421875
3.0252685546875
3.0220458984375
2.9422851562499996
2.7972656249999996
2.6603027343749996
2.4604980468749997
3.0236572265625
3.0228515624999996
3.0236572265625
3.0228515624999996
3.0236572265625
2.7916259765625
0.8886474609374999
0.0217529296875
0.022558593749999998
0.022558593749999998
0.020947265625
0.0217529296875
0.024169921875
0.019335937499999997
0.018530273437499998
0.017724609375
0.107958984375
0.20061035156249998
0.275537109375
0.37705078124999997
0.47050781249999996
0.0217529296875
0.019335937499999997
0.0217529296875
0.0201416015625
0.02900390625
0.223974609375
2.3638183593749997
3.0228515624999996
3.0268798828124996
3.0228515624999996
3.021240234375
3.0188232421874996
3.0236572265625
3.0204345703124997
3.0228515624999996
3.027685546875
3.0228515624999996
2.969677734375
2.83271484375
2.6764160156249996
2.4943359375
3.0228515624999996
3.0236572265625
3.0228515624999996
3.029296875
3.0228515624999996
2.8045166015625
2.054443359375
0.2795654296875
0.023364257812499997
0.0217529296875
0.022558593749999998
0.0217529296875
0.020947265625
0.0169189453125
0.0217529296875
0.020947265625
0.019335937499999997
0.091845703125
0.1377685546875
0.339990234375
0.4068603515625
0.0217529296875
0.020947265625
0.022558593749999998
0.0201416015625
0.0249755859375
0.2022216796875
0.80888671875
3.01962890625
3.0252685546875
3.0220458984375
3.01962890625
3.0228515624999996
3.0252685546875
3.0236572265625
3.0244628906249997
3.0244628906249997
2.9898193359375
2.940673828125
2.843994140625
2.6619140624999997
2.487890625
2.2985595703125
3.0172119140625
3.021240234375
3.0236572265625
3.0268798828124996
2.8979736328124996
2.358984375
0.87978515625
0.0169189453125
0.023364257812499997
0.018530273437499998
0.0201416015625
0.020947265625
0.02578125
0.022558593749999998
0.020947265625
0.017724609375
0.0459228515625
0.15629882812499998
0.2771484375
0.4245849609375
0.555908203125
0.0201416015625
0.018530273437499998
0.009667968749999999
0.018530273437499998
0.022558593749999998
0.5132080078125
2.7867919921874997
3.0244628906249997
3.0228515624999996
3.0236572265625
3.021240234375
3.0236572265625
3.0252685546875
3.0244628906249997
3.02607421875
3.0252685546875
3.005126953125
2.8681640625
2.7303955078124997
2.560400390625
2.23974609375
3.0244628906249997
3.0228515624999996
3.02607421875
3.02607421875
3.0244628906249997
2.7126708984374996
0.7927734375
0.0217529296875
0.0169189453125
0.022558593749999998
0.020947265625
0.026586914062499998
0.019335937499999997
0.020947265625
0.020947265625
0.019335937499999997
0.095068359375
0.21511230468749998
0.36416015625
0.502734375
0.623583984375
0.0249755859375
0.026586914062499998
0.023364257812499997
0.017724609375
0.023364257812499997
0.1716064453125
2.7134765625
3.0284912109374997
3.0228515624999996
3.0236572265625
3.0228515624999996
3.0228515624999996
3.0172119140625
3.0228515624999996
3.0252685546875
3.0204345703124997
2.8963623046875
2.7867919921874997
2.6739990234374997
2.553955078125
2.3912109375
3.0236572265625
3.0244628906249997
3.0252685546875
3.029296875
3.0244628906249997
2.7932373046874996
1.2262207031249999
0.049145507812499996
0.020947265625
0.020947265625
0.020947265625
0.024169921875
0.0201416015625
0.0217529296875
0.023364257812499997
0.023364257812499997
0.024169921875
0.027392578124999997
0.21511230468749998
0.3875244140625
0.49467773437499996
0.0217529296875
0.022558593749999998
0.02578125
0.0169189453125
0.0169189453125
0.1812744140625
1.0256103515625
3.0284912109374997
3.0236572265625
3.0228515624999996
3.0228515624999996
3.01962890625
3.021240234375
3.0244628906249997
3.0236572265625
3.018017578125
2.9197265624999997
2.7787353515624997
2.67158203125
2.5410644531249997
2.4169921875
3.0236572265625
3.0252685546875
3.0244628906249997
3.0252685546875
3.0204345703124997
2.8077392578125
2.176904296875
0.078955078125
0.023364257812499997
0.0217529296875
0.0217529296875
0.0217529296875
0.020947265625
0.017724609375
0.027392578124999997
0.020947265625
0.09748535156249999
0.15871582031249998
0.4004150390625
0.5204589843749999
0.6485595703125
0.024169921875
0.023364257812499997
0.018530273437499998
0.017724609375
0.022558593749999998
0.1716064453125
0.9128173828124999
3.021240234375
3.0236572265625
3.0244628906249997
3.0228515624999996
3.0252685546875
3.0244628906249997
3.0244628906249997
3.0244628906249997
3.0228515624999996
3.02607421875
3.0244628906249997
2.9946533203124996
2.937451171875
2.7948486328124997
2.6047119140625
3.0268798828124996
3.0244628906249997
3.0244628906249997
3.0252685546875
3.0236572265625
2.189794921875
0.8338623046875
0.020947265625
0.019335937499999997
0.023364257812499997
0.0217529296875
0.023364257812499997
0.019335937499999997
0.022558593749999998
0.0217529296875
0.0201416015625
0.069287109375
0.2054443359375
0.3101806640625
0.4874267578125
0.52529296875
0.0201416015625
0.0217529296875
0.02578125
0.0217529296875
0.0217529296875
0.623583984375
3.02607421875
3.027685546875
3.0236572265625
3.0268798828124996
3.0244628906249997
3.0301025390625
3.021240234375
3.0252685546875
3.0284912109374997
3.0236572265625
2.9382568359374996
2.8037109375
2.657080078125
2.51044921875
2.392822265625
3.0268798828124996
3.0301025390625
3.01962890625
3.0204345703124997
3.0268798828124996
2.7175048828125
1.1641845703125
0.0169189453125
0.023364257812499997
0.0217529296875
0.023364257812499997
0.0169189453125
0.020947265625
0.019335937499999997
0.020947265625
0.020947265625
0.024169921875
0.13615722656249998
0.28037109374999997
0.3665771484375
0.45761718749999997
0.0217529296875
0.022558593749999998
0.026586914062499998
0.02578125
0.018530273437499998
0.3021240234375
1.458251953125
3.0220458984375
3.0357421875
3.0228515624999996
3.02607421875
3.0228515624999996
3.0284912109374997
3.0236572265625
3.02607421875
3.0244628906249997
2.9455078125
2.827880859375
2.69736328125
2.6031005859375
2.4830566406249996
3.0236572265625
3.0252685546875
3.0244628906249997
3.0204345703124997
3.0244628906249997
2.784375
1.0650878906249999
0.019335937499999997
0.023364257812499997
0.024169921875
0.0217529296875
0.0217529296875
0.022558593749999998
0.02578125
0.0217529296875
0.0217529296875
0.0201416015625
0.14018554687499998
0.2578125
0.3198486328125
0.515625
0.0281982421875
0.023364257812499997
0.0201416015625
0.022558593749999998
0.022558593749999998
0.20463867187499998
2.006103515625
3.0252685546875
3.029296875
3.0284912109374997
3.0204345703124997
3.0236572265625
3.0284912109374997
3.027685546875
3.0228515624999996
3.0252685546875
2.9455078125
2.8375488281249996
2.7980712890625
2.6941406249999997
2.46533203125
3.0228515624999996
3.0228515624999996
3.0228515624999996
3.0236572265625
3.0228515624999996
2.953564453125
2.1454833984375
0.6735351562499999
0.0249755859375
0.0201416015625
0.0217529296875
0.0217529296875
0.020947265625
0.022558593749999998
0.020947265625
0.0201416015625
0.02578125
0.1313232421875
0.28842773437499997
0.38188476562499996
0.515625
0.024169921875
0.023364257812499997
0.0217529296875
0.0217529296875
0.023364257812499997
0.020947265625
0.7033447265624999
3.01962890625
3.0228515624999996
3.021240234375
3.0252685546875
3.0236572265625
3.02607421875
3.0244628906249997
3.021240234375
3.0252685546875
3.0236572265625
2.9350341796875
2.8029052734374997
2.5813476562499997
2.450830078125
2.286474609375
3.0236572265625
3.0252685546875
3.0228515624999996
3.0228515624999996
2.9737060546875
2.4564697265624997
1.010302734375
0.018530273437499998
0.020947265625
0.023364257812499997
0.023364257812499997
0.023364257812499997
0.020947265625
0.020947265625
0.0217529296875
0.02578125
0.024169921875
0.13615722656249998
0.298095703125
0.41813964843749996
0.5115966796875
0.018530273437499998
0.022558593749999998
0.020947265625
0.020947265625
0.0249755859375
0.4487548828125
2.333203125
3.0228515624999996
3.0244628906249997
3.0228515624999996
3.0244628906249997
3.0236572265625
3.0252685546875
3.018017578125
3.029296875
3.0220458984375
2.8125732421875
2.8294921874999996
2.6949462890625
2.528173828125
2.3114501953124997
3.0204345703124997
3.0228515624999996
3.0228515624999996
3.0252685546875
3.0236572265625
2.673193359375
0.90234375
0.020947265625
0.0169189453125
0.020947265625
0.0249755859375
0.023364257812499997
0.020947265625
0.01611328125
0.020947265625
0.017724609375
0.07814941406249999
0.28037109374999997
0.4310302734375
0.620361328125
0.7774658203125
0.026586914062499998
0.022558593749999998
0.0217529296875
0.020947265625
0.0322265625
0.327099609375
2.8883056640625
3.0204345703124997
3.0228515624999996
3.0220458984375
3.02607421875
3.0244628906249997
3.02607421875
3.0236572265625
3.0268798828124996
3.0236572265625
2.9342285156249996
2.8399658203125
2.7408691406249996
2.5241455078125
2.29775390625
3.0236572265625
3.0244628906249997
3.0252685546875
3.0228515624999996
3.029296875
2.6675537109375
1.7120361328125
0.020947265625
0.020947265625
0.020947265625
0.022558593749999998
0.023364257812499997
0.024169921875
0.017724609375
0.0217529296875
0.026586914062499998
0.116015625
0.24733886718749998
0.30856933593749997
0.5244873046874999
0.749267578125
0.0217529296875
0.027392578124999997
0.026586914062499998
0.024169921875
0.0217529296875
0.4197509765625
1.2270263671875
3.021240234375
3.0228515624999996
3.0252685546875
3.0252685546875
3.018017578125
3.0244628906249997
3.021240234375
3.0244628906249997
3.0228515624999996
2.8963623046875
2.8294921874999996
2.6449951171875
2.4838623046875
2.3654296875
2.189794921875
3.0228515624999996
3.0236572265625
3.021240234375
3.0220458984375
2.7827636718749997
2.1019775390624997
0.0201416015625
0.027392578124999997
0.0217529296875
0.022558593749999998
0.020947265625
0.022558593749999998
0.026586914062499998
0.023364257812499997
0.0249755859375
0.09748535156249999
0.1087646484375
0.298095703125
0.4713134765625
0.6002197265625
0.018530273437499998
0.020947265625
0.0217529296875
0.0217529296875
0.0217529296875
0.21108398437499998
0.8032470703125
3.021240234375
3.0244628906249997
3.0244628906249997
3.0204345703124997
3.021240234375
3.0228515624999996
3.029296875
3.02607421875
3.0220458984375
2.8955566406249997
2.8230468749999997
2.727978515625
2.50400390625
2.28486328125
2.015771484375
3.0228515624999996
3.0252685546875
3.0204345703124997
3.0244628906249997
3.0236572265625
2.255859375
0.6413085937499999
0.0217529296875
0.030615234374999998
0.0201416015625
0.019335937499999997
0.020947265625
0.018530273437499998
0.0201416015625
0.0217529296875
0.020947265625
0.22075195312499998
0.33676757812499997
0.4640625
0.6453369140624999
0.8209716796875
0.0249755859375
0.022558593749999998
0.023364257812499997
0.01611328125
0.1506591796875
0.765380859375
3.02607421875
3.027685546875
3.0236572265625
3.0220458984375
3.0228515624999996
3.02607421875
3.0268798828124996
3.0252685546875
3.0204345703124997
2.963232421875
2.8302978515625
2.6901123046874997
2.586181640625
2.328369140625
2.17529296875
3.0284912109374997
3.0188232421874996
3.0228515624999996
3.021240234375
2.9342285156249996
2.5305908203125
0.8967041015624999
0.0249755859375
0.019335937499999997
0.0201416015625
0.0217529296875
0.017724609375
0.0217529296875
0.0201416015625
0.0217529296875
0.023364257812499997
0.1554931640625
0.27634277343749997
0.47775878906249997
0.6703125
0.7968017578125
0.0217529296875
0.018530273437499998
0.0217529296875
0.020947265625
0.191748046875
0.43747558593749997
1.1666015625
3.021240234375
3.0204345703124997
3.0228515624999996
3.021240234375
3.0252685546875
3.0236572265625
3.0301025390625
3.0252685546875
3.0236572265625
2.9479248046874997
2.7884033203125
2.5950439453125
2.441162109375
2.225244140625
3.0252685546875
3.0204345703124997
3.0236572265625
3.0228515624999996
3.0244628906249997
2.65869140625
1.9327880859375
0.020947265625
0.02578125
0.020947265625
0.024169921875
0.020947265625
0.023364257812499997
0.020947265625
0.017724609375
0.020947265625
0.120849609375
0.3230712890625
0.5067626953125
0.66064453125
0.7710205078125
0.022558593749999998
0.020947265625
0.018530273437499998
0.020947265625
0.020947265625
0.3552978515625
0.9804931640625
3.021240234375
3.0236572265625
3.0244628906249997
3.0228515624999996
3.0244628906249997
3.0244628906249997
3.02607421875
3.0228515624999996
3.0228515624999996
2.9664550781249996
2.7803466796875
2.85849609375
2.4766113281249997
2.2026855468749997
2.5724853515625
3.0244628906249997
3.0244628906249997
3.02607421875
3.0220458984375
2.8874999999999997
1.88525390625
0.25217285156249997
0.0201416015625
0.022558593749999998
0.020947265625
0.022558593749999998
0.023364257812499997
0.01611328125
0.0201416015625
0.027392578124999997
0.175634765625
0.2666748046875
0.4552001953125
0.6308349609374999
0.8958984375
0.40524902343749997
0.0217529296875
0.017724609375
0.0249755859375
0.022558593749999998
0.12568359375
1.06025390625
3.0236572265625
3.0228515624999996
3.0228515624999996
3.0244628906249997
3.0228515624999996
3.0228515624999996
3.0228515624999996
3.02607421875
3.021240234375
2.8697753906249996
2.79404296875
2.616796875
2.3823486328125
2.2099365234375
2.015771484375
3.0244628906249997
3.0228515624999996
3.0244628906249997
3.027685546875
2.8995849609374997
2.3396484374999997
0.8830078124999999
0.019335937499999997
0.020947265625
0.019335937499999997
0.0217529296875
0.0217529296875
0.020947265625
0.017724609375
0.0169189453125
0.08540039062499999
0.18449707031249998
0.2876220703125
0.5438232421875
0.6767578125
0.81533203125
0.022558593749999998
0.02578125
0.019335937499999997
0.020947265625
0.193359375
0.6034423828125
1.944873046875
3.0301025390625
3.0244628906249997
3.0236572265625
3.0268798828124996
3.0244628906249997
3.0252685546875
3.0325195312499997
3.0252685546875
3.029296875
2.8077392578125
2.624853515625
2.4822509765625
2.3203125
2.10439453125
3.0220458984375
3.027685546875
3.0268798828124996
3.01962890625
2.9277832031249997
2.6014892578124997
0.8209716796875
0.0217529296875
0.022558593749999998
0.0249755859375
0.0217529296875
0.018530273437499998
0.0217529296875
0.0217529296875
0.0201416015625
0.015307617187499999
0.1393798828125
0.34562988281249996
0.5534912109375
0.6920654296875
0.9095947265625
0.02578125
0.024169921875
0.022558593749999998
0.026586914062499998
0.1232666015625
0.49064941406249996
2.5499267578125
3.0236572265625
3.0236572265625
3.0236572265625
3.0220458984375
3.02607421875
3.0228515624999996
3.02607421875
3.0236572265625
2.9801513671874997
2.8979736328124996
2.8012939453124996
2.657080078125
2.489501953125
2.2421630859375
3.0220458984375
3.0236572265625
3.0268798828124996
3.0252685546875
3.0244628906249997
2.5652343749999997
1.7313720703125
0.0249755859375
0.022558593749999998
0.022558593749999998
0.020947265625
0.02578125
0.017724609375
0.022558593749999998
0.020947265625
0.022558593749999998
0.020947265625
0.24733886718749998
0.44633789062499996
0.652587890625
0.813720703125
0.020947265625
0.0201416015625
0.017724609375
0.022558593749999998
0.0201416015625
0.44633789062499996
1.1351806640625
3.0228515624999996
3.02607421875
3.027685546875
3.0244628906249997
3.0236572265625
3.0228515624999996
3.021240234375
3.0244628906249997
3.029296875
2.8319091796875
2.75537109375
