2.6466064453125
2.6119628906249996
3.0244628906249997
3.0244628906249997
3.0244628906249997
3.029296875
3.0252685546875
2.7932373046874996
2.28486328125
0.2779541015625
0.022558593749999998
0.0217529296875
0.0201416015625
0.022558593749999998
0.022558593749999998
0.0201416015625
0.018530273437499998
0.019335937499999997
0.024169921875
0.0717041015625
0.24169921875
0.4189453125
0.5736328125
0.022558593749999998
0.018530273437499998
0.023364257812499997
0.0217529296875
0.0249755859375
0.0394775390625
0.6985107421875
3.02607421875
3.0228515624999996
3.0220458984375
3.01962890625
3.029296875
3.0188232421874996
3.0228515624999996
3.0244628906249997
3.0244628906249997
3.0228515624999996
2.940673828125
2.7867919921874997
2.6377441406249997
2.421826171875
2.21396484375
3.021240234375
3.0244628906249997
3.0236572265625
3.0244628906249997
3.0204345703124997
2.3468994140625
0.9716308593749999
0.0201416015625
0.019335937499999997
0.026586914062499998
0.0169189453125
0.020947265625
0.022558593749999998
0.01611328125
0.0217529296875
0.020947265625
0.022558593749999998
0.10151367187499999
0.2215576171875
0.43828124999999996
0.6590332031249999
0.0217529296875
0.0217529296875
0.026586914062499998
0.0249755859375
0.023364257812499997
0.5180419921875
3.021240234375
3.0252685546875
3.0252685546875
3.0236572265625
3.0236572265625
3.0252685546875
3.0236572265625
3.0236572265625
3.02607421875
3.0228515624999996
2.9785400390624996
2.8802490234375
2.7158935546875
2.5587890625
2.37509765625
3.021240234375
3.0244628906249997
3.0252685546875
3.0220458984375
3.0220458984375
2.70703125
1.14404296875
0.0217529296875
0.0217529296875
0.0217529296875
0.0217529296875
0.0281982421875
0.0217529296875
0.0298095703125
0.019335937499999997
0.0217529296875
0.0314208984375
0.15791015625
0.3923583984375
0.546240234375
0.6807861328125
0.017724609375
0.023364257812499997
0.01611328125
0.023364257812499997
0.0217529296875
0.28439941406249997
1.6379150390625
3.0228515624999996
3.021240234375
3.02607421875
3.0244628906249997
3.0252685546875
3.0228515624999996
3.0244628906249997
3.0220458984375
3.0244628906249997
3.003515625
2.8931396484375
2.744091796875
2.6280761718749996
2.4685546874999997
3.0244628906249997
3.0268798828124996
3.0244628906249997
3.0268798828124996
3.027685546875
2.811767578125
1.3833251953124999
0.049145507812499996
0.023364257812499997
0.019335937499999997
0.022558593749999998
0.02578125
0.0217529296875
0.027392578124999997
0.01611328125
0.022558593749999998
0.018530273437499998
0.0926513671875
0.15791015625
0.3665771484375
0.5744384765625
0.0217529296875
0.0201416015625
0.022558593749999998
0.023364257812499997
0.017724609375
0.0829833984375
1.061865234375
3.0236572265625
3.0236572265625
3.02607421875
3.0220458984375
3.0236572265625
3.0244628906249997
3.0236572265625
3.02607421875
3.02607421875
2.9841796874999997
2.872998046875
2.8037109375
2.6514404296875
2.4758056640625
2.276806640625
3.0204345703124997
3.0236572265625
3.0220458984375
3.0236572265625
2.8093505859374996
2.2244384765625
0.760546875
0.024169921875
0.020947265625
0.023364257812499997
0.023364257812499997
0.0217529296875
0.0249755859375
0.022558593749999998
0.022558593749999998
0.018530273437499998
0.0926513671875
0.14501953125
0.399609375
0.5446289062499999
0.694482421875
0.0201416015625
0.026586914062499998
0.024169921875
0.019335937499999997
0.045117187499999996
0.7226806640625
3.0244628906249997
3.0236572265625
3.02607421875
3.0236572265625
3.0244628906249997
3.0244628906249997
3.0220458984375
3.0244628906249997
3.0252685546875
3.0244628906249997
2.9704833984374996
2.8979736328124996
2.7158935546875
2.5652343749999997
2.40087890625
3.0236572265625
3.0236572265625
3.027685546875
3.0236572265625
3.0204345703124997
2.608740234375
0.8701171875
0.0249755859375
0.0217529296875
0.023364257812499997
0.022558593749999998
0.023364257812499997
0.022558593749999998
0.0217529296875
0.022558593749999998
0.023364257812499997
0.08137207031249999
0.2425048828125
0.34160156249999996
0.559130859375
0.6678955078125
0.020947265625
0.019335937499999997
0.019335937499999997
0.0217529296875
0.0169189453125
0.375439453125
3.0236572265625
3.027685546875
3.0284912109374997
3.0236572265625
3.0228515624999996
3.0244628906249997
3.0252685546875
3.02607421875
3.0204345703124997
3.029296875
2.9261718749999996
2.8391601562499997
2.6739990234374997
2.534619140625
2.3162841796875
3.0204345703124997
3.0228515624999996
3.029296875
3.0236572265625
3.01962890625
2.769873046875
1.126318359375
0.020947265625
0.026586914062499998
0.0169189453125
0.023364257812499997
0.022558593749999998
0.020947265625
0.0217529296875
0.022558593749999998
0.019335937499999997
0.062841796875
0.12165527343749999
0.2344482421875
0.4197509765625
0.5728271484374999
0.027392578124999997
0.0217529296875
0.0217529296875
0.02578125
0.0217529296875
0.167578125
1.2205810546875
3.0268798828124996
3.0220458984375
3.0244628906249997
3.0236572265625
3.027685546875
3.0204345703124997
3.027685546875
3.0268798828124996
3.021240234375
3.021240234375
2.9237548828124997
2.8109619140624997
2.6208251953125
2.4749999999999996
2.5877929687499996
3.0236572265625
3.0236572265625
3.0228515624999996
3.0333251953125
2.80048828125
2.152734375
0.578466796875
0.020947265625
0.023364257812499997
0.0217529296875
0.018530273437499998
0.026586914062499998
0.0201416015625
0.020947265625
0.026586914062499998
0.0217529296875
0.103125
0.1998046875
0.4149169921875
0.57041015625
0.46567382812499997
0.0201416015625
0.020947265625
0.017724609375
0.020947265625
0.0604248046875
0.7138183593749999
3.0244628906249997
3.0228515624999996
3.027685546875
3.0204345703124997
3.0204345703124997
3.0228515624999996
3.027685546875
3.021240234375
3.02607421875
3.021240234375
3.0043212890624997
2.824658203125
2.7094482421875
2.6119628906249996
2.495947265625
3.01962890625
3.0244628906249997
3.0244628906249997
3.0220458984375
3.0268798828124996
2.5958496093749996
0.549462890625
0.022558593749999998
0.022558593749999998
0.0201416015625
0.02578125
0.020947265625
0.0201416015625
0.020947265625
0.020947265625
0.020947265625
0.08620605468749999
0.2038330078125
0.28842773437499997
0.4713134765625
0.68642578125
0.022558593749999998
0.0217529296875
0.023364257812499997
0.022558593749999998
0.0217529296875
0.37382812499999996
3.0228515624999996
3.0228515624999996
3.0236572265625
3.0244628906249997
3.029296875
3.0244628906249997
3.0252685546875
3.0309082031249996
3.0268798828124996
3.029296875
2.9906249999999996
2.8754150390624997
2.7424804687499997
2.6014892578124997
2.38154296875
3.0252685546875
3.0244628906249997
3.02607421875
3.02607421875
3.0244628906249997
2.6458007812499997
0.9708251953125
0.0201416015625
0.019335937499999997
0.0217529296875
0.018530273437499998
0.020947265625
0.022558593749999998
0.026586914062499998
0.02578125
0.0217529296875
0.020947265625
0.064453125
0.193359375
0.49467773437499996
0.4962890625
0.027392578124999997
0.022558593749999998
0.022558593749999998
0.0169189453125
0.01611328125
0.3665771484375
1.6000488281249998
3.0236572265625
3.02607421875
3.0252685546875
3.02607421875
3.0284912109374997
3.0244628906249997
3.0252685546875
3.0301025390625
3.0228515624999996
3.0309082031249996
2.9769287109375
2.8754150390624997
2.7021972656249997
2.5652343749999997
3.0228515624999996
3.0268798828124996
3.027685546875
3.0244628906249997
3.0284912109374997
2.8190185546874997
2.0302734375
0.322265625
0.023364257812499997
0.026586914062499998
0.0201416015625
0.0169189453125
0.0217529296875
0.022558593749999998
0.020947265625
0.024169921875
0.0217529296875
0.11440429687499999
0.3198486328125
0.44553222656249997
0.57041015625
0.027392578124999997
0.022558593749999998
0.0217529296875
0.020947265625
0.023364257812499997
0.2360595703125
0.855615234375
3.0252685546875
3.0252685546875
3.0228515624999996
3.02607421875
3.027685546875
3.0284912109374997
3.0244628906249997
3.0244628906249997
3.0236572265625
3.0244628906249997
2.972900390625
2.8512451171874997
2.7529541015624996
2.5998779296874996
3.0188232421874996
3.0244628906249997
3.02607421875
3.0244628906249997
3.029296875
3.0244628906249997
2.4298828125
0.3794677734375
0.0249755859375
0.019335937499999997
0.0217529296875
0.0201416015625
0.020947265625
0.023364257812499997
0.0249755859375
0.026586914062499998
0.0217529296875
0.16032714843749998
0.2715087890625
0.38913574218749997
0.5470458984375
0.13212890624999998
0.022558593749999998
0.02578125
0.02578125
0.023364257812499997
0.024169921875
0.4318359375
3.02607421875
3.0252685546875
3.02607421875
3.02607421875
3.0228515624999996
3.027685546875
3.02607421875
3.02607421875
3.02607421875
3.027685546875
2.9664550781249996
2.86494140625
2.7650390624999996
2.5998779296874996
2.4274658203125
3.0236572265625
3.0252685546875
3.0220458984375
3.027685546875
3.0236572265625
2.5612060546874997
0.9176513671875
0.023364257812499997
0.022558593749999998
0.02578125
0.022558593749999998
0.0201416015625
0.020947265625
0.024169921875
0.0217529296875
0.022558593749999998
0.0523681640625
0.0837890625
0.21672363281249998
0.39719238281249997
0.5341552734375
0.024169921875
0.0249755859375
0.022558593749999998
0.024169921875
0.022558593749999998
0.451171875
2.14306640625
3.0252685546875
3.0244628906249997
3.0244628906249997
3.0244628906249997
3.0204345703124997
3.0244628906249997
3.02607421875
3.0252685546875
3.0220458984375
3.0010986328125
2.9173095703125
2.8528564453125
2.698974609375
2.489501953125
3.01962890625
3.0252685546875
3.0252685546875
3.0252685546875
3.0252685546875
2.8093505859374996
1.8868652343749999
0.02578125
0.022558593749999998
0.018530273437499998
0.02578125
0.024169921875
0.023364257812499997
0.0217529296875
0.024169921875
0.0249755859375
0.023364257812499997
0.1740234375
0.359326171875
0.4390869140625
0.5760498046875
0.027392578124999997
0.0217529296875
0.022558593749999998
0.023364257812499997
0.0281982421875
0.1861083984375
0.9547119140625
3.0252685546875
3.0317138671875
3.0252685546875
3.0220458984375
3.0236572265625
3.02607421875
3.0284912109374997
3.0228515624999996
3.0252685546875
3.027685546875
3.0043212890624997
2.9011962890625
2.7593994140625
2.5386474609375
3.02607421875
3.0268798828124996
3.021240234375
3.0228515624999996
3.0284912109374997
2.9430908203125
1.9513183593749999
0.0217529296875
0.022558593749999998
0.023364257812499997
0.0201416015625
0.022558593749999998
0.024169921875
0.022558593749999998
0.0040283203125
0.0169189453125
0.023364257812499997
0.0733154296875
0.127294921875
0.2570068359375
0.40283203125
0.018530273437499998
0.024169921875
0.022558593749999998
0.019335937499999997
0.0217529296875
0.023364257812499997
0.9821044921875
3.0252685546875
3.021240234375
3.0268798828124996
3.029296875
3.0252685546875
3.0301025390625
3.0236572265625
3.0244628906249997
3.0317138671875
3.0284912109374997
3.0228515624999996
2.9785400390624996
2.8222412109375
2.616796875
2.4443847656249997
3.0075439453125
3.0204345703124997
3.0244628906249997
3.0252685546875
2.9664550781249996
2.3654296875
0.72509765625
0.020947265625
0.02578125
0.0169189453125
0.022558593749999998
0.018530273437499998
0.022558593749999998
0.020947265625
0.023364257812499997
0.020947265625
0.08056640625
0.16032714843749998
0.38188476562499996
0.555908203125
0.6767578125
0.023364257812499997
0.023364257812499997
0.023364257812499997
0.022558593749999998
0.02578125
0.594580078125
3.0236572265625
3.0244628906249997
3.0228515624999996
3.0244628906249997
3.0252685546875
3.0252685546875
3.0244628906249997
3.0236572265625
3.0236572265625
3.02607421875
2.9704833984374996
2.8770263671875
2.843994140625
2.5853759765624997
2.37509765625
3.021240234375
3.021240234375
3.0228515624999996
3.02607421875
3.0252685546875
2.72958984375
0.5285156249999999
0.022558593749999998
0.022558593749999998
0.02578125
0.027392578124999997
0.023364257812499997
0.0217529296875
0.0201416015625
0.022558593749999998
0.0169189453125
0.062841796875
0.24492187499999998
0.4004150390625
0.6131103515624999
0.8024414062499999
0.022558593749999998
0.022558593749999998
0.020947265625
0.02900390625
0.022558593749999998
0.314208984375
3.0244628906249997
3.0252685546875
3.0236572265625
3.02607421875
3.0268798828124996
3.02607421875
3.0228515624999996
3.027685546875
3.02607421875
3.0268798828124996
2.9898193359375
2.882666015625
2.7650390624999996
2.56201171875
2.344482421875
3.02607421875
3.027685546875
3.0244628906249997
3.0244628906249997
3.0228515624999996
2.7505371093749997
1.3229003906249999
0.024169921875
0.0249755859375
0.022558593749999998
0.018530273437499998
0.027392578124999997
0.027392578124999997
0.023364257812499997
0.0217529296875
0.0201416015625
0.022558593749999998
0.0749267578125
0.21914062499999998
0.423779296875
0.526904296875
0.014501953125
0.026586914062499998
0.0249755859375
0.020947265625
0.01611328125
0.359326171875
1.2189697265625
3.0204345703124997
3.027685546875
3.029296875
3.0244628906249997
3.0252685546875
3.0309082031249996
3.0252685546875
3.0268798828124996
3.0236572265625
3.021240234375
2.92939453125
2.8367431640625
2.6780273437499997
2.5225341796875
2.3291748046875
3.02607421875
3.029296875
3.027685546875
3.0252685546875
2.8367431640625
2.14306640625
0.4962890625
0.027392578124999997
0.0201416015625
0.017724609375
0.022558593749999998
0.023364257812499997
0.022558593749999998
0.0201416015625
0.020947265625
0.0281982421875
0.111181640625
0.269091796875
0.4310302734375
0.5865234375
0.6654785156249999
0.023364257812499997
0.0201416015625
0.023364257812499997
0.022558593749999998
0.023364257812499997
0.708984375
3.0244628906249997
3.0244628906249997
3.0252685546875
3.0236572265625
3.0228515624999996
3.021240234375
3.0244628906249997
3.0228515624999996
3.0268798828124996
3.0244628906249997
2.947119140625
2.8456054687499996
2.70703125
2.608740234375
2.3871826171875
3.01962890625
3.0252685546875
3.0244628906249997
3.027685546875
3.0268798828124996
2.60068359375
0.3843017578125
0.0217529296875
0.018530273437499998
0.023364257812499997
0.0249755859375
0.0201416015625
0.023364257812499997
0.01611328125
0.0201416015625
0.0249755859375
0.09426269531249999
0.2586181640625
0.39638671875
0.5583251953125
0.7371826171875
0.020947265625
0.0217529296875
0.0217529296875
0.0217529296875
0.026586914062499998
0.2892333984375
3.02607421875
3.0204345703124997
3.02607421875
3.0252685546875
3.02607421875
3.021240234375
3.0244628906249997
3.0252685546875
3.0268798828124996
3.02607421875
2.9197265624999997
2.8222412109375
2.666748046875
2.49755859375
2.3372314453125
3.02607421875
3.0236572265625
3.0204345703124997
3.0228515624999996
3.0220458984375
2.7392578125
1.0239990234375
0.019335937499999997
0.0217529296875
0.0217529296875
0.022558593749999998
0.02578125
0.022558593749999998
0.019335937499999997
0.0217529296875
0.0217529296875
0.10634765624999999
0.1941650390625
0.3182373046875
0.48178710937499997
0.6163330078125
0.023364257812499997
0.0217529296875
0.0217529296875
0.022558593749999998
0.0217529296875
0.3544921875
1.35673828125
3.0228515624999996
3.0252685546875
3.0228515624999996
3.0236572265625
3.0268798828124996
3.02607421875
3.02607421875
3.0228515624999996
3.0252685546875
3.029296875
2.9036132812499997
2.771484375
2.6611083984375
2.4886962890624997
3.02607421875
3.0284912109374997
3.0244628906249997
3.0204345703124997
3.027685546875
2.8061279296875
2.070556640625
0.023364257812499997
0.019335937499999997
0.023364257812499997
0.024169921875
0.0249755859375
0.0169189453125
0.020947265625
0.0201416015625
0.020947265625
0.0249755859375
0.0990966796875
0.2811767578125
0.43022460937499996
0.54140625
0.02578125
0.0201416015625
0.0201416015625
0.0201416015625
0.022558593749999998
0.116015625
0.800830078125
3.0268798828124996
3.0236572265625
3.0220458984375
3.0268798828124996
3.0284912109374997
3.0228515624999996
3.0268798828124996
3.0244628906249997
3.018017578125
3.0236572265625
2.9712890625
2.8375488281249996
2.7207275390624996
2.518505859375
2.5112548828124996
3.0268798828124996
3.0244628906249997
3.0268798828124996
3.0228515624999996
3.0284912109374997
2.1301757812499997
0.2296142578125
0.019335937499999997
0.0169189453125
0.0217529296875
0.022558593749999998
0.024169921875
0.020947265625
0.020947265625
0.020947265625
0.0217529296875
0.1716064453125
0.159521484375
0.44553222656249997
0.613916015625
0.59619140625
0.023364257812499997
0.022558593749999998
0.0249755859375
0.022558593749999998
0.022558593749999998
0.8354736328125
3.02607421875
3.02607421875
3.021240234375
3.0252685546875
3.0228515624999996
3.021240234375
3.0236572265625
3.0325195312499997
3.0252685546875
3.0268798828124996
2.9559814453124997
2.8794433593749997
2.7005859374999996
2.5877929687499996
2.4169921875
3.0236572265625
3.0301025390625
3.0301025390625
3.0252685546875
3.0252685546875
2.616796875
0.7097900390624999
0.0249755859375
0.023364257812499997
0.027392578124999997
0.018530273437499998
0.024169921875
0.02578125
0.0217529296875
0.0201416015625
0.018530273437499998
0.1039306640625
0.17724609375
0.34482421874999997
0.4648681640625
0.5994140625
0.020947265625
0.022558593749999998
0.022558593749999998
0.023364257812499997
0.022558593749999998
0.339990234375
1.590380859375
3.02607421875
3.0252685546875
3.0228515624999996
3.0228515624999996
3.0236572265625
3.0244628906249997
3.0284912109374997
3.0268798828124996
3.0228515624999996
3.0236572265625
2.9519531249999997
2.8190185546874997
2.7021972656249997
2.5193115234374996
3.0244628906249997
3.02607421875
3.0252685546875
3.0220458984375
3.0244628906249997
2.8141845703125
1.8796142578125
0.022558593749999998
0.027392578124999997
0.022558593749999998
0.022558593749999998
0.0201416015625
0.024169921875
0.022558593749999998
0.020947265625
0.0201416015625
0.06767578125
0.223974609375
0.40202636718749996
0.5196533203125
0.6703125
0.024169921875
0.0217529296875
0.0201416015625
0.0201416015625
0.0217529296875
0.27231445312499997
2.144677734375
3.0268798828124996
3.027685546875
3.0228515624999996
3.0236572265625
3.0252685546875
3.0244628906249997
3.0252685546875
3.0236572265625
3.02607421875
2.979345703125
2.9447021484375
2.898779296875
2.8335205078124996
2.5740966796875
3.0244628906249997
3.0228515624999996
3.021240234375
3.0244628906249997
3.0268798828124996
3.02607421875
2.1100341796874997
0.116015625
0.0169189453125
0.023364257812499997
0.0217529296875
0.023364257812499997
0.022558593749999998
0.022558593749999998
0.022558593749999998
0.020947265625
0.019335937499999997
0.15227050781249998
0.1458251953125
0.4568115234375
0.6123046875
0.022558593749999998
0.023364257812499997
0.02578125
0.0249755859375
0.02578125
0.022558593749999998
0.968408203125
3.02607421875
3.02607421875
3.02607421875
3.0252685546875
3.029296875
3.0244628906249997
3.0228515624999996
3.0252685546875
3.0188232421874996
3.027685546875
2.9930419921875
2.8874999999999997
2.7328124999999996
2.5740966796875
2.399267578125
3.02607421875
3.0228515624999996
3.021240234375
3.02607421875
3.0252685546875
2.4468017578125
0.7146240234375
0.022558593749999998
0.024169921875
0.0201416015625
0.0217529296875
0.0217529296875
0.022558593749999998
0.0217529296875
0.022558593749999998
0.019335937499999997
0.0652587890625
0.149853515625
0.359326171875
0.46728515625
0.5389892578125
0.022558593749999998
0.027392578124999997
0.019335937499999997
0.023364257812499997
0.0201416015625
0.35126953125
2.4991699218749996
3.0252685546875
3.0244628906249997
3.02607421875
3.0236572265625
3.0252685546875
3.02607421875
3.021240234375
3.0252685546875
3.0252685546875
2.9849853515625
2.9302001953124996
2.8238525390625
2.6659423828124997
2.4814453125
3.02607421875
3.0244628906249997
3.029296875
3.0228515624999996
3.0220458984375
2.7569824218749996
0.34562988281249996
0.024169921875
0.020947265625
0.0217529296875
0.023364257812499997
0.022558593749999998
0.0201416015625
0.023364257812499997
0.0217529296875
0.02578125
0.0217529296875
0.223974609375
0.39316406249999997
0.5099853515625
0.6405029296875
0.022558593749999998
0.024169921875
0.022558593749999998
0.020947265625
0.026586914062499998
0.2634521484375
2.9334228515625
3.01962890625
3.0284912109374997
3.027685546875
3.02607421875
3.0244628906249997
3.0252685546875
3.0301025390625
3.0244628906249997
3.0236572265625
2.9737060546875
2.9181152343749996
2.843994140625
2.6675537109375
2.5088378906249997
3.0244628906249997
3.0284912109374997
3.0236572265625
3.0244628906249997
3.0204345703124997
2.8093505859374996
1.8264404296874999
0.020947265625
0.0217529296875
0.020947265625
0.027392578124999997
0.0217529296875
0.027392578124999997
0.017724609375
0.022558593749999998
0.022558593749999998
0.0523681640625
0.14421386718749998
0.230419921875
0.4278076171875
0.491455078125
0.017724609375
0.0217529296875
0.018530273437499998
0.022558593749999998
0.020947265625
0.17080078124999998
1.0409179687499999
3.0301025390625
3.0236572265625
3.0244628906249997
3.0252685546875
3.02607421875
3.029296875
3.0220458984375
3.027685546875
3.0244628906249997
3.0228515624999996
2.963232421875
2.8617187499999996
2.721533203125
2.55234375
2.410546875
3.0244628906249997
3.0244628906249997
3.02607421875
3.02607421875
3.0010986328125
2.3050048828125
0.66064453125
0.022558593749999998
0.023364257812499997
0.020947265625
0.023364257812499997
0.023364257812499997
0.0217529296875
0.027392578124999997
0.02578125
0.024169921875
0.1087646484375
0.19013671875
0.28681640625
0.420556640625
0.559130859375
0.0217529296875
0.020947265625
0.0217529296875
0.0217529296875
0.0217529296875
0.45842285156249996
3.0309082031249996
3.0252685546875
3.0244628906249997
3.0252685546875
3.0244628906249997
3.0244628906249997
3.0228515624999996
3.018017578125
3.0252685546875
3.0268798828124996
3.001904296875
2.9479248046874997
2.8423828125
2.7207275390624996
2.5168945312499997
3.0220458984375
3.02607421875
3.02607421875
3.0244628906249997
3.0204345703124997
2.6707763671875
0.34482421874999997
0.0249755859375
0.020947265625
0.0217529296875
0.026586914062499998
0.018530273437499998
0.01611328125
0.0249755859375
0.0217529296875
0.023364257812499997
0.1571044921875
0.2513671875
0.372216796875
0.50595703125
0.6405029296875
0.0217529296875
0.027392578124999997
0.022558593749999998
0.017724609375
0.0201416015625
0.159521484375
3.0236572265625
3.0268798828124996
3.0236572265625
3.0284912109374997
3.0252685546875
3.021240234375
3.0244628906249997
3.02607421875
3.0228515624999996
3.0228515624999996
2.9302001953124996
2.8874999999999997
2.76181640625
2.5475097656249996
2.4403564453124997
3.0252685546875
3.0228515624999996
3.02607421875
3.027685546875
3.0284912109374997
2.8222412109375
1.1021484375
0.0217529296875
0.023364257812499997
0.022558593749999998
0.024169921875
0.0217529296875
0.02578125
0.0217529296875
0.022558593749999998
0.024169921875
0.01611328125
0.024169921875
0.08217773437499999
0.1651611328125
0.198193359375
0.022558593749999998
0.024169921875
0.02578125
0.026586914062499998
0.020947265625
0.020947265625
0.8064697265624999
3.0236572265625
3.0244628906249997
3.021240234375
3.0244628906249997
3.0252685546875
3.027685546875
3.0228515624999996
3.0244628906249997
3.029296875
3.0204345703124997
3.021240234375
2.8012939453124996
2.6836669921875
2.537841796875
2.6707763671875
3.021240234375
3.0244628906249997
3.0236572265625
3.02607421875
2.8431884765624997
2.099560546875
0.022558593749999998
0.027392578124999997
0.020947265625
0.023364257812499997
0.0217529296875
0.020947265625
0.0217529296875
0.020947265625
0.022558593749999998
0.062841796875
0.136962890625
0.2989013671875
0.43828124999999996
0.53173828125
0.023364257812499997
0.020947265625
0.018530273437499998
0.022558593749999998
0.027392578124999997
0.026586914062499998
0.726708984375
3.0244628906249997
3.0236572265625
3.0244628906249997
3.0284912109374997
3.021240234375
3.0228515624999996
3.0244628906249997
3.0252685546875
3.0204345703124997
3.0268798828124996
3.021240234375
2.9575927734375
2.78759765625
2.663525390625
2.489501953125
3.021240234375
3.0244628906249997
3.0236572265625
3.0236572265625
3.0228515624999996
2.2341064453125
0.359326171875
0.023364257812499997
0.0201416015625
0.026586914062499998
0.022558593749999998
0.022558593749999998
0.024169921875
0.022558593749999998
0.018530273437499998
0.020947265625
0.13212890624999998
0.262646484375
0.39638671875
0.5776611328125
0.7323486328125
0.0217529296875
0.022558593749999998
0.027392578124999997
0.017724609375
0.0217529296875
0.6243896484375
3.02607421875
3.0244628906249997
3.01962890625
3.0244628906249997
3.0244628906249997
3.0244628906249997
3.0252685546875
3.0252685546875
3.0244628906249997
3.0204345703124997
2.9124755859375
2.7690673828124996
2.6304931640625
2.4564697265624997
2.2671386718749997
3.0244628906249997
3.021240234375
3.0236572265625
3.021240234375
3.02607421875
2.5877929687499996
0.7154296874999999
0.022558593749999998
0.02578125
0.024169921875
0.023364257812499997
0.0217529296875
0.022558593749999998
0.015307617187499999
0.0217529296875
0.02578125
0.06606445312499999
0.11440429687499999
0.26103515625
0.39638671875
0.5244873046874999
0.022558593749999998
0.0281982421875
0.022558593749999998
0.020947265625
0.0217529296875
0.2441162109375
1.4252197265625
3.0188232421874996
3.0228515624999996
3.0244628906249997
3.0244628906249997
3.0228515624999996
3.0244628906249997
3.0220458984375
3.01962890625
3.0244628906249997
3.01318359375
2.9044189453125
2.7964599609375
2.6619140624999997
2.5475097656249996
3.0228515624999996
3.0252685546875
3.0244628906249997
3.0252685546875
3.0284912109374997
2.779541015625
1.989990234375
0.022558593749999998
0.023364257812499997
0.0169189453125
0.024169921875
0.0217529296875
0.023364257812499997
0.0217529296875
0.022558593749999998
0.020947265625
0.019335937499999997
0.136962890625
0.249755859375
0.362548828125
0.45761718749999997
0.0217529296875
0.020947265625
0.023364257812499997
0.024169921875
0.0217529296875
0.022558593749999998
0.7516845703124999
3.0252685546875
3.0244628906249997
3.0204345703124997
3.0252685546875
3.0252685546875
3.0204345703124997
3.02607421875
3.0252685546875
3.01962890625
3.0244628906249997
2.931005859375
2.8955566406249997
2.834326171875
2.6216308593749997
3.0236572265625
3.02607421875
3.0236572265625
3.029296875
3.0268798828124996
3.0268798828124996
2.1519287109375
0.18852539062499998
0.026586914062499998
0.0201416015625
0.0217529296875
0.023364257812499997
0.022558593749999998
0.022558593749999998
0.0217529296875
0.030615234374999998
0.020947265625
0.09345703124999999
0.20947265625
0.32065429687499997
0.44794921875
0.072509765625
0.018530273437499998
0.023364257812499997
0.023364257812499997
0.0217529296875
0.020947265625
0.7355712890624999
3.0236572265625
3.0268798828124996
3.0236572265625
3.0252685546875
3.0252685546875
3.0268798828124996
3.0244628906249997
3.0228515624999996
3.0236572265625
3.02607421875
2.9930419921875
2.8874999999999997
2.7344238281249997
2.6490234375
2.47177734375
3.0244628906249997
3.0244628906249997
3.02607421875
3.0244628906249997
3.0244628906249997
2.5330078124999997
0.8668945312499999
0.0201416015625
0.020947265625
0.023364257812499997
0.02578125
0.0217529296875
0.022558593749999998
0.0201416015625
0.0169189453125
0.018530273437499998
0.058813476562499994
0.1393798828125
0.26748046875
0.38591308593749996
0.491455078125
0.023364257812499997
0.0201416015625
0.02578125
0.017724609375
0.0217529296875
0.1611328125
1.82080078125
3.0244628906249997
3.0252685546875
3.01962890625
3.0220458984375
3.0228515624999996
3.02607421875
3.0228515624999996
3.0301025390625
3.0252685546875
3.0236572265625
2.9600097656249997
3.0099609375
2.7803466796875
2.5789306640625
3.027685546875
3.0236572265625
3.01962890625
3.0268798828124996
3.0268798828124996
2.827880859375
0.630029296875
0.0217529296875
0.020947265625
0.0249755859375
0.018530273437499998
0.026586914062499998
0.023364257812499997
0.023364257812499997
0.0217529296875
0.0217529296875
0.0217529296875
0.146630859375
0.25620117187499997
0.37785644531249996
0.49467773437499996
0.018530273437499998
0.018530273437499998
0.022558593749999998
0.020947265625
0.0169189453125
0.022558593749999998
2.2808349609375
3.01962890625
3.0244628906249997
3.029296875
3.02607421875
3.0244628906249997
3.027685546875
3.0220458984375
3.02607421875
3.02607421875
3.0244628906249997
2.9438964843749997
2.8311035156249997
2.7328124999999996
2.5724853515625
3.0228515624999996
3.02607421875
3.029296875
3.0252685546875
3.0252685546875
2.8012939453124996
2.0560546875
0.023364257812499997
0.024169921875
0.026586914062499998
0.0217529296875
0.017724609375
0.020947265625
0.023364257812499997
0.022558593749999998
0.023364257812499997
0.01611328125
0.09990234375
0.18449707031249998
0.32065429687499997
0.4318359375
0.022558593749999998
0.022558593749999998
0.027392578124999997
0.022558593749999998
0.024169921875
0.0217529296875
0.7259033203124999
3.0244628906249997
3.027685546875
3.0228515624999996
3.0228515624999996
3.02607421875
3.0236572265625
3.0252685546875
3.02607421875
3.02607421875
3.0228515624999996
3.0244628906249997
2.9519531249999997
2.8528564453125
2.69736328125
2.5338134765625
3.0236572265625
3.021240234375
3.029296875
3.02607421875
3.0220458984375
2.425048828125
0.7565185546875
0.023364257812499997
0.023364257812499997
0.023364257812499997
0.022558593749999998
0.02578125
0.0249755859375
0.022558593749999998
0.019335937499999997
0.0217529296875
0.0443115234375
0.15227050781249998
0.281982421875
0.388330078125
0.4761474609375
0.023364257812499997
0.022558593749999998
0.02578125
0.027392578124999997
0.026586914062499998
0.08217773437499999
2.8037109375
3.0252685546875
3.0244628906249997
3.0284912109374997
3.029296875
3.0236572265625
3.0268798828124996
3.0244628906249997
3.0228515624999996
3.0252685546875
3.0228515624999996
2.9849853515625
2.876220703125
2.7569824218749996
2.5330078124999997
3.0252685546875
3.0301025390625
3.0244628906249997
3.0244628906249997
3.0244628906249997
2.7892089843749996
0.5132080078125
0.024169921875
0.020947265625
0.026586914062499998
0.022558593749999998
0.020947265625
0.0201416015625
0.022558593749999998
0.027392578124999997
0.0169189453125
0.042700195312499994
0.088623046875
0.1812744140625
0.314208984375
0.4229736328125
0.022558593749999998
0.019335937499999997
0.023364257812499997
0.022558593749999998
0.024169921875
0.022558593749999998
2.9527587890625
3.02607421875
3.0236572265625
3.02607421875
3.0228515624999996
3.027685546875
3.0252685546875
3.0220458984375
3.0228515624999996
3.027685546875
3.005126953125
2.969677734375
2.889111328125
2.7932373046874996
2.6304931640625
3.0244628906249997
3.0252685546875
3.01962890625
3.0252685546875
3.027685546875
2.8077392578125
1.2906738281249999
0.022558593749999998
0.0281982421875
0.026586914062499998
0.022558593749999998
0.0217529296875
0.017724609375
0.020947265625
0.024169921875
0.019335937499999997
0.019335937499999997
0.022558593749999998
0.1071533203125
0.28681640625
0.394775390625
0.024169921875
0.0217529296875
0.020947265625
0.0217529296875
0.02578125
0.0217529296875
0.8032470703125
3.0252685546875
3.0188232421874996
3.02607421875
3.0244628906249997
3.029296875
3.0236572265625
3.0236572265625
3.0244628906249997
3.0236572265625
3.027685546875
2.9390625
2.96484375
2.7892089843749996
2.5579833984375
2.5080322265625
3.0244628906249997
3.0252685546875
3.0284912109374997
3.0244628906249997
3.001904296875
2.31064453125
0.69287109375
0.0217529296875
0.0201416015625
0.022558593749999998
0.022558593749999998
0.018530273437499998
0.015307617187499999
0.0217529296875
0.024169921875
0.0217529296875
0.0765380859375
0.233642578125
0.38188476562499996
0.49467773437499996
0.5373779296875
0.017724609375
0.022558593749999998
0.0201416015625
0.01611328125
0.0217529296875
0.38188476562499996
3.0244628906249997
3.0244628906249997
3.0284912109374997
3.027685546875
3.01962890625
3.02607421875
3.0268798828124996
3.0244628906249997
3.0244628906249997
3.0244628906249997
3.001904296875
2.9205322265625
2.8431884765624997
2.6981689453124997
2.4532470703125
3.0228515624999996
3.021240234375
3.0244628906249997
3.0252685546875
3.0244628906249997
2.763427734375
0.591357421875
0.026586914062499998
0.0217529296875
0.020947265625
0.023364257812499997
0.0169189453125
0.0217529296875
0.020947265625
0.020947265625
0.0217529296875
0.0990966796875
0.1973876953125
0.2940673828125
0.4149169921875
0.510791015625
0.018530273437499998
0.023364257812499997
0.026586914062499998
0.017724609375
0.023364257812499997
0.020947265625
3.0244628906249997
3.0284912109374997
3.0244628906249997
3.02607421875
3.0244628906249997
3.029296875
3.0228515624999996
3.0220458984375
3.0252685546875
3.027685546875
3.018017578125
2.98740234375
2.8947509765625
2.7134765625
2.5579833984375
3.0252685546875
3.0228515624999996
3.0244628906249997
3.0236572265625
3.029296875
2.8423828125
1.029638671875
0.0217529296875
0.023364257812499997
0.0217529296875
0.020947265625
0.020947265625
0.023364257812499997
0.0217529296875
0.017724609375
0.019335937499999997
0.0958740234375
0.1740234375
0.3053466796875
0.5164306640624999
0.6614501953124999
0.020947265625
0.02578125
0.022558593749999998
0.027392578124999997
0.022558593749999998
0.1353515625
1.1657958984374999
3.021240234375
3.02607421875
3.0236572265625
3.01962890625
3.01962890625
3.0204345703124997
3.0284912109374997
3.0268798828124996
3.02607421875
3.0236572265625
3.0268798828124996
2.8874999999999997
2.8045166015625
2.6296874999999997
3.0204345703124997
3.0244628906249997
3.0244628906249997
3.01962890625
3.0220458984375
2.956787109375
2.341259765625
0.019335937499999997
0.023364257812499997
0.020947265625
0.022558593749999998
0.023364257812499997
0.018530273437499998
0.022558593749999998
0.022558593749999998
0.02578125
0.042700195312499994
0.17241210937499998
0.35288085937499997
0.4874267578125
0.6147216796875
0.0169189453125
0.027392578124999997
0.027392578124999997
0.022558593749999998
0.022558593749999998
0.022558593749999998
0.581689453125
3.02607421875
3.0244628906249997
3.027685546875
3.0204345703124997
3.0236572265625
3.0244628906249997
3.0220458984375
3.0228515624999996
3.02607421875
3.02607421875
2.9833740234375
2.9495361328125
2.8995849609374997
2.7207275390624996
2.70703125
3.0236572265625
3.0317138671875
3.0236572265625
3.0252685546875
3.0220458984375
2.65546875
0.5518798828125
0.020947265625
0.027392578124999997
0.0217529296875
0.0217529296875
0.020947265625
0.027392578124999997
0.023364257812499997
0.02578125
0.0217529296875
0.0958740234375
0.1732177734375
0.3311279296875
0.4326416015625
0.3673828125
0.026586914062499998
0.023364257812499997
0.019335937499999997
0.027392578124999997
0.018530273437499998
0.1119873046875
3.021240234375
3.0236572265625
3.0236572265625
3.0220458984375
3.0228515624999996
3.0244628906249997
3.029296875
3.0284912109374997
3.02607421875
3.0228515624999996
3.029296875
3.0139892578125
2.9068359375
2.721533203125
2.560400390625
3.0228515624999996
3.0268798828124996
3.0244628906249997
3.0220458984375
3.0244628906249997
2.698974609375
0.958740234375
0.0281982421875
0.022558593749999998
0.020947265625
0.027392578124999997
0.022558593749999998
0.0217529296875
0.0281982421875
0.0217529296875
0.022558593749999998
0.022558593749999998
0.022558593749999998
0.1248779296875
0.2956787109375
0.3681884765625
0.0217529296875
0.0281982421875
0.0217529296875
0.017724609375
0.027392578124999997
0.020947265625
1.5162597656249999
3.0236572265625
3.0236572265625
3.0236572265625
3.0204345703124997
3.0228515624999996
3.029296875
3.01962890625
3.0252685546875
3.0268798828124996
2.9769287109375
2.8512451171874997
2.73603515625
2.63291015625
2.4846679687499997
3.02607421875
3.0252685546875
3.0244628906249997
3.0244628906249997
3.0252685546875
2.8456054687499996
2.0375244140624997
0.024169921875
0.018530273437499998
0.02578125
0.0217529296875
0.020947265625
0.0217529296875
0.022558593749999998
0.024169921875
0.0217529296875
0.019335937499999997
0.07412109374999999
0.21269531249999998
0.3150146484375
0.41572265625
0.0217529296875
0.020947265625
0.0201416015625
0.0217529296875
0.023364257812499997
0.018530273437499998
0.594580078125
3.0268798828124996
3.0244628906249997
3.029296875
3.0236572265625
3.0252685546875
3.0236572265625
3.021240234375
3.02607421875
3.0236572265625
3.0244628906249997
3.0228515624999996
2.9221435546874996
2.8593017578124997
2.705419921875
3.0268798828124996
3.02607421875
3.0236572265625
3.021240234375
3.0268798828124996
3.0244628906249997
2.4629150390625
0.19497070312499998
0.0217529296875
0.02578125
0.0217529296875
0.0281982421875
0.022558593749999998
0.020947265625
0.0217529296875
0.019335937499999997
0.022558593749999998
0.078955078125
0.185302734375
0.34482421874999997
0.451171875
0.0201416015625
0.022558593749999998
0.023364257812499997
0.022558593749999998
0.0217529296875
0.018530273437499998
0.23203125
3.0228515624999996
3.0244628906249997
3.0236572265625
3.0204345703124997
3.0244628906249997
3.027685546875
3.02607421875
3.0220458984375
3.0268798828124996
3.02607421875
2.96484375
2.9656494140625
2.8270751953124997
2.6981689453124997
2.5289794921874997
3.0236572265625
3.0252685546875
3.0252685546875
3.029296875
3.0236572265625
2.53623046875
0.9168457031249999
0.020947265625
0.023364257812499997
0.0217529296875
0.0217529296875
0.017724609375
0.020947265625
0.026586914062499998
0.022558593749999998
0.020947265625
0.023364257812499997
0.0652587890625
0.18691406249999998
0.33354492187499996
0.42861328125
0.0169189453125
0.020947265625
0.023364257812499997
0.0217529296875
0.0249755859375
0.0515625
2.447607421875
3.0228515624999996
3.029296875
3.0220458984375
3.0252685546875
3.02607421875
3.0236572265625
3.0252685546875
3.0244628906249997
3.0244628906249997
3.0244628906249997
3.02607421875
2.8874999999999997
2.811767578125
2.6739990234374997
3.0220458984375
3.0236572265625
3.0244628906249997
3.02607421875
3.02607421875
2.8617187499999996
1.6588623046875
0.020947265625
0.022558593749999998
0.022558593749999998
0.026586914062499998
0.0217529296875
0.019335937499999997
0.0201416015625
0.020947265625
0.0249755859375
0.019335937499999997
0.12890625
0.24733886718749998
0.362548828125
0.39316406249999997
0.022558593749999998
0.022558593749999998
0.022558593749999998
0.020947265625
0.0201416015625
0.026586914062499998
0.9240966796875
3.029296875
3.0268798828124996
3.0204345703124997
3.0252685546875
3.0228515624999996
3.021240234375
3.02607421875
3.0244628906249997
3.0252685546875
3.0244628906249997
3.0228515624999996
2.882666015625
2.745703125
2.6643310546874996
3.02607421875
3.018017578125
3.02607421875
3.0228515624999996
3.02607421875
3.02607421875
2.350927734375
0.0249755859375
0.022558593749999998
0.023364257812499997
0.017724609375
0.022558593749999998
0.0217529296875
0.020947265625
0.017724609375
0.022558593749999998
0.0217529296875
0.069287109375
0.12568359375
0.26425781249999997
0.37382812499999996
0.0217529296875
0.022558593749999998
0.024169921875
0.0217529296875
0.0217529296875
0.022558593749999998
0.2989013671875
3.0309082031249996
3.027685546875
3.0244628906249997
3.0228515624999996
3.0252685546875
3.0236572265625
3.02607421875
3.0236572265625
3.0252685546875
3.0268798828124996
2.9430908203125
2.7779296875
2.586181640625
2.450830078125
2.247802734375
3.027685546875
3.0244628906249997
3.0244628906249997
3.02607421875
3.0244628906249997
2.3356201171874997
0.6735351562499999
0.020947265625
0.023364257812499997
0.022558593749999998
0.022558593749999998
0.023364257812499997
0.019335937499999997
0.018530273437499998
0.020947265625
0.0201416015625
0.08056640625
0.1474365234375
0.2578125
0.4358642578125
0.5220703125
0.01611328125
0.023364257812499997
0.019335937499999997
0.017724609375
0.020947265625
0.307763671875
3.0188232421874996
3.0236572265625
3.021240234375
3.0268798828124996
3.0228515624999996
3.0228515624999996
3.027685546875
3.0268798828124996
3.0228515624999996
3.0244628906249997
3.0244628906249997
2.9970703125
2.8883056640625
2.784375
2.6288818359375
3.0244628906249997
3.02607421875
3.0236572265625
3.01962890625
3.02607421875
2.779541015625
1.187548828125
0.026586914062499998
0.022558593749999998
0.0249755859375
0.0217529296875
0.0217529296875
0.0249755859375
0.019335937499999997
0.02900390625
0.0217529296875
0.02900390625
0.1200439453125
0.29970703125
0.407666015625
0.4447265625
0.020947265625
0.0217529296875
0.0217529296875
0.023364257812499997
0.0217529296875
0.024169921875
1.8578613281249998
3.0244628906249997
3.0220458984375
3.0204345703124997
3.0244628906249997
3.02607421875
3.0228515624999996
3.029296875
3.0204345703124997
3.02607421875
3.0244628906249997
2.9640380859374997
2.8786376953125
2.8109619140624997
2.6208251953125
3.0236572265625
3.0204345703124997
3.02607421875
3.021240234375
3.0228515624999996
2.9108642578125
2.2341064453125
0.0217529296875
0.0217529296875
0.01611328125
0.0217529296875
0.020947265625
0.02578125
0.023364257812499997
0.022558593749999998
0.022558593749999998
0.020947265625
0.07009277343749999
0.185302734375
0.29970703125
0.3955810546875
0.022558593749999998
0.022558593749999998
0.0217529296875
0.018530273437499998
0.020947265625
0.023364257812499997
0.6405029296875
3.0220458984375
3.021240234375
3.027685546875
3.0188232421874996
3.0236572265625
3.01962890625
3.02607421875
3.0252685546875
3.021240234375
3.027685546875
2.995458984375
2.9140869140624996
2.8472167968749997
2.6417724609374997
2.9197265624999997
3.0252685546875
3.0252685546875
3.0204345703124997
3.02607421875
3.021240234375
2.1680419921875
0.407666015625
0.023364257812499997
0.0249755859375
0.023364257812499997
0.0217529296875
0.019335937499999997
0.022558593749999998
0.024169921875
0.022558593749999998
0.0169189453125
0.095068359375
0.16032714843749998
0.314208984375
0.515625
0.439892578125
0.018530273437499998
0.017724609375
0.0281982421875
0.022558593749999998
0.022558593749999998
0.5873291015625
3.02607421875
3.0228515624999996
3.0309082031249996
3.0252685546875
3.0236572265625
3.0252685546875
3.027685546875
3.0252685546875
3.021240234375
3.0244628906249997
3.0244628906249997
2.9962646484374997
2.8351318359374997
2.7344238281249997
2.576513671875
3.0220458984375
3.0244628906249997
3.027685546875
3.0228515624999996
3.02607421875
2.5877929687499996
0.452783203125
0.024169921875
0.020947265625
0.026586914062499998
0.026586914062499998
0.02578125
0.022558593749999998
0.0217529296875
0.019335937499999997
0.020947265625
0.08942871093749999
0.12568359375
0.28439941406249997
0.39799804687499996
0.5180419921875
0.0201416015625
0.020947265625
0.022558593749999998
0.023364257812499997
0.026586914062499998
0.023364257812499997
2.44921875
3.0228515624999996
3.0252685546875
3.0236572265625
3.0244628906249997
3.029296875
3.02607421875
3.02607421875
3.018017578125
3.0244628906249997
3.0284912109374997
2.956787109375
2.874609375
2.7948486328124997
2.6353271484375
3.0252685546875
3.0236572265625
3.0228515624999996
3.0252685546875
3.02607421875
2.8431884765624997
1.909423828125
0.017724609375
0.017724609375
0.0217529296875
0.02578125
0.018530273437499998
0.026586914062499998
0.023364257812499997
0.0169189453125
0.0201416015625
0.0217529296875
0.0604248046875
0.175634765625
0.2956787109375
0.4004150390625
0.026586914062499998
0.023364257812499997
0.018530273437499998
0.024169921875
0.022558593749999998
0.02578125
0.700927734375
3.0252685546875
3.0228515624999996
3.02607421875
3.0228515624999996
3.0236572265625
3.0244628906249997
3.0228515624999996
3.027685546875
3.021240234375
3.0252685546875
3.0059326171875
2.9318115234374997
2.866552734375
2.67158203125
3.0236572265625
3.0268798828124996
3.0309082031249996
3.0244628906249997
3.0236572265625
3.0228515624999996
1.96904296875
0.023364257812499997
0.02578125
0.026586914062499998
0.0217529296875
0.0217529296875
0.0249755859375
0.0201416015625
0.022558593749999998
0.022558593749999998
0.01611328125
0.19255371093749998
0.2698974609375
0.4439208984375
0.5994140625
0.023364257812499997
0.019335937499999997
0.022558593749999998
0.0217529296875
0.017724609375
0.022558593749999998
0.631640625
3.0244628906249997
3.029296875
3.01962890625
3.0244628906249997
3.0220458984375
3.021240234375
3.02607421875
3.029296875
3.0228515624999996
3.01962890625
3.0228515624999996
2.9664550781249996
2.8915283203124997
2.6885009765624996
2.51044921875
3.02607421875
3.0244628906249997
3.01962890625
3.0236572265625
3.0244628906249997
2.4758056640625
0.4125
0.023364257812499997
0.022558593749999998
0.022558593749999998
0.022558593749999998
0.0217529296875
0.020947265625
0.020947265625
0.0217529296875
0.0201416015625
0.11359863281249999
0.21672363281249998
0.37705078124999997
0.46647949218749996
0.51884765625
0.023364257812499997
0.020947265625
0.017724609375
0.027392578124999997
0.0217529296875
0.1571044921875
3.0252685546875
3.0236572265625
3.02607421875
3.0244628906249997
3.0236572265625
3.0236572265625
3.0236572265625
3.0244628906249997
3.0236572265625
3.01962890625
2.9801513671874997
2.99384765625
2.8955566406249997
2.8149902343749997
2.640966796875
3.0228515624999996
3.0252685546875
3.0204345703124997
3.02607421875
3.0236572265625
2.8528564453125
0.91201171875
0.020947265625
0.020947265625
0.018530273437499998
0.022558593749999998
0.022558593749999998
0.0217529296875
0.022558593749999998
0.0201416015625
0.0217529296875
0.023364257812499997
0.08540039062499999
0.21672363281249998
0.35288085937499997
0.45439453124999996
0.0217529296875
0.022558593749999998
0.02578125
0.0217529296875
0.020947265625
0.024169921875
0.7307373046875
3.0228515624999996
3.0204345703124997
3.0252685546875
3.027685546875
3.02607421875
3.01962890625
3.02607421875
3.02607421875
3.0228515624999996
3.027685546875
3.01962890625
3.0236572265625
3.0010986328125
2.9543701171874996
3.0252685546875
3.0244628906249997
3.02607421875
3.02607421875
3.029296875
3.0244628906249997
1.7764892578125
0.0169189453125
0.0201416015625
0.0217529296875
0.0217529296875
0.022558593749999998
0.022558593749999998
0.02578125
0.053173828124999996
0.020947265625
0.1699951171875
0.5792724609375
0.7758544921874999
0.9555175781249999
1.1255126953124999
0.023364257812499997
0.01611328125
0.026586914062499998
0.022558593749999998
0.0217529296875
0.020947265625
0.7742431640624999
3.02607421875
3.0204345703124997
3.0252685546875
3.0236572265625
3.0244628906249997
3.029296875
3.0228515624999996
3.0252685546875
3.0236572265625
3.0236572265625
3.0204345703124997
2.96162109375
2.8214355468749996
2.673193359375
2.5031982421874996
3.0236572265625
3.027685546875
3.0244628906249997
3.0268798828124996
3.0236572265625
2.29775390625
0.41733398437499997
0.018530273437499998
0.022558593749999998
0.0217529296875
0.026586914062499998
0.02900390625
0.023364257812499997
0.0217529296875
0.02578125
0.022558593749999998
0.053173828124999996
0.0837890625
0.22316894531249998
0.3520751953125
0.4245849609375
0.020947265625
0.020947265625
0.020947265625
0.02578125
0.027392578124999997
0.327099609375
3.029296875
3.02607421875
3.0220458984375
3.0268798828124996
3.0252685546875
3.0204345703124997
3.0204345703124997
3.0236572265625
3.0244628906249997
3.0244628906249997
2.9664550781249996
2.9865966796874996
2.779541015625
2.663525390625
2.5225341796875
3.0236572265625
3.0244628906249997
3.0188232421874996
3.029296875
3.0236572265625
2.6852783203125
1.0634765625
0.024169921875
0.022558593749999998
0.0217529296875
0.023364257812499997
0.0217529296875
0.023364257812499997
0.0201416015625
0.022558593749999998
0.0249755859375
0.023364257812499997
0.040283203125
0.1877197265625
0.3029296875
0.36899414062499997
0.024169921875
0.0217529296875
0.019335937499999997
0.024169921875
0.022558593749999998
0.022558593749999998
1.0562255859375
3.0252685546875
3.027685546875
3.0204345703124997
3.027685546875
3.027685546875
3.0244628906249997
3.02607421875
3.0252685546875
3.0244628906249997
3.0236572265625
3.0228515624999996
2.9414794921875
2.8230468749999997
2.6852783203125
3.0244628906249997
3.027685546875
3.0244628906249997
3.0268798828124996
3.0204345703124997
2.8979736328124996
2.151123046875
0.022558593749999998
0.026586914062499998
0.0217529296875
0.0249755859375
0.0217529296875
0.02578125
0.0281982421875
0.017724609375
0.0201416015625
0.022558593749999998
0.14824218749999998
0.265869140625
0.346435546875
0.49306640625
0.026586914062499998
0.0217529296875
0.0217529296875
0.024169921875
0.020947265625
0.0169189453125
0.5454345703125
3.0252685546875
3.0284912109374997
3.0236572265625
3.0228515624999996
3.0252685546875
3.0236572265625
3.0268798828124996
3.0228515624999996
3.018017578125
3.021240234375
3.0236572265625
2.9970703125
2.914892578125
2.689306640625
3.0228515624999996
3.01962890625
3.0220458984375
3.027685546875
3.0252685546875
3.0236572265625
2.2590820312499997
0.4842041015625
0.026586914062499998
0.0217529296875
0.022558593749999998
0.024169921875
0.020947265625
0.017724609375
0.0217529296875
0.022558593749999998
0.019335937499999997
0.0555908203125
0.11037597656249999
0.20463867187499998
0.372216796875
0.12890625
0.02578125
0.0217529296875
0.0217529296875
0.024169921875
0.022558593749999998
0.5776611328125
3.02607421875
3.0244628906249997
3.0252685546875
3.0188232421874996
3.0252685546875
3.02607421875
3.02607421875
3.029296875
3.0228515624999996
3.0236572265625
3.0244628906249997
3.0204345703124997
2.8963623046875
2.7747070312499997
2.7126708984374996
3.0228515624999996
3.0268798828124996
3.0236572265625
3.027685546875
3.0228515624999996
2.544287109375
0.9047607421874999
0.026586914062499998
0.027392578124999997
0.024169921875
0.022558593749999998
0.0217529296875
0.020947265625
0.0217529296875
0.0217529296875
0.023364257812499997
0.091845703125
0.14018554687499998
0.25458984375
0.35771484374999996
0.44956054687499997
0.0217529296875
0.022558593749999998
0.020947265625
0.019335937499999997
0.023364257812499997
0.20705566406249998
2.5031982421874996
3.0228515624999996
3.021240234375
3.0220458984375
3.0236572265625
3.0284912109374997
3.02607421875
3.021240234375
3.0244628906249997
3.0244628906249997
3.0244628906249997
2.9583984374999996
2.91328125
2.8149902343749997
2.63291015625
3.0252685546875
3.0236572265625
3.02607421875
3.0228515624999996
3.0252685546875
2.8133789062499996
1.9593749999999999
0.0217529296875
0.0217529296875
0.019335937499999997
0.0217529296875
0.0217529296875
0.0249755859375
0.020947265625
0.022558593749999998
0.023364257812499997
0.022558593749999998
0.17644042968749998
0.30856933593749997
0.48581542968749997
0.6018310546875
0.020947265625
0.022558593749999998
0.022558593749999998
0.02578125
0.02578125
0.1893310546875
1.0094970703125
3.021240234375
3.02607421875
3.0244628906249997
3.027685546875
3.0252685546875
3.0236572265625
3.0252685546875
3.0244628906249997
3.0228515624999996
3.011572265625
2.9737060546875
2.848828125
2.8053222656249996
2.5628173828125
3.0244628906249997
3.0236572265625
3.0220458984375
3.0236572265625
3.027685546875
3.0043212890624997
1.8240234375
0.120849609375
0.0201416015625
0.018530273437499998
0.022558593749999998
0.023364257812499997
0.026586914062499998
0.0201416015625
0.02578125
0.023364257812499997
0.0217529296875
0.1264892578125
0.20705566406249998
0.3158203125
0.43505859375
0.0249755859375
0.0217529296875
0.020947265625
0.0217529296875
0.024169921875
0.022558593749999998
0.9643798828125
3.0284912109374997
3.0236572265625
3.0236572265625
3.02607421875
3.0284912109374997
3.0236572265625
3.0244628906249997
3.0252685546875
3.0236572265625
3.0244628906249997
2.9745117187499996
2.9020019531249996
2.7771240234374996
2.6063232421875
2.4145751953125
3.0301025390625
3.0228515624999996
3.027685546875
3.0236572265625
3.0147949218749996
2.3340087890625
0.7226806640625
0.022558593749999998
0.0217529296875
0.023364257812499997
0.022558593749999998
0.019335937499999997
0.0217529296875
0.017724609375
0.026586914062499998
0.0201416015625
0.088623046875
0.1861083984375
0.2537841796875
0.44956054687499997
0.6034423828125
0.022558593749999998
0.026586914062499998
0.026586914062499998
0.01611328125
0.0217529296875
0.43022460937499996
3.01962890625
3.0268798828124996
3.0236572265625
3.021240234375
3.0252685546875
3.027685546875
3.0268798828124996
3.0244628906249997
3.0252685546875
3.0236572265625
3.0220458984375
2.9350341796875
2.8415771484374996
2.6949462890625
2.4629150390625
3.0228515624999996
3.0244628906249997
3.0244628906249997
3.0244628906249997
3.0188232421874996
2.792431640625
0.5969970703124999
0.0249755859375
0.0217529296875
0.020947265625
0.023364257812499997
0.0217529296875
0.0281982421875
0.0169189453125
0.022558593749999998
0.0249755859375
0.08701171875
0.21672363281249998
0.327099609375
0.48017578125
0.6034423828125
0.020947265625
0.0217529296875
0.023364257812499997
0.02578125
0.0217529296875
0.21591796875
2.8423828125
3.0228515624999996
3.0244628906249997
3.0244628906249997
3.02607421875
3.01962890625
3.0244628906249997
3.0236572265625
3.0204345703124997
3.021240234375
3.0228515624999996
2.9422851562499996
2.8359375
2.6868896484375
2.5273681640624996
3.0244628906249997
3.0284912109374997
3.0236572265625
3.0236572265625
3.02607421875
2.8093505859374996
1.2576416015624998
0.022558593749999998
0.0201416015625
0.023364257812499997
0.020947265625
0.023364257812499997
0.019335937499999997
0.022558593749999998
0.0217529296875
0.0201416015625
0.022558593749999998
0.064453125
0.169189453125
0.38188476562499996
0.49387207031249997
0.023364257812499997
0.0217529296875
0.018530273437499998
0.0217529296875
0.019335937499999997
0.2425048828125
1.0167480468749999
3.0252685546875
3.0236572265625
3.0244628906249997
3.0244628906249997
3.0252685546875
3.0244628906249997
3.0220458984375
3.0236572265625
3.029296875
3.0236572265625
2.9785400390624996
2.8552734374999997
2.719921875
2.5885986328125
2.4258544921875
3.0268798828124996
3.0236572265625
3.0236572265625
3.0220458984375
2.9438964843749997
2.18818359375
0.5518798828125
0.026586914062499998
0.022558593749999998
0.022558593749999998
0.0217529296875
0.0217529296875
0.026586914062499998
0.0217529296875
0.020947265625
0.020947265625
0.133740234375
0.2513671875
0.43828124999999996
0.6348632812499999
0.6348632812499999
0.0169189453125
0.0281982421875
0.022558593749999998
0.019335937499999997
0.0217529296875
0.5599365234375
3.0228515624999996
3.0268798828124996
3.0284912109374997
3.0228515624999996
3.0268798828124996
3.0252685546875
3.0244628906249997
3.0252685546875
3.0244628906249997
3.0204345703124997
2.9970703125
2.956787109375
2.827880859375
2.6965576171874996
2.466943359375
3.0228515624999996
3.0236572265625
3.0228515624999996
3.0236572265625
3.0244628906249997
2.6917236328125
0.5486572265624999
0.023364257812499997
0.022558593749999998
0.020947265625
0.020947265625
0.020947265625
0.020947265625
0.0217529296875
0.0217529296875
0.0217529296875
0.08056640625
0.193359375
0.32548828124999996
0.485009765625
0.646142578125
0.023364257812499997
0.027392578124999997
0.0217529296875
0.017724609375
0.0201416015625
0.2771484375
3.02607421875
3.0236572265625
3.0244628906249997
3.02607421875
3.0268798828124996
3.0236572265625
3.0228515624999996
3.0252685546875
3.0252685546875
3.02607421875
2.9559814453124997
2.9455078125
2.784375
2.57490234375
2.4177978515625
3.02607421875
3.029296875
3.0236572265625
3.0252685546875
3.0244628906249997
2.745703125
0.9812988281249999
0.0217529296875
0.024169921875
0.020947265625
0.023364257812499997
0.017724609375
0.023364257812499997
0.026586914062499998
0.024169921875
0.022558593749999998
0.018530273437499998
0.054785156249999994
0.18449707031249998
0.3673828125
0.4842041015625
0.012890625
0.022558593749999998
0.022558593749999998
0.020947265625
0.018530273437499998
0.30856933593749997
1.2044677734375
3.02607421875
3.0228515624999996
3.0252685546875
3.0228515624999996
3.029296875
3.0268798828124996
3.01962890625
3.0228515624999996
3.0284912109374997
3.0188232421874996
2.9761230468749997
2.843994140625
2.75537109375
2.608740234375
3.0228515624999996
3.0228515624999996
3.0244628906249997
3.0236572265625
3.0268798828124996
2.7239501953125
2.054443359375
0.28439941406249997
0.022558593749999998
0.020947265625
0.0217529296875
0.023364257812499997
0.01611328125
0.020947265625
0.0169189453125
0.0217529296875
0.023364257812499997
0.1353515625
0.29245605468749997
0.39719238281249997
0.5518798828125
0.07412109374999999
0.023364257812499997
0.0201416015625
0.023364257812499997
0.020947265625
0.1168212890625
0.8113037109375
3.0317138671875
3.0252685546875
3.0236572265625
3.0244628906249997
3.01962890625
3.0236572265625
3.0301025390625
3.0252685546875
3.021240234375
3.0228515624999996
2.9753173828125
2.856884765625
2.7658447265625
2.599072265625
2.56201171875
3.021240234375
3.0236572265625
3.02607421875
3.0252685546875
3.02607421875
2.5402587890625
0.4487548828125
0.018530273437499998
0.024169921875
0.023364257812499997
0.024169921875
0.0217529296875
0.0217529296875
0.024169921875
0.0217529296875
0.017724609375
0.08942871093749999
0.1812744140625
0.2779541015625
0.4487548828125
0.5454345703125
0.0217529296875
0.017724609375
0.0201416015625
0.023364257812499997
0.0217529296875
0.3544921875
3.021240234375
3.02607421875
3.0220458984375
3.0236572265625
3.0284912109374997
3.0244628906249997
3.0268798828124996
3.0301025390625
3.0244628906249997
3.0244628906249997
2.9583984374999996
2.876220703125
2.769873046875
2.5402587890625
2.384765625
3.0236572265625
3.0252685546875
3.021240234375
3.0236572265625
3.021240234375
2.5950439453125
0.8991210937499999
0.01611328125
0.022558593749999998
0.02578125
0.0217529296875
0.020947265625
0.0217529296875
0.023364257812499997
0.0217529296875
0.022558593749999998
0.08217773437499999
0.14501953125
0.27231445312499997
0.4390869140625
0.5808837890624999
0.023364257812499997
0.0169189453125
0.022558593749999998
0.0201416015625
0.0201416015625
0.39396972656249996
2.060888671875
3.0244628906249997
3.0228515624999996
3.0268798828124996
3.0236572265625
3.0301025390625
3.0236572265625
3.027685546875
3.0236572265625
3.0228515624999996
3.0244628906249997
2.9358398437499997
2.7803466796875
2.679638671875
2.495947265625
3.02607421875
3.027685546875
3.0284912109374997
3.0252685546875
3.0228515624999996
2.737646484375
1.9424560546874998
0.0249755859375
0.02578125
0.020947265625
0.024169921875
0.0217529296875
0.02578125
0.0201416015625
0.020947265625
0.0201416015625
0.022558593749999998
0.133740234375
0.2892333984375
0.4487548828125
0.53818359375
0.017724609375
0.023364257812499997
0.0217529296875
0.022558593749999998
0.020947265625
0.2618408203125
0.9257080078125
3.027685546875
3.0244628906249997
3.02607421875
3.0268798828124996
3.0228515624999996
3.0204345703124997
3.0228515624999996
3.0244628906249997
3.0244628906249997
2.9285888671875
2.89716796875
2.8012939453124996
2.5805419921875
2.505615234375
3.0244628906249997
3.0284912109374997
3.02607421875
3.0244628906249997
3.0301025390625
3.0268798828124996
2.1076171875
0.2892333984375
0.0217529296875
0.0217529296875
0.026586914062499998
0.027392578124999997
0.0201416015625
0.022558593749999998
0.023364257812499997
0.024169921875
0.020947265625
0.0749267578125
0.1740234375
0.32145996093749996
0.50595703125
0.022558593749999998
0.0201416015625
0.023364257812499997
0.017724609375
0.022558593749999998
0.024169921875
0.8765624999999999
3.0244628906249997
3.0220458984375
3.029296875
3.0236572265625
3.0244628906249997
3.0236572265625
3.0244628906249997
3.0268798828124996
3.01962890625
3.0228515624999996
2.9712890625
2.89072265625
2.771484375
2.576513671875
2.399267578125
3.0252685546875
3.0244628906249997
3.0220458984375
3.0317138671875
3.021240234375
2.42666015625
0.7871337890625
0.020947265625
0.020947265625
0.0201416015625
0.019335937499999997
0.0201416015625
0.020947265625
0.022558593749999998
0.024169921875
0.018530273437499998
0.103125
0.19013671875
0.3673828125
0.4890380859375
0.5776611328125
0.022558593749999998
0.020947265625
0.022558593749999998
0.0249755859375
0.022558593749999998
0.47453613281249996
2.9261718749999996
3.0228515624999996
3.021240234375
3.0204345703124997
3.0244628906249997
3.0236572265625
3.0252685546875
3.0236572265625
3.021240234375
3.0252685546875
2.96162109375
2.8818603515624996
2.744091796875
2.5982666015625
2.450830078125
3.0268798828124996
3.0228515624999996
3.021240234375
3.0236572265625
3.0244628906249997
2.7867919921874997
1.8111328125
0.02578125
0.022558593749999998
0.023364257812499997
0.0201416015625
0.023364257812499997
0.023364257812499997
0.020947265625
0.022558593749999998
0.022558593749999998
0.0298095703125
0.1506591796875
0.3021240234375
0.439892578125
0.5583251953125
0.0217529296875
0.0217529296875
0.020947265625
0.022558593749999998
0.0217529296875
0.28037109374999997
1.058642578125
3.021240234375
3.021240234375
3.02607421875
3.0252685546875
3.0236572265625
3.0204345703124997
3.02607421875
3.0228515624999996
3.0244628906249997
2.9592041015625
2.8721923828125
2.744091796875
2.415380859375
2.3396484374999997
3.0268798828124996
3.0228515624999996
3.0244628906249997
3.0244628906249997
3.0236572265625
2.8294921874999996
1.7233154296875
0.04833984375
0.0217529296875
0.0201416015625
0.0217529296875
0.0217529296875
0.0314208984375
0.0249755859375
0.0201416015625
0.020947265625
0.0217529296875
0.1264892578125
0.22880859374999998
0.36416015625
0.55751953125
0.022558593749999998
0.0201416015625
0.02578125
0.024169921875
0.020947265625
0.0249755859375
1.0159423828125
3.0228515624999996
3.0244628906249997
3.0268798828124996
3.0301025390625
3.0236572265625
3.0244628906249997
3.01962890625
3.0244628906249997
3.02607421875
2.9906249999999996
2.9503417968749996
2.8593017578124997
2.6852783203125
2.5193115234374996
2.3718749999999997
3.0244628906249997
3.0252685546875
3.0220458984375
3.0220458984375
2.9181152343749996
2.230078125
0.7049560546875
0.02578125
0.022558593749999998
0.0201416015625
0.01611328125
0.0217529296875
0.022558593749999998
0.022558593749999998
0.0201416015625
0.024169921875
0.11843261718749999
0.2263916015625
0.43344726562499997
0.5808837890624999
0.6872314453124999
0.0217529296875
0.022558593749999998
0.0217529296875
0.023364257812499997
0.023364257812499997
0.5647705078124999
3.0244628906249997
3.0284912109374997
3.0244628906249997
3.0244628906249997
3.0244628906249997
3.0284912109374997
3.0244628906249997
3.0244628906249997
3.027685546875
3.0228515624999996
2.9986816406249996
2.9906249999999996
2.8190185546874997
2.68125
2.5257568359375
3.0228515624999996
3.0228515624999996
3.0228515624999996
3.0244628906249997
3.0252685546875
2.7094482421875
1.1899658203124999
0.0217529296875
0.022558593749999998
0.018530273437499998
0.026586914062499998
0.026586914062499998
0.0201416015625
0.02578125
0.024169921875
0.020947265625
0.1119873046875
0.1474365234375
0.31743164062499996
0.49467773437499996
0.5502685546875
0.023364257812499997
0.0281982421875
0.022558593749999998
0.0217529296875
0.017724609375
0.30856933593749997
1.4034667968749999
3.027685546875
3.0268798828124996
3.0252685546875
3.0252685546875
3.0244628906249997
3.0236572265625
3.02607421875
3.0244628906249997
3.0244628906249997
3.0147949218749996
2.8770263671875
2.73603515625
2.602294921875
2.3742919921875
3.0228515624999996
3.02607421875
3.021240234375
3.0252685546875
3.027685546875
2.88427734375
1.0207763671874999
0.0217529296875
0.023364257812499997
0.0281982421875
0.0217529296875
0.019335937499999997
0.022558593749999998
0.0217529296875
0.022558593749999998
0.02578125
0.0281982421875
0.0966796875
0.23686523437499998
0.32468261718749997
0.49870605468749996
0.022558593749999998
0.023364257812499997
0.022558593749999998
0.020947265625
0.01611328125
0.0765380859375
1.07958984375
3.02607421875
3.0244628906249997
3.0236572265625
3.0252685546875
3.0204345703124997
3.0244628906249997
3.029296875
3.0228515624999996
3.027685546875
3.021240234375
2.9334228515625
2.9116699218749997
2.7142822265624997
2.5563720703125
2.5869873046875
3.021240234375
3.0244628906249997
3.0244628906249997
3.0252685546875
2.8496337890624996
2.160791015625
0.50595703125
0.022558593749999998
0.0217529296875
0.015307617187499999
0.01611328125
0.0217529296875
0.0217529296875
0.0201416015625
0.022558593749999998
0.020947265625
0.0733154296875
0.2384765625
0.41008300781249996
0.5526855468749999
0.50595703125
0.019335937499999997
0.023364257812499997
0.0169189453125
0.022558593749999998
0.0684814453125
0.78310546875
3.0268798828124996
3.0252685546875
3.0228515624999996
3.02607421875
3.029296875
3.0268798828124996
3.0244628906249997
3.02607421875
3.02607421875
3.0236572265625
2.9849853515625
2.9398681640624997
2.7730957031249996
2.6458007812499997
2.462109375
3.0244628906249997
3.02607421875
3.02607421875
3.0236572265625
3.0236572265625
2.6039062499999996
0.6509765624999999
0.02578125
0.0217529296875
0.022558593749999998
0.026586914062499998
0.0217529296875
0.0201416015625
0.022558593749999998
0.02578125
0.01611328125
0.059619140625
0.1861083984375
0.3053466796875
0.44553222656249997
0.6082763671875
0.018530273437499998
0.0217529296875
0.0217529296875
0.022558593749999998
0.0201416015625
0.37705078124999997
3.0236572265625
3.0284912109374997
3.0236572265625
3.02607421875
3.0188232421874996
3.0244628906249997
3.0252685546875
3.021240234375
3.0284912109374997
3.0236572265625
2.9116699218749997
2.8399658203125
2.7344238281249997
2.5982666015625
2.44921875
3.0252685546875
3.02607421875
3.0220458984375
3.0268798828124996
3.0244628906249997
2.5974609374999997
1.04736328125
0.0217529296875
0.022558593749999998
0.019335937499999997
0.026586914062499998
0.0217529296875
0.022558593749999998
0.022558593749999998
0.0201416015625
0.0217529296875
0.058813476562499994
0.130517578125
0.314208984375
0.472119140625
0.6131103515624999
0.020947265625
0.0217529296875
0.022558593749999998
0.017724609375
0.018530273437499998
0.3585205078125
1.6234130859375
3.02607421875
3.0268798828124996
3.027685546875
3.0188232421874996
3.0228515624999996
3.02607421875
3.018017578125
3.0284912109374997
3.0244628906249997
3.0010986328125
2.9011962890625
2.7585937499999997
2.63291015625
2.42666015625
3.0244628906249997
3.0228515624999996
3.0236572265625
3.029296875
3.0244628906249997
2.776318359375
2.038330078125
0.2860107421875
0.0217529296875
0.0217529296875
0.0249755859375
0.0281982421875
0.0217529296875
0.022558593749999998
0.0169189453125
0.0249755859375
0.0394775390625
0.143408203125
0.33676757812499997
0.510791015625
0.613916015625
0.026586914062499998
0.022558593749999998
0.0201416015625
0.0217529296875
0.0217529296875
0.223974609375
0.8588378906249999
3.021240234375
3.0244628906249997
3.0252685546875
3.0301025390625
3.0244628906249997
3.021240234375
3.0236572265625
3.0228515624999996
3.0244628906249997
3.0204345703124997
2.9688720703125
2.8383544921875
2.731201171875
2.5491210937499997
3.0236572265625
3.0268798828124996
3.0236572265625
3.0204345703124997
3.0244628906249997
2.9608154296875
2.462109375
0.5406005859374999
0.022558593749999998
0.019335937499999997
0.020947265625
0.0217529296875
0.01611328125
0.0201416015625
0.0201416015625
0.020947265625
0.022558593749999998
0.1071533203125
0.22719726562499998
0.4004150390625
0.53818359375
0.10634765624999999
0.023364257812499997
0.024169921875
0.027392578124999997
0.0249755859375
0.023364257812499997
0.5792724609375
3.0220458984375
3.0252685546875
3.02607421875
3.02607421875
3.0228515624999996
3.01962890625
3.0228515624999996
3.0252685546875
3.0236572265625
3.0268798828124996
2.9511474609375
2.8423828125
2.6917236328125
2.4468017578125
2.3146728515625
3.0228515624999996
3.0244628906249997
3.0228515624999996
3.0204345703124997
3.0228515624999996
2.4532470703125
0.8967041015624999
0.020947265625
0.0217529296875
0.0217529296875
0.020947265625
0.020947265625
0.0217529296875
0.020947265625
0.02900390625
0.022558593749999998
0.11359863281249999
0.2054443359375
0.3673828125
0.5969970703124999
0.6872314453124999
0.018530273437499998
0.022558593749999998
0.023364257812499997
0.02578125
0.0169189453125
0.44150390624999997
2.462109375
3.0244628906249997
3.0228515624999996
3.0204345703124997
3.02607421875
3.0228515624999996
3.0244628906249997
3.0268798828124996
3.0252685546875
3.0236572265625
2.9455078125
2.8472167968749997
2.6772216796875
2.5201171875
2.3436767578124997
3.0252685546875
3.0228515624999996
3.029296875
3.0252685546875
3.0284912109374997
2.7021972656249997
1.812744140625
0.024169921875
0.024169921875
0.0217529296875
0.02578125
0.0201416015625
0.0201416015625
0.022558593749999998
0.018530273437499998
0.018530273437499998
0.10554199218749999
0.25458984375
0.4471435546875
0.5808837890624999
0.6904541015625
0.0217529296875
0.022558593749999998
0.01611328125
0.0217529296875
0.023364257812499997
0.36416015625
1.203662109375
3.0244628906249997
3.0220458984375
3.0236572265625
3.0220458984375
3.027685546875
3.0236572265625
3.0228515624999996
3.0236572265625
3.0220458984375
2.9664550781249996
2.8947509765625
2.744091796875
2.6466064453125
2.4081298828124997
3.0228515624999996
3.0188232421874996
3.0228515624999996
3.0268798828124996
3.0204345703124997
2.856884765625
1.9682373046875
0.15146484375
0.02578125
0.0201416015625
0.020947265625
0.023364257812499997
0.026586914062499998
0.020947265625
0.0217529296875
0.022558593749999998
0.023364257812499997
0.1732177734375
0.30454101562499997
0.4640625
0.65419921875
0.024169921875
0.0217529296875
0.0217529296875
0.020947265625
0.0201416015625
0.069287109375
1.2141357421874999
3.0236572265625
3.0284912109374997
3.02607421875
3.021240234375
3.0188232421874996
3.0252685546875
3.0244628906249997
3.0236572265625
3.0236572265625
2.9302001953124996
2.89072265625
2.7771240234374996
2.6079345703124996
2.431494140625
2.2405517578125
3.0204345703124997
3.0228515624999996
3.0252685546875
3.0228515624999996
2.874609375
2.2631103515624997
0.6405029296875
0.023364257812499997
0.0217529296875
0.022558593749999998
0.022558593749999998
0.023364257812499997
0.020947265625
0.023364257812499997
0.0217529296875
0.020947265625
0.1329345703125
0.2795654296875
0.475341796875
0.7307373046875
0.726708984375
0.0169189453125
0.020947265625
0.019335937499999997
0.020947265625
0.0217529296875
0.6332519531249999
3.0228515624999996
3.0220458984375
3.0252685546875
3.0252685546875
3.0301025390625
3.0252685546875
3.0244628906249997
3.0236572265625
3.029296875
3.029296875
2.9326171875
