1.6991455078125
1.7200927734375
1.7168701171874998
1.7055908203124999
1.6846435546874998
1.654833984375
1.65
1.622607421875
1.6218017578125
1.5911865234375
1.8095214843749998
1.909423828125
1.9190917968749999
1.9118408203125
1.893310546875
1.8739746093749998
1.6927001953124998
1.509814453125
1.3857421875
1.3470703124999999
1.329345703125
1.3390136718749999
1.329345703125
1.3502929687499998
1.353515625
1.361572265625
1.3849365234375
1.4034667968749999
1.4171630859375
1.4316650390624999
1.4888671875
1.2890625
1.21171875
1.1947998046875
1.1786865234375
1.200439453125
1.20849609375
1.3059814453124998
1.4630859374999998
1.5686279296874999
1.6322753906249998
1.6773925781249999
1.69189453125
1.7128417968749998
1.71123046875
1.6951171875
1.6894775390624999
1.6701416015625
1.6491943359374999
1.641943359375
1.6177734375
1.5807128906249999
1.7861572265624999
1.8957275390625
1.9102294921874998
1.9223144531249998
1.8949218749999999
1.8739746093749998
1.703173828125
1.5170654296875
1.4034667968749999
1.3591552734374999
1.3349853515624999
1.3309570312499999
1.3365966796875
1.3502929687499998
1.3591552734374999
1.3688232421875
1.3921875
1.40185546875
1.42119140625
1.43408203125
1.4872558593749998
1.368017578125
1.2334716796875
1.1923828125
1.1778808593749999
1.187548828125
1.2141357421874999
1.300341796875
1.4107177734374998
1.5597656249999998
1.6209960937499999
1.670947265625
1.6927001953124998
1.71123046875
1.7168701171874998
1.7104248046875
1.7072021484375
1.6854492187499999
1.6604736328124998
1.6483886718749998
1.6169677734374999
1.5645996093749999
1.7047851562499998
1.8884765625
1.9118408203125
1.909423828125
1.8892822265625
1.8739746093749998
1.786962890625
1.5194824218749998
1.4203857421875
1.3664062499999998
1.3422363281249998
1.340625
1.3398193359375
1.3446533203125
1.3551269531249999
1.3494873046875
1.3865478515624998
1.3986328124999998
1.4187744140624998
1.4364990234375
1.442138671875
1.380908203125
1.2350830078125
1.1939941406249999
1.1883544921875
1.1835205078125
1.2044677734375
1.2858398437499998
1.400244140625
1.5138427734375
1.6040771484374998
1.6612792968749999
1.6862548828125
1.714453125
1.716064453125
1.7023681640625
1.6943115234375
1.6604736328124998
1.6540283203125
1.6451660156249999
1.625830078125
1.5839355468749998
1.67578125
1.8667236328124999
1.9005615234375
1.90458984375
1.9062011718749998
1.8844482421875
1.85302734375
1.6363037109374998
1.4687255859375
1.3736572265625
1.345458984375
1.332568359375
1.3365966796875
1.3398193359375
1.3470703124999999
1.3575439453125
1.3639892578125
1.38896484375
1.4058837890625
1.41796875
1.4389160156249998
1.47275390625
1.2479736328125
1.1964111328125
1.1770751953125
1.1819091796874999
1.19560546875
1.239111328125
1.3470703124999999
1.5114257812499998
1.6040771484374998
1.6427490234375
1.6814208984374999
1.7015624999999999
1.7080078125
1.7096191406249999
1.6959228515625
1.67900390625
1.667724609375
1.6411376953124999
1.63388671875
1.6177734375
1.6524169921874998
1.835302734375
1.896533203125
1.9037841796875
1.9102294921874998
1.8860595703124998
1.8820312499999998
1.6209960937499999
1.4671142578124998
1.3817138671875
1.33740234375
1.329345703125
1.3430419921874999
1.3422363281249998
1.3446533203125
1.353515625
1.377685546875
1.4026611328124998
1.413134765625
1.4236083984374999
1.4276367187499999
1.4759765624999999
1.2890625
1.2818115234374998
1.1867431640625
1.173046875
1.1964111328125
1.2334716796875
1.3430419921874999
1.4574462890625
1.58232421875
1.65
1.6830322265625
1.7055908203124999
1.6967285156249998
1.7055908203124999
1.7072021484375
1.67900390625
1.667724609375
1.654833984375
1.6266357421875
1.6218017578125
1.5718505859374998
1.7853515624999998
1.8941162109374998
1.9150634765624999
1.9062011718749998
1.8957275390625
1.8651123046875
1.7257324218749999
1.4953124999999998
1.400244140625
1.3510986328124999
1.3422363281249998
1.3382080078124998
1.3180664062499998
1.3494873046875
1.361572265625
1.3559326171875
1.38896484375
1.40185546875
1.4139404296875
1.4300537109375
1.4791992187499998
1.3083984375
1.219775390625
1.200439453125
1.173046875
1.1915771484375
1.2109130859375
1.329345703125
1.45341796875
1.5525146484374999
1.6218017578125
1.6822265625
1.6894775390624999
1.71123046875
1.7047851562499998
1.7007568359374998
1.6822265625
1.6636962890625
1.6556396484375
1.6403320312499998
1.63388671875
1.5758789062499998
1.7611816406249998
1.880419921875
1.9005615234375
1.9182861328124998
1.9053955078125
1.8707519531249999
1.7571533203124998
1.5557373046874998
1.4268310546874998
1.3591552734374999
1.3333740234375
1.3341796874999998
1.3333740234375
1.3430419921874999
1.3446533203125
1.3736572265625
1.3792968749999999
1.3905761718749998
1.4066894531249998
1.4219970703125
1.4671142578124998
1.3897705078125
1.2221923828124999
1.1923828125
1.1794921875
1.1819091796874999
1.216552734375
1.2858398437499998
1.4010498046875
1.5476806640624998
1.6201904296874998
1.662890625
1.683837890625
1.71123046875
1.71123046875
1.6967285156249998
1.6975341796874999
1.6733642578124999
1.65
1.6363037109374998
1.63388671875
1.5911865234375
1.74345703125
1.8602783203125
1.8949218749999999
1.9118408203125
1.8957275390625
1.87236328125
1.8224121093749999
1.5541259765625
1.426025390625
1.3704345703124998
1.3365966796875
1.351904296875
1.335791015625
1.3398193359375
1.3583496093749998
1.3688232421875
1.3744628906249998
1.3954101562499999
1.413134765625
1.4147460937499998
1.4510009765624998
1.42119140625
1.24716796875
1.1996337890625
1.1851318359375
1.1851318359375
1.2052734375
1.2624755859374999
1.3897705078125
1.493701171875
1.6000488281249998
1.651611328125
1.6943115234375
1.7080078125
1.7104248046875
1.706396484375
1.6886718749999998
1.6725585937499998
1.6572509765624999
1.6508056640625
1.6282470703124998
1.6089111328124999
1.6379150390625
1.835302734375
1.9029785156249999
1.9110351562499999
1.9062011718749998
1.880419921875
1.8457763671874998
1.6604736328124998
1.4477783203124999
1.380908203125
1.3494873046875
1.3341796874999998
1.3349853515624999
1.3414306640625
1.345458984375
1.353515625
1.3607666015625
1.3857421875
1.4010498046875
1.4228027343749998
1.44052734375
1.4840332031249999
1.271337890625
1.200439453125
1.1867431640625
1.18916015625
1.1947998046875
1.232666015625
1.345458984375
1.4953124999999998
1.5847412109374999
1.6427490234375
1.683837890625
1.6943115234375
1.7120361328125
1.71123046875
1.6927001953124998
1.6749755859375
1.6645019531249998
1.6508056640625
1.6363037109374998
1.6081054687499998
1.6201904296874998
1.8199951171875
1.88525390625
1.899755859375
1.909423828125
1.8949218749999999
1.8699462890624998
1.6822265625
1.4961181640624999
1.3929931640625
1.3382080078124998
1.327734375
1.332568359375
1.340625
1.348681640625
1.3527099609375
1.361572265625
1.3962158203125
1.4058837890625
1.429248046875
1.43408203125
1.490478515625
1.3261230468749998
1.2028564453125
1.1947998046875
1.1770751953125
1.1899658203124999
1.2181640624999999
1.313232421875
1.4356933593749999
1.5863525390625
1.6427490234375
1.67578125
1.6209960937499999
1.7120361328125
1.7055908203124999
1.69833984375
1.6943115234375
1.6693359374999999
1.64677734375
1.62744140625
1.6121337890624998
1.5557373046874998
1.7370117187499998
1.8949218749999999
1.8989501953124999
1.9029785156249999
1.8844482421875
1.8828369140624999
1.7555419921875
1.49853515625
1.4034667968749999
1.3607666015625
1.3309570312499999
1.3502929687499998
1.340625
1.3365966796875
1.353515625
1.3664062499999998
1.3849365234375
1.4042724609375
1.4147460937499998
1.4332763671875
1.4630859374999998
1.3341796874999998
1.224609375
1.1980224609374999
1.18271484375
1.1915771484375
1.2125244140625
1.3148437499999999
1.4356933593749999
1.5476806640624998
1.609716796875
1.6725585937499998
1.683837890625
1.7080078125
1.6975341796874999
1.7023681640625
1.687060546875
1.674169921875
1.651611328125
1.6363037109374998
1.622607421875
1.554931640625
1.7313720703125
1.8659179687499998
1.9110351562499999
1.9062011718749998
1.9070068359374999
1.867529296875
1.7934082031249998
1.585546875
1.4469726562499998
1.368017578125
1.340625
1.3430419921874999
1.3390136718749999
1.3414306640625
1.3446533203125
1.3583496093749998
1.3849365234375
1.40185546875
1.4123291015625
1.426025390625
1.4477783203124999
1.4091064453125
1.2262207031249999
1.1964111328125
1.1883544921875
1.190771484375
1.2141357421874999
1.2802001953125
1.3768798828125
1.5404296874999999
1.6129394531249999
1.6532226562499999
1.6830322265625
1.7047851562499998
1.7080078125
1.706396484375
1.6927001953124998
1.6733642578124999
1.658056640625
1.6411376953124999
1.6234130859375
1.6072998046875
1.7072021484375
1.861083984375
1.893310546875
1.9053955078125
1.8989501953124999
1.8747802734374999
1.8546386718749999
1.5863525390625
1.4437499999999999
1.3801025390625
1.33740234375
1.327734375
1.335791015625
1.345458984375
1.3607666015625
1.3599609375
1.3712402343749999
1.405078125
1.41796875
1.4187744140624998
1.4469726562499998
1.448583984375
1.26005859375
1.20849609375
1.1899658203124999
1.1859374999999999
1.1980224609374999
1.2463623046874999
1.3664062499999998
1.4977294921875
1.6056884765625
1.6620849609375
1.6846435546874998
1.6991455078125
1.7055908203124999
1.7015624999999999
1.6975341796874999
1.6765869140624998
1.6443603515624998
1.6435546875
1.6201904296874998
1.61455078125
1.609716796875
1.819189453125
1.89169921875
1.909423828125
1.9005615234375
1.8739746093749998
1.869140625
1.670947265625
1.4606689453125
1.3801025390625
1.3575439453125
1.3390136718749999
1.3390136718749999
1.340625
1.3422363281249998
1.3599609375
1.36962890625
1.3873535156249999
1.4115234374999999
1.4276367187499999
1.4389160156249998
1.4945068359375
1.2745605468749999
1.203662109375
1.1915771484375
1.1794921875
1.2044677734375
1.224609375
1.3607666015625
1.4735595703125
1.574267578125
1.635498046875
1.6765869140624998
1.6910888671875
1.719287109375
1.7072021484375
1.6967285156249998
1.6781982421875
1.654833984375
1.6435546875
1.6314697265625
1.6153564453125
1.5927978515624999
1.8022705078124999
1.8892822265625
1.8941162109374998
1.9134521484375
1.8925048828125
1.85947265625
1.7257324218749999
1.5194824218749998
1.3881591796875
1.3559326171875
1.3349853515624999
1.3462646484374998
1.345458984375
1.3398193359375
1.353515625
1.3607666015625
1.3768798828125
1.397021484375
1.4155517578124999
1.432470703125
1.490478515625
1.3390136718749999
1.1931884765625
1.1939941406249999
1.1794921875
1.198828125
1.20849609375
1.316455078125
1.4252197265625
1.5750732421875
1.6266357421875
1.6669189453125
1.6959228515625
1.7120361328125
1.7120361328125
1.6943115234375
1.6862548828125
1.6693359374999999
1.6556396484375
1.6266357421875
1.6209960937499999
1.5557373046874998
1.7797119140625
1.8876708984375
1.8949218749999999
1.9005615234375
1.88525390625
1.8699462890624998
1.77890625
1.5186767578125
1.4147460937499998
1.35673828125
1.3341796874999998
1.3382080078124998
1.3430419921874999
1.3599609375
1.3543212890624998
1.361572265625
1.3905761718749998
1.4058837890625
1.4074951171874999
1.42119140625
1.4872558593749998
1.3607666015625
1.2286376953125
1.1964111328125
1.1738525390624999
1.181103515625
1.21494140625
1.2979248046874998
1.4268310546874998
1.5404296874999999
1.63388671875
1.6645019531249998
1.6959228515625
1.7096191406249999
1.7136474609374999
1.7007568359374998
1.6951171875
1.6693359374999999
1.651611328125
1.64677734375
1.6105224609375
1.554931640625
1.69833984375
1.8763916015625
1.8941162109374998
1.9118408203125
1.896533203125
1.8635009765625
1.8087158203125
1.5968261718749999
1.4219970703125
1.3631835937499999
1.3422363281249998
1.3349853515624999
1.3398193359375
1.3341796874999998
1.3422363281249998
1.3543212890624998
1.3849365234375
1.397021484375
1.416357421875
1.44052734375
1.4348876953124998
1.44052734375
1.2310546875
1.1980224609374999
1.184326171875
1.1947998046875
1.2060791015624999
1.2608642578125
1.4115234374999999
1.525927734375
1.6008544921874999
1.651611328125
1.67900390625
1.703173828125
1.7072021484375
1.706396484375
1.69189453125
1.674169921875
1.65
1.6314697265625
1.6306640625
1.6177734375
1.6854492187499999
1.8546386718749999
1.89169921875
1.915869140625
1.9029785156249999
1.8820312499999998
1.8256347656249998
1.62744140625
1.4671142578124998
1.3994384765624999
1.345458984375
1.3365966796875
1.3285400390625
1.34384765625
1.34384765625
1.345458984375
1.37607421875
1.3905761718749998
1.4058837890625
1.4219970703125
1.4316650390624999
1.4542236328125
1.2753662109375
1.198828125
1.1923828125
1.1754638671875
1.2101074218749999
1.2495849609374998
1.3527099609375
1.4840332031249999
1.606494140625
1.6483886718749998
1.674169921875
1.6959228515625
1.706396484375
1.703173828125
1.7007568359374998
1.69189453125
1.6645019531249998
1.6540283203125
1.625830078125
1.609716796875
1.5984375
1.844970703125
1.8925048828125
1.9053955078125
1.9037841796875
1.8828369140624999
1.8731689453125
1.674169921875
1.456640625
1.38896484375
1.34384765625
1.3333740234375
1.3382080078124998
1.351904296875
1.3591552734374999
1.3672119140624999
1.3849365234375
1.3994384765624999
1.4042724609375
1.4155517578124999
1.4348876953124998
1.4703369140625
1.2938964843749998
1.2076904296875
1.1915771484375
1.1786865234375
1.1947998046875
1.22138671875
1.3430419921874999
1.46953125
1.5678222656249998
1.6524169921874998
1.6854492187499999
1.687060546875
1.7120361328125
1.71123046875
1.6951171875
1.6878662109375
1.662890625
1.6379150390625
1.6322753906249998
1.6121337890624998
1.5807128906249999
1.7829345703125
1.8981445312499998
1.9053955078125
1.9118408203125
1.880419921875
1.85947265625
1.735400390625
1.5404296874999999
1.40185546875
1.3494873046875
1.340625
1.3365966796875
1.3341796874999998
1.3502929687499998
1.3390136718749999
1.3712402343749999
1.3897705078125
1.4026611328124998
1.4155517578124999
1.4268310546874998
1.4832275390624998
1.3019531249999998
1.2181640624999999
1.1915771484375
1.1641845703125
1.1883544921875
1.1947998046875
1.2947021484374999
1.4493896484375
1.5565429687499999
1.6290527343749999
1.6878662109375
1.69833984375
1.7128417968749998
1.719287109375
1.7136474609374999
1.6951171875
1.6822265625
1.658056640625
1.6435546875
1.622607421875
1.561376953125
1.7587646484375
1.8763916015625
1.909423828125
1.9142578124999998
1.9078125
1.8860595703124998
1.7603759765625
1.5517089843749998
1.4268310546874998
1.36962890625
1.3382080078124998
1.3317626953125
1.340625
1.3462646484374998
1.3462646484374998
1.3639892578125
1.3881591796875
1.416357421875
1.4276367187499999
1.442138671875
1.48564453125
1.37607421875
1.2479736328125
1.197216796875
1.1778808593749999
1.1770751953125
1.2125244140625
1.2673095703125
1.3865478515624998
1.5283447265624999
1.609716796875
1.6395263671875
1.667724609375
1.69833984375
1.7136474609374999
1.7152587890625
1.706396484375
1.674169921875
1.6524169921874998
1.6371093749999999
1.6371093749999999
1.590380859375
1.6935058593749999
1.8828369140624999
1.9078125
1.915869140625
1.8925048828125
1.8844482421875
1.8417480468749998
1.5645996093749999
1.4187744140624998
1.3430419921874999
1.2955078125
1.303564453125
1.3172607421875
1.3470703124999999
1.351904296875
1.361572265625
1.377685546875
1.40185546875
1.4268310546874998
1.44052734375
1.4461669921875
1.3849365234375
1.24072265625
1.1899658203124999
1.1835205078125
1.1964111328125
1.2044677734375
1.27294921875
1.4115234374999999
1.533984375
1.611328125
1.670947265625
1.699951171875
1.7128417968749998
1.703173828125
1.7120361328125
1.716064453125
1.6749755859375
1.6330810546874999
1.6314697265625
1.6169677734374999
1.5637939453124998
1.62744140625
1.791796875
1.88525390625
1.89169921875
1.8860595703124998
1.8763916015625
1.8489990234375
1.6669189453125
1.490478515625
1.3857421875
1.3470703124999999
1.335791015625
1.34384765625
1.3446533203125
1.3543212890624998
1.3462646484374998
1.3768798828125
1.3954101562499999
1.409912109375
1.432470703125
1.442138671875
1.4800048828124999
1.2592529296875
1.219775390625
1.1947998046875
1.174658203125
1.187548828125
1.2101074218749999
1.3229003906249999
1.5017578125
1.590380859375
1.635498046875
1.6725585937499998
1.7047851562499998
1.7176757812499999
1.7047851562499998
1.703173828125
1.71123046875
1.7047851562499998
1.6645019531249998
1.654833984375
1.6306640625
1.6371093749999999
1.8038818359375
1.8336914062499998
1.8111328125
1.843359375
1.8602783203125
1.8659179687499998
1.6572509765624999
1.4864501953125
1.4066894531249998
1.368017578125
1.3390136718749999
1.3502929687499998
1.3575439453125
1.351904296875
1.3672119140624999
1.3801025390625
1.413134765625
1.4115234374999999
1.4107177734374998
1.445361328125
1.506591796875
1.3212890625
1.19560546875
1.1609619140625
1.152099609375
1.1625732421875
1.2205810546875
1.332568359375
1.4574462890625
1.574267578125
1.6443603515624998
1.6886718749999998
1.7072021484375
1.7136474609374999
1.7088134765624998
1.714453125
1.7055908203124999
1.6443603515624998
1.6089111328124999
1.6024658203125
1.6209960937499999
1.5597656249999998
1.751513671875
1.8780029296874998
1.90458984375
1.9102294921874998
1.8908935546874999
1.8586669921874999
1.740234375
1.49853515625
1.3833251953124999
1.3510986328124999
1.3543212890624998
1.345458984375
3.0244628906249997
3.011572265625
1.4477783203124999
1.3744628906249998
1.34384765625
1.32451171875
1.3212890625
1.3309570312499999
1.3913818359374999
1.2318603515625
1.1279296875
1.1021484375
1.07958984375
1.0900634765625
1.11181640625
1.2141357421874999
1.3285400390625
1.4373046875
1.5347900390625
1.6161621093749998
1.6346923828125
1.6451660156249999
1.635498046875
1.65
1.662890625
1.6395263671875
1.622607421875
1.6056884765625
1.5839355468749998
1.4880615234374999
1.683837890625
1.8022705078124999
1.84013671875
1.8626953124999999
1.848193359375
1.832080078125
1.8264404296874999
1.5976318359375
1.416357421875
1.3333740234375
1.3229003906249999
1.316455078125
1.3220947265624998
1.3365966796875
1.348681640625
1.3349853515624999
1.351904296875
1.3688232421875
1.4026611328124998
1.4550292968749998
1.4848388671875
1.4187744140624998
1.1996337890625
1.1666015625
1.134375
1.1367919921875
1.1464599609375
1.2399169921875
1.393798828125
1.558154296875
1.6137451171875
1.658056640625
1.683837890625
1.7055908203124999
1.716064453125
1.7055908203124999
1.6910888671875
1.6773925781249999
1.658056640625
1.62744140625
1.6209960937499999
1.6024658203125
1.55009765625
1.8715576171875
1.8973388671875
1.9029785156249999
1.9053955078125
1.8876708984375
1.8908935546874999
1.5662109375
1.448583984375
1.3752685546874999
1.3470703124999999
1.3220947265624998
1.3124267578125
1.3156494140625
1.3365966796875
1.3422363281249998
1.3752685546874999
1.4139404296875
1.432470703125
1.4203857421875
1.44052734375
1.44052734375
1.21494140625
1.2012451171875
1.2020507812499999
1.1964111328125
1.2020507812499999
1.2334716796875
1.3833251953124999
1.4961181640624999
1.590380859375
1.6612792968749999
1.6959228515625
1.7080078125
1.7184814453125
1.703173828125
1.6781982421875
1.654833984375
1.6733642578124999
1.67578125
1.6830322265625
1.65
1.5839355468749998
1.8087158203125
1.8506103515624999
1.8361083984375
1.8457763671874998
1.8763916015625
1.8699462890624998
1.635498046875
1.456640625
1.3913818359374999
1.3656005859375
1.353515625
1.3607666015625
1.3551269531249999
1.3543212890624998
1.380908203125
1.3929931640625
1.4074951171874999
1.4139404296875
1.4244140625
1.4413330078125
1.5114257812499998
1.2423339843749999
1.1706298828125
1.168212890625
1.168212890625
1.219775390625
1.2262207031249999
1.3390136718749999
1.4880615234374999
1.5944091796875
1.6322753906249998
1.670947265625
1.6878662109375
1.7136474609374999
1.69833984375
1.6701416015625
1.65
1.66611328125
1.658056640625
1.635498046875
1.6250244140624999
1.5839355468749998
1.861083984375
1.9190917968749999
1.9110351562499999
1.8755859375
1.864306640625
1.851416015625
1.72734375
1.5073974609374998
1.400244140625
1.345458984375
1.345458984375
1.3478759765625
1.35673828125
1.3736572265625
1.3752685546874999
1.4115234374999999
1.400244140625
1.3744628906249998
1.3752685546874999
1.3857421875
1.4961181640624999
1.297119140625
1.21494140625
1.2262207031249999
1.1835205078125
1.1851318359375
1.197216796875
1.316455078125
1.4550292968749998
1.6072998046875
1.66611328125
1.683837890625
1.69833984375
1.71123046875
1.6717529296875
1.667724609375
1.6798095703125
1.65
1.6242187499999998
1.6185791015625
1.6201904296874998
1.49853515625
1.71123046875
1.90458984375
1.9142578124999998
1.912646484375
1.9078125
1.8908935546874999
1.8240234375
1.4993408203124998
1.4026611328124998
1.3599609375
1.3382080078124998
1.340625
1.340625
1.3414306640625
1.340625
1.3631835937499999
1.4058837890625
1.4123291015625
1.4236083984374999
1.4783935546875
1.5412353515625
1.3801025390625
1.1794921875
1.1537109374999999
1.1295410156249999
1.1093994140624999
1.1835205078125
1.2439453125
1.4091064453125
1.5533203125
1.638720703125
1.6806152343749998
1.7088134765624998
1.7217041015624999
1.7168701171874998
1.6927001953124998
1.6894775390624999
1.6798095703125
1.6508056640625
1.65
1.6218017578125
1.4848388671875
1.6862548828125
1.8788085937499999
1.9037841796875
1.90458984375
1.8908935546874999
1.8884765625
1.877197265625
1.5791015625
1.4461669921875
1.3502929687499998
1.319677734375
1.3140380859374998
1.340625
1.38896484375
1.4010498046875
1.364794921875
1.364794921875
1.3986328124999998
1.413134765625
1.41796875
1.4115234374999999
1.4953124999999998
1.2060791015624999
1.1674072265625
1.1577392578124999
1.174658203125
1.2060791015624999
1.235888671875
1.3494873046875
1.53076171875
1.606494140625
1.651611328125
1.6717529296875
1.7072021484375
1.7176757812499999
1.7096191406249999
1.674169921875
1.6701416015625
1.6612792968749999
1.6290527343749999
1.625830078125
1.61455078125
1.5243164062499999
1.8812255859375
1.89169921875
1.8973388671875
1.9029785156249999
1.8796142578125
1.9408447265625
1.6081054687499998
1.4308593749999998
1.3728515625
1.3510986328124999
1.3792968749999999
1.3688232421875
1.3752685546874999
1.3092041015625
1.32451171875
1.2955078125
1.368017578125
1.4276367187499999
1.4477783203124999
1.4300537109375
1.5492919921875
1.2689208984375
1.174658203125
1.147265625
1.1690185546875
1.2060791015624999
1.2310546875
1.364794921875
1.4912841796874998
1.606494140625
1.6564453124999998
1.6927001953124998
1.7080078125
1.7217041015624999
1.7096191406249999
1.7023681640625
1.67578125
1.6508056640625
1.65966796875
1.6209960937499999
1.609716796875
1.5017578125
1.8296630859374998
1.8949218749999999
1.9005615234375
1.9102294921874998
1.9223144531249998
1.9754882812499999
1.6878662109375
1.477587890625
1.3559326171875
1.3430419921874999
1.3422363281249998
1.3494873046875
1.3309570312499999
1.3083984375
1.2987304687499999
1.377685546875
1.429248046875
1.45341796875
1.4244140625
1.4445556640625
1.590380859375
1.2463623046874999
1.1931884765625
1.20849609375
1.1674072265625
1.1883544921875
1.1835205078125
1.284228515625
1.4800048828124999
1.58232421875
1.63388671875
1.65966796875
1.6604736328124998
1.716064453125
1.7128417968749998
1.6894775390624999
1.6935058593749999
1.66611328125
1.635498046875
1.6371093749999999
1.64677734375
1.4751708984374998
1.8119384765625
1.9070068359374999
1.8989501953124999
1.9271484374999999
1.9182861328124998
1.8780029296874998
1.7660156249999999
1.5170654296875
1.4074951171874999
1.364794921875
1.353515625
1.332568359375
1.340625
1.368017578125
1.3478759765625
1.3502929687499998
1.3752685546874999
1.4034667968749999
1.416357421875
1.4501953125
1.5992431640625
1.3873535156249999
1.2109130859375
1.19560546875
1.174658203125
1.184326171875
1.1706298828125
1.2689208984375
1.4171630859375
1.5670166015625
1.6395263671875
1.687060546875
1.6830322265625
1.7208984374999998
1.71123046875
1.7023681640625
1.6959228515625
1.6645019531249998
1.65966796875
1.6403320312499998
1.5895751953125
1.45341796875
1.7015624999999999
1.920703125
1.8981445312499998
1.9231201171874999
1.9182861328124998
1.8828369140624999
1.8715576171875
1.5678222656249998
1.40185546875
1.3591552734374999
1.3309570312499999
1.3390136718749999
1.3333740234375
1.3470703124999999
1.3502929687499998
1.3688232421875
1.3833251953124999
1.38896484375
1.4074951171874999
1.4316650390624999
1.4493896484375
1.3921875
1.2173583984375
1.2093017578125
1.2221923828124999
1.198828125
1.1867431640625
1.1923828125
1.3599609375
1.5017578125
1.622607421875
1.6798095703125
1.6959228515625
1.6927001953124998
1.7128417968749998
1.7136474609374999
1.7080078125
1.6943115234375
1.6604736328124998
1.6371093749999999
1.6491943359374999
1.46953125
1.638720703125
1.8651123046875
1.8618896484374998
1.8949218749999999
1.90458984375
1.8763916015625
1.89169921875
1.6129394531249999
1.448583984375
1.3551269531249999
1.3309570312499999
1.316455078125
1.340625
1.3631835937499999
1.3664062499999998
1.3656005859375
1.3978271484375
1.4026611328124998
1.4236083984374999
1.448583984375
1.4671142578124998
1.561376953125
1.271337890625
1.2028564453125
1.206884765625
1.2060791015624999
1.216552734375
1.2109130859375
1.3341796874999998
1.4961181640624999
1.5992431640625
1.6491943359374999
1.6822265625
1.719287109375
1.7096191406249999
1.7088134765624998
1.703173828125
1.6749755859375
1.6532226562499999
1.6346923828125
1.6177734375
1.6024658203125
1.4840332031249999
1.835302734375
1.8715576171875
1.8941162109374998
1.8683349609375
1.8683349609375
1.912646484375
1.735400390625
1.4518066406249999
1.3913818359374999
1.3929931640625
1.3720458984375
1.3744628906249998
1.3575439453125
1.3212890625
1.3382080078124998
1.3784912109374998
1.4268310546874998
1.4091064453125
1.4236083984374999
1.4236083984374999
1.5799072265624998
1.3067871093749999
1.2463623046874999
1.24072265625
1.1996337890625
1.235888671875
1.1964111328125
1.3510986328124999
1.5017578125
1.59521484375
1.654833984375
1.67900390625
1.6733642578124999
1.6935058593749999
1.6733642578124999
1.6636962890625
1.6806152343749998
1.65
1.619384765625
1.5960205078124998
1.6185791015625
1.4767822265625
1.7797119140625
1.867529296875
1.843359375
1.8417480468749998
1.848193359375
1.9021728515624998
1.738623046875
1.50498046875
1.3849365234375
1.3591552734374999
1.3502929687499998
1.3575439453125
1.3583496093749998
1.3849365234375
1.368017578125
1.4171630859375
1.4381103515625
1.44052734375
1.4252197265625
1.4332763671875
2.5587890625
2.43310546875
1.2979248046874998
0.9152343749999999
0.6405029296875
0.6550048828124999
0.5824951171875
0.32548828124999996
0.752490234375
1.4115234374999999
2.0552490234375
2.318701171875
2.2171875
2.1470947265625
1.9972412109375
1.7289550781249998
1.6910888671875
1.6363037109374998
1.5637939453124998
1.6242187499999998
1.6056884765625
0.10957031249999999
0.11359863281249999
1.074755859375
1.8618896484374998
2.6836669921875
3.0188232421874996
3.02607421875
3.0228515624999996
2.2590820312499997
1.21494140625
0.44150390624999997
0.019335937499999997
0.0636474609375
0.4165283203125
0.8958984375
1.3317626953125
1.6636962890625
1.867529296875
1.9400390625
1.867529296875
1.754736328125
2.8254638671874996
3.0244628906249997
2.5483154296875
1.7619873046874999
1.152099609375
0.491455078125
0.0217529296875
0.022558593749999998
0.023364257812499997
0.3359619140625
1.15693359375
1.7668212890625
2.2099365234375
2.6490234375
2.7932373046874996
2.7561767578125
2.792431640625
2.4766113281249997
2.17529296875
1.920703125
1.525927734375
0.024169921875
0.020947265625
0.0217529296875
0.6791748046874999
1.31162109375
1.96904296875
3.0252685546875
3.0188232421874996
3.0268798828124996
2.7328124999999996
2.101171875
1.4526123046875
0.7452392578125
0.19658203124999998
0.02900390625
0.0217529296875
0.020947265625
0.249755859375
0.52529296875
0.966796875
1.2221923828124999
1.493701171875
3.0244628906249997
3.021240234375
2.8399658203125
2.6103515625
1.8038818359375
0.9708251953125
0.022558593749999998
0.0217529296875
0.022558593749999998
0.11923828125
0.5148193359375
1.1698242187499999
1.6564453124999998
2.10439453125
2.6039062499999996
2.96162109375
3.0220458984375
3.02607421875
2.92294921875
2.63291015625
2.2888916015625
0.0201416015625
0.020947265625
0.0217529296875
0.488232421875
1.0223876953125
1.7877685546875
3.0244628906249997
3.027685546875
3.029296875
2.7787353515624997
2.0810302734375
1.4864501953125
1.02802734375
0.507568359375
0.18369140625
0.120849609375
0.062841796875
0.149853515625
0.36174316406249996
0.59619140625
0.9692138671874999
3.0228515624999996
3.0252685546875
3.0236572265625
2.9221435546874996
2.4854736328125
1.9013671875
0.07412109374999999
0.017724609375
0.020947265625
0.0217529296875
0.23203125
0.6727294921875
1.0385009765625
1.7410400390624998
2.1841552734375
2.5338134765625
2.9962646484374997
3.0228515624999996
3.02607421875
2.9737060546875
2.6377441406249997
0.18852539062499998
0.0217529296875
0.020947265625
0.06767578125
0.588134765625
1.27939453125
3.0244628906249997
3.01962890625
3.021240234375
3.0244628906249997
2.6337158203124997
2.125341796875
1.5525146484374999
1.1698242187499999
0.8201660156249999
0.4680908203125
0.2215576171875
0.14824218749999998
0.19658203124999998
0.362548828125
0.554296875
2.20751953125
3.0236572265625
3.0301025390625
3.02607421875
2.769873046875
2.0890869140625
1.003857421875
0.019335937499999997
0.027392578124999997
0.01611328125
0.026586914062499998
0.40202636718749996
0.6832031249999999
1.224609375
1.6725585937499998
2.29453125
2.6353271484375
2.9140869140624996
3.021240234375
3.0244628906249997
2.979345703125
0.79921875
0.0217529296875
0.022558593749999998
0.020947265625
0.39719238281249997
0.9434326171874999
1.7265380859375
3.0220458984375
3.0244628906249997
3.0252685546875
2.9036132812499997
2.3742919921875
2.022216796875
1.5968261718749999
0.9087890624999999
0.6832031249999999
0.472119140625
0.32548828124999996
0.2022216796875
0.26103515625
0.3802734375
1.6927001953124998
3.0236572265625
3.021240234375
3.0228515624999996
2.7988769531249997
2.399267578125
1.3752685546874999
0.0201416015625
0.0217529296875
0.0249755859375
0.0217529296875
0.24331054687499998
0.5599365234375
1.1021484375
1.52109375
1.8425537109374999
2.33642578125
2.808544921875
3.0188232421874996
3.0244628906249997
2.956787109375
1.7652099609374998
0.0459228515625
0.020947265625
0.022558593749999998
0.281982421875
0.71220703125
1.7136474609374999
3.0188232421874996
3.0228515624999996
3.027685546875
2.9680664062499997
2.59423828125
2.128564453125
1.641943359375
1.2640869140625
0.9418212890625
0.5470458984375
0.3794677734375
0.269091796875
0.2779541015625
0.32468261718749997
0.514013671875
2.7424804687499997
3.02607421875
3.0236572265625
3.0236572265625
2.5587890625
1.896533203125
0.46647949218749996
0.0201416015625
0.0217529296875
0.019335937499999997
0.0217529296875
0.33193359375
0.7226806640625
1.1480712890625
1.7023681640625
2.125341796875
2.5813476562499997
2.8351318359374997
3.0220458984375
3.0188232421874996
3.0228515624999996
0.1651611328125
0.01611328125
0.0217529296875
0.120849609375
0.5341552734375
1.1013427734374999
2.7730957031249996
3.0244628906249997
3.0252685546875
3.0236572265625
2.7980712890625
2.4041015624999997
2.1164794921875
1.7934082031249998
1.1545166015625
0.9877441406249999
0.6114990234375
0.3504638671875
0.2038330078125
0.19013671875
0.285205078125
2.4516357421875
2.99384765625
3.0244628906249997
3.0228515624999996
2.7755126953125
2.334814453125
0.81533203125
0.020947265625
0.0217529296875
0.020947265625
0.0201416015625
0.1329345703125
0.310986328125
0.8161376953124999
1.171435546875
1.7700439453124999
2.3315917968749997
2.6143798828125
2.848828125
2.9962646484374997
3.0252685546875
0.9369873046874999
0.10957031249999999
0.022558593749999998
0.015307617187499999
0.33676757812499997
0.87333984375
2.2437744140625
3.0252685546875
3.0188232421874996
3.0236572265625
3.0244628906249997
2.7263671874999997
2.2187988281249997
1.85625
1.3994384765624999
1.0803955078125
0.765380859375
0.4890380859375
0.35288085937499997
0.262646484375
0.2972900390625
1.6862548828125
2.9640380859374997
3.027685546875
3.0236572265625
2.9020019531249996
2.3243408203125
1.442138671875
0.0217529296875
0.020947265625
0.020947265625
0.023364257812499997
0.0298095703125
0.3544921875
0.7597412109374999
1.2181640624999999
1.828857421875
2.1438720703125
2.50400390625
2.737646484375
2.9390625
2.9922363281249997
1.5517089843749998
0.0362548828125
0.019335937499999997
0.0217529296875
0.35126953125
0.8201660156249999
1.5355957031249998
3.0236572265625
3.0236572265625
3.0236572265625
3.01962890625
2.6683593749999996
2.3436767578124997
1.9867675781249998
1.393798828125
1.1537109374999999
0.8628662109374999
0.6533935546874999
0.38994140624999996
0.3158203125
0.3182373046875
1.2745605468749999
2.7964599609375
3.02607421875
3.0244628906249997
2.953564453125
2.5724853515625
1.8739746093749998
0.1393798828125
0.020947265625
0.019335937499999997
0.017724609375
0.0217529296875
0.182080078125
0.543017578125
1.1400146484375
1.4501953125
1.993212890625
2.4339111328125
2.6699707031249997
2.8141845703125
2.940673828125
2.3396484374999997
0.26022949218749997
0.020947265625
0.02578125
0.16435546874999998
0.49064941406249996
1.5380126953125
3.0236572265625
3.0252685546875
3.029296875
3.021240234375
2.874609375
2.5563720703125
2.165625
1.7813232421874998
1.3913818359374999
1.0530029296874999
0.7452392578125
0.4640625
0.20302734374999998
0.223974609375
0.270703125
2.3952392578125
3.0204345703124997
3.01962890625
3.0228515624999996
2.6611083984375
2.0729736328125
0.7935791015625
0.020947265625
0.0217529296875
0.020947265625
0.022558593749999998
0.1651611328125
0.39799804687499996
0.7114013671874999
1.2254150390625
1.714453125
2.1309814453125
2.4427734375
2.811767578125
2.947119140625
2.9825683593749996
0.40122070312499997
0.111181640625
0.023364257812499997
0.17885742187499998
0.49387207031249997
1.0223876953125
2.6143798828125
3.0228515624999996
3.021240234375
3.021240234375
2.9068359375
2.6014892578124997
2.3468994140625
1.9150634765624999
1.3664062499999998
1.2544189453124999
0.9144287109375
0.66064453125
0.488232421875
0.33515625
0.32548828124999996
2.2566650390625
2.8915283203124997
3.021240234375
3.0244628906249997
2.785986328125
2.3315917968749997
0.6646728515625
0.0217529296875
0.02578125
0.023364257812499997
0.0249755859375
0.07814941406249999
0.2441162109375
0.7597412109374999
0.8145263671874999
1.4437499999999999
1.993212890625
2.3452880859375
2.6498291015624997
2.8834716796874997
2.9841796874999997
1.0763671875
0.1877197265625
0.09345703124999999
0.08942871093749999
0.39396972656249996
1.018359375
2.5499267578125
3.0244628906249997
3.0244628906249997
3.02607421875
3.0228515624999996
2.7521484375
2.3517333984374997
2.064111328125
1.53076171875
1.3639892578125
0.9603515625
0.7073730468749999
0.49306640625
0.3681884765625
0.33273925781249997
1.4236083984374999
2.8979736328124996
3.029296875
3.0236572265625
2.8544677734375
2.42666015625
1.5960205078124998
0.1699951171875
0.0201416015625
0.020947265625
0.0217529296875
0.0201416015625
0.136962890625
0.5285156249999999
0.8403076171874999
1.4397216796874999
1.8046875
2.1615966796875
2.54267578125
2.7183105468749997
2.827880859375
1.0763671875
0.0539794921875
0.022558593749999998
0.0201416015625
0.3762451171875
0.8427246093749999
1.5605712890624999
3.02607421875
3.0252685546875
3.0244628906249997
3.0236572265625
2.850439453125
2.566845703125
2.344482421875
1.8860595703124998
1.60166015625
1.181103515625
0.8467529296874999
0.581689453125
0.36174316406249996
0.310986328125
0.7951904296875
2.6119628906249996
2.9817626953125
3.0228515624999996
2.985791015625
2.582958984375
1.8151611328125
0.44553222656249997
0.020947265625
0.02578125
0.022558593749999998
0.02900390625
0.12165527343749999
0.40927734374999997
0.7951904296875
1.1625732421875
1.635498046875
2.125341796875
2.415380859375
2.695751953125
2.8560791015625
2.6949462890625
0.34965820312499996
0.11359863281249999
0.023364257812499997
0.149853515625
0.5228759765625
1.348681640625
3.0220458984375
3.01962890625
3.0220458984375
3.0244628906249997
3.0228515624999996
2.7400634765625
2.360595703125
2.054443359375
1.6137451171875
1.21494140625
0.9434326171874999
0.7049560546875
0.4471435546875
0.3585205078125
0.3117919921875
2.30419921875
2.9277832031249997
3.0236572265625
3.0252685546875
2.7521484375
2.14306640625
0.7226806640625
0.022558593749999998
0.017724609375
0.0249755859375
0.023364257812499997
0.095068359375
0.2715087890625
0.5486572265624999
1.095703125
1.4268310546874998
1.9311767578124999
2.1857666015625
2.5845703125
2.719921875
2.8254638671874996
0.29970703125
0.041088867187499996
0.023364257812499997
0.1377685546875
0.49467773437499996
0.9949951171875
2.578125
3.0228515624999996
3.021240234375
3.021240234375
3.0236572265625
2.769873046875
2.6055175781249997
2.3259521484375
1.641943359375
1.587158203125
1.1859374999999999
0.8668945312499999
0.6735351562499999
0.5293212890625
0.4278076171875
2.205908203125
2.8874999999999997
3.021240234375
3.0228515624999996
2.7932373046874996
2.3227294921875
0.7702148437499999
0.0201416015625
0.017724609375
0.022558593749999998
0.0217529296875
0.024169921875
0.07412109374999999
0.605859375
0.6276123046875
1.2737548828124998
1.8635009765625
2.1535400390625
2.4282714843749997
2.6232421875
2.8012939453124996
0.9740478515625
0.02578125
0.0217529296875
0.020947265625
0.33676757812499997
0.8830078124999999
1.9295654296875
3.0204345703124997
3.0244628906249997
3.0236572265625
3.0244628906249997
2.9116699218749997
2.663525390625
2.32998046875
1.8844482421875
1.7120361328125
1.264892578125
0.9676025390624999
0.7218749999999999
0.5325439453124999
0.41411132812499996
1.1134277343749999
2.802099609375
2.9527587890625
3.0236572265625
2.9479248046874997
2.487890625
1.7499023437499999
0.327099609375
0.0217529296875
0.02578125
0.023364257812499997
0.020947265625
0.06767578125
0.3359619140625
0.62197265625
1.1778808593749999
1.5202880859374999
1.8925048828125
2.3525390625
2.5491210937499997
2.72314453125
2.2502197265625
0.13212890624999998
0.061230468749999996
0.017724609375
0.28842773437499997
0.7935791015625
1.4171630859375
3.0236572265625
3.0228515624999996
3.0228515624999996
3.0252685546875
2.9382568359374996
2.7465087890624997
2.4661376953125
2.11728515625
1.8441650390625
1.4719482421874999
1.0642822265625
0.865283203125
0.6832031249999999
0.5124023437499999
0.562353515625
2.6232421875
2.9140869140624996
3.0244628906249997
3.0220458984375
2.6836669921875
2.07861328125
0.37382812499999996
0.0217529296875
0.0217529296875
0.0217529296875
0.020947265625
0.022558593749999998
0.153076171875
0.5309326171875
0.8685058593749999
1.2673095703125
1.7877685546875
2.17529296875
2.4000732421874997
2.70703125
2.7972656249999996
0.2698974609375
0.0990966796875
0.033837890625
0.1611328125
0.4874267578125
1.3551269531249999
3.0244628906249997
3.0252685546875
3.0236572265625
3.0228515624999996
3.0268798828124996
2.8858886718749996
2.6159912109374996
2.3654296875
1.9392333984374999
1.5919921874999998
1.22783203125
0.9498779296875
0.6566162109375
0.48984374999999997
0.35126953125
2.23974609375
2.8431884765624997
3.01962890625
3.0236572265625
2.7110595703125
2.1849609375
0.9152343749999999
0.0169189453125
0.020947265625
0.0217529296875
0.026586914062499998
0.0217529296875
0.049951171875
0.3182373046875
0.784716796875
1.1448486328125
1.5565429687499999
1.8941162109374998
2.333203125
2.5636230468749996
2.7489257812499996
0.25217285156249997
0.10634765624999999
0.0708984375
0.050756835937499994
0.4680908203125
0.9490722656249999
1.993212890625
3.01962890625
3.0244628906249997
3.0236572265625
3.0204345703124997
2.9390625
2.719921875
2.4580810546875
1.8949218749999999
1.7893798828124998
1.458251953125
1.0417236328125
0.8451416015625
0.6791748046874999
0.4842041015625
2.099560546875
2.8157958984375
2.9946533203124996
3.0252685546875
2.8045166015625
2.405712890625
0.9434326171874999
0.0201416015625
0.027392578124999997
0.020947265625
0.018530273437499998
0.0217529296875
0.022558593749999998
0.42861328125
0.4729248046875
1.06669921875
1.61455078125
2.0020751953125
2.2018798828125
2.5152832031249996
2.7706787109374997
1.069921875
0.045117187499999996
0.0217529296875
0.020947265625
0.26828613281249997
0.65419921875
2.0761962890625
3.0228515624999996
3.0252685546875
3.018017578125
3.0301025390625
3.0228515624999996
2.7569824218749996
2.3960449218749997
2.1245361328125
1.7684326171875
1.4219970703125
1.084423828125
0.862060546875
0.6002197265625
0.488232421875
0.9087890624999999
2.7046142578124996
3.0204345703124997
3.0228515624999996
3.0228515624999996
2.5080322265625
1.8812255859375
0.4189453125
0.018530273437499998
0.0217529296875
0.022558593749999998
0.02578125
0.0201416015625
0.2827880859375
0.6163330078125
1.168212890625
1.4550292968749998
1.7499023437499999
2.112451171875
2.4371337890625
2.624853515625
2.3960449218749997
0.022558593749999998
0.023364257812499997
0.020947265625
0.24814453125
0.7057617187499999
1.40185546875
3.029296875
3.0236572265625
3.0252685546875
3.0252685546875
3.0228515624999996
2.876220703125
2.663525390625
2.3565673828125
2.0625
1.76279296875
1.3543212890624998
0.9804931640625
0.6985107421875
0.53818359375
0.5325439453124999
2.5467041015625
2.85849609375
3.0188232421874996
2.9841796874999997
2.6627197265625
2.0898925781249997
0.476953125
0.024169921875
0.02578125
0.020947265625
0.015307617187499999
0.0217529296875
0.14501953125
0.54140625
0.8064697265624999
1.2028564453125
1.6765869140624998
1.93681640625
2.2324951171875
2.50400390625
2.5894042968749997
0.1007080078125
0.024169921875
0.0169189453125
0.12810058593749998
0.475341796875
1.3599609375
3.0204345703124997
3.0236572265625
3.0244628906249997
3.0228515624999996
3.0252685546875
2.9261718749999996
2.682861328125
2.4234375
1.9617919921875
1.6959228515625
1.393798828125
1.1859374999999999
0.9128173828124999
0.65419921875
0.4962890625
2.199462890625
2.9028076171875
3.0252685546875
3.0228515624999996
2.7126708984374996
2.1487060546875
0.7935791015625
0.022558593749999998
0.023364257812499997
0.0217529296875
0.0217529296875
0.024169921875
0.07412109374999999
0.3101806640625
0.38994140624999996
1.09248046875
1.4711425781249998
1.783740234375
2.3227294921875
2.4661376953125
2.5974609374999997
0.124072265625
0.0201416015625
0.022558593749999998
0.0249755859375
0.50595703125
1.0828125
2.7263671874999997
3.0204345703124997
3.02607421875
3.02607421875
3.0252685546875
2.8713867187499997
2.771484375
2.46533203125
2.1019775390624997
1.7660156249999999
1.4276367187499999
1.0675048828125
0.8403076171874999
0.6743408203125
0.5776611328125
2.1003662109375
2.874609375
3.0099609375
3.027685546875
2.8681640625
2.4564697265624997
0.9571289062499999
0.0201416015625
0.020947265625
0.023364257812499997
0.014501953125
0.020947265625
0.0201416015625
0.4036376953125
0.6066650390625
0.9716308593749999
1.313232421875
1.7845458984375
2.1664306640624997
2.4613037109375
2.68125
1.0650878906249999
0.091845703125
0.09990234375
0.0708984375
0.25620117187499997
0.7710205078125
1.8151611328125
3.0244628906249997
3.0236572265625
3.0244628906249997
3.0236572265625
3.0220458984375
2.8133789062499996
2.4274658203125
2.296142578125
2.0294677734374997
1.5911865234375
1.2052734375
0.9224853515625
0.6098876953125
0.47373046874999997
0.7468505859375
2.70380859375
2.9495361328125
3.0244628906249997
3.02607421875
2.5160888671875
1.8054931640624998
0.4165283203125
0.022558593749999998
0.020947265625
0.017724609375
0.0217529296875
0.022558593749999998
0.18449707031249998
0.5003173828124999
1.0127197265624999
1.40185546875
1.7772949218749998
2.0536376953124997
2.4339111328125
2.6337158203124997
2.5837646484374996
0.09990234375
0.0217529296875
0.024169921875
0.09748535156249999
0.6630615234374999
1.3237060546875
3.0252685546875
3.0228515624999996
3.0252685546875
3.0220458984375
3.02607421875
2.866552734375
2.642578125
2.3984619140625
2.1591796875
1.6798095703125
1.3857421875
1.0368896484374999
0.825
0.6735351562499999
0.533349609375
2.642578125
2.972900390625
3.0252685546875
3.0220458984375
2.6949462890625
2.152734375
0.3923583984375
0.020947265625
0.0217529296875
0.023364257812499997
0.022558593749999998
0.0201416015625
0.075732421875
0.4954833984375
0.7871337890625
1.134375
1.571044921875
1.9658203125
2.2389404296874997
2.4596923828125
2.6296874999999997
0.0958740234375
0.020947265625
0.023364257812499997
0.0378662109375
0.40605468749999996
0.9659912109375
3.027685546875
3.0236572265625
3.0252685546875
3.01962890625
3.021240234375
2.92939453125
2.760205078125
2.3823486328125
1.9972412109375
1.8731689453125
1.3704345703124998
1.068310546875
0.8104980468749999
0.6372802734374999
0.5438232421875
2.2324951171875
2.872998046875
3.02607421875
3.029296875
2.8053222656249996
2.2244384765625
0.8701171875
0.020947265625
0.022558593749999998
0.020947265625
0.0201416015625
0.022558593749999998
0.019335937499999997
0.343212890625
0.34965820312499996
1.09892578125
1.5138427734375
1.8280517578125
2.128564453125
2.4943359375
2.6377441406249997
0.942626953125
0.0217529296875
0.017724609375
0.0217529296875
0.436669921875
0.871728515625
1.88525390625
3.02607421875
3.0244628906249997
3.0228515624999996
3.0252685546875
3.001904296875
2.8391601562499997
2.5370361328124997
2.176904296875
1.9569580078125
1.5654052734375
1.2858398437499998
0.9643798828125
0.7557128906249999
0.6340576171875
2.0890869140625
2.9036132812499997
3.0236572265625
3.0236572265625
2.7819580078125
2.36865234375
1.58232421875
0.020947265625
0.020947265625
0.020947265625
0.0217529296875
0.024169921875
0.020947265625
0.24814453125
0.5518798828125
0.9482666015625
1.2576416015624998
1.6491943359374999
2.102783203125
2.3791259765625
2.6111572265625
1.0046630859374999
0.024169921875
0.040283203125
0.026586914062499998
0.262646484375
0.710595703125
1.4437499999999999
3.0309082031249996
3.0244628906249997
3.029296875
3.0228515624999996
3.018017578125
2.8391601562499997
2.586181640625
2.273583984375
2.0576660156249997
1.6935058593749999
1.3043701171875
1.1045654296875
0.88623046875
0.630029296875
0.9015380859375
2.7287841796874996
3.0228515624999996
3.0236572265625
2.9583984374999996
2.6296874999999997
1.7297607421874999
0.2956787109375
0.0217529296875
0.0217529296875
0.022558593749999998
0.022558593749999998
0.0217529296875
0.18288574218749998
0.4326416015625
0.700927734375
1.2455566406249998
1.619384765625
1.960986328125
2.254248046875
2.6369384765625
2.5958496093749996
0.2263916015625
0.1007080078125
0.017724609375
0.11037597656249999
0.71865234375
1.3075927734375
3.0228515624999996
3.0228515624999996
3.0268798828124996
3.0236572265625
3.0244628906249997
2.8721923828125
2.6441894531249996
2.4065185546875
2.1680419921875
1.7015624999999999
1.40830078125
1.019970703125
0.839501953125
0.6437255859375
0.575244140625
2.6860839843749997
2.9688720703125
3.0252685546875
3.0252685546875
2.7021972656249997
2.1712646484375
0.87978515625
0.020947265625
0.0217529296875
0.020947265625
0.0201416015625
0.02578125
0.02578125
0.270703125
0.7379882812499999
1.094091796875
1.426025390625
1.877197265625
2.147900390625
2.44921875
2.6490234375
0.0926513671875
0.023364257812499997
0.026586914062499998
0.0668701171875
0.3681884765625
0.9087890624999999
3.0252685546875
3.0268798828124996
3.0236572265625
3.0220458984375
3.0236572265625
3.0139892578125
2.81982421875
2.489501953125
2.1333984375
1.972265625
1.5057861328125
1.200439453125
0.9450439453124999
0.8370849609375
0.6163330078125
2.24619140625
2.9100585937499996
3.027685546875
3.0228515624999996
2.7706787109374997
2.1076171875
0.710595703125
0.027392578124999997
0.024169921875
0.023364257812499997
0.0217529296875
0.0217529296875
0.0217529296875
0.356103515625
0.32145996093749996
0.9192626953124999
1.42119140625
1.7539306640624999
2.0052978515624997
2.3372314453125
2.4838623046875
0.8314453125
0.023364257812499997
0.01611328125
0.026586914062499998
0.3391845703125
0.978076171875
2.3485107421875
3.0236572265625
3.027685546875
3.0252685546875
3.021240234375
2.995458984375
2.719921875
2.3726806640625
2.16884765625
1.7958251953125
1.47275390625
1.164990234375
0.865283203125
0.668701171875
0.5325439453124999
0.9394042968749999
2.76181640625
2.9189208984375
3.021240234375
2.82626953125
2.415380859375
1.8103271484374999
0.023364257812499997
0.020947265625
0.024169921875
0.0217529296875
0.0217529296875
0.0201416015625
0.19899902343749998
0.7637695312499999
0.9982177734375
1.3100097656249998
1.6129394531249999
2.07216796875
2.354150390625
2.5587890625
0.9917724609374999
0.10957031249999999
0.0652587890625
0.02900390625
0.26425781249999997
0.7234863281249999
1.4195800781249999
3.0228515624999996
3.021240234375
3.01962890625
3.01962890625
3.0244628906249997
2.9173095703125
2.7263671874999997
2.4306884765625
2.2647216796875
1.85302734375
1.3502929687499998
1.1496826171874999
0.889453125
0.6501708984375
0.6670898437499999
2.7021972656249997
2.9076416015624997
3.0204345703124997
2.898779296875
2.6739990234374997
1.8344970703124999
0.5849121093749999
0.022558593749999998
0.020947265625
0.023364257812499997
0.0217529296875
0.0217529296875
0.10554199218749999
0.4068603515625
0.7081787109375
1.2189697265625
1.5791015625
1.867529296875
2.1052001953125
2.4121582031249997
2.59423828125
0.149853515625
0.019335937499999997
0.020947265625
0.1297119140625
0.6743408203125
1.3801025390625
3.0301025390625
3.0172119140625
3.02607421875
3.0236572265625
3.0236572265625
2.9495361328125
2.7102539062499997
2.4886962890624997
2.2727783203125
1.8683349609375
1.522705078125
1.2238037109375
0.85400390625
0.6638671875
0.5365722656249999
2.631298828125
2.856884765625
3.0268798828124996
2.9495361328125
2.6458007812499997
2.0874755859375
0.62197265625
0.020947265625
0.0217529296875
0.020947265625
0.0217529296875
0.0217529296875
0.0845947265625
0.4068603515625
0.8846191406249999
1.1061767578125
1.5444580078124999
1.9593749999999999
2.2671386718749997
2.50400390625
2.6683593749999996
0.1893310546875
0.020947265625
0.022558593749999998
0.0926513671875
0.4890380859375
0.9756591796874999
3.0244628906249997
3.0228515624999996
3.0284912109374997
3.0236572265625
3.02607421875
2.9261718749999996
2.7013916015625
2.3533447265625
2.14306640625
1.832080078125
1.4501953125
1.0755615234375
0.8403076171874999
0.6670898437499999
0.468896484375
2.0778076171874997
2.802099609375
2.99384765625
3.0244628906249997
2.8214355468749996
2.384765625
0.9224853515625
0.020947265625
0.022558593749999998
0.020947265625
0.0217529296875
0.022558593749999998
0.0201416015625
0.4084716796875
0.69609375
1.1222900390625
1.585546875
1.899755859375
2.2308837890624997
2.578125
2.7223388671874997
1.0771728515624999
0.10151367187499999
0.11279296875
0.1087646484375
0.34965820312499996
1.1093994140624999
2.0906982421875
3.027685546875
3.01962890625
3.02607421875
3.0244628906249997
2.8818603515624996
2.4548583984375
2.03671875
1.8232177734375
1.353515625
1.018359375
0.6904541015625
0.4165283203125
0.230419921875
0.19899902343749998
0.6010253906249999
2.737646484375
2.8375488281249996
2.9720947265624997
2.76826171875
2.2324951171875
1.4896728515625
0.02578125
0.022558593749999998
0.020947265625
0.0201416015625
0.28842773437499997
0.6372802734374999
1.1384033203125
2.0488037109375
2.34609375
2.6764160156249996
2.940673828125
3.0244628906249997
3.0228515624999996
2.953564453125
0.9249023437499999
0.017724609375
0.0201416015625
0.1248779296875
0.4970947265625
1.09248046875
1.9392333984374999
3.02607421875
3.0252685546875
3.0244628906249997
2.5918212890624996
2.0101318359375
1.3873535156249999
0.775048828125
0.207861328125
0.17644042968749998
0.0217529296875
0.14501953125
0.40122070312499997
1.2544189453124999
1.948095703125
1.7716552734375
1.770849609375
1.4236083984374999
1.4356933593749999
1.445361328125
1.3261230468749998
1.3494873046875
1.3623779296874998
1.496923828125
1.6169677734374999
1.7555419921875
1.7877685546875
1.80791015625
1.8328857421875
1.8296630859374998
1.8151611328125
1.8046875
1.7813232421874998
1.754736328125
1.740234375
1.714453125
1.690283203125
1.5670166015625
1.941650390625
1.972265625
1.9658203125
1.9746826171874998
1.93359375
1.9706542968749998
1.7345947265625
1.4783935546875
1.4284423828125
1.405078125
1.3712402343749999
1.3712402343749999
1.3583496093749998
1.3623779296874998
1.3728515625
1.384130859375
1.4010498046875
1.429248046875
1.4501953125
1.4550292968749998
1.5218994140625
1.2656982421874998
1.206884765625
1.18271484375
1.19560546875
1.2020507812499999
1.1947998046875
1.3398193359375
1.48564453125
1.5702392578125
1.66611328125
1.6951171875
1.7184814453125
1.73056640625
1.7007568359374998
1.6967285156249998
1.69833984375
1.6798095703125
1.667724609375
1.651611328125
1.6242187499999998
1.5251220703125
1.8280517578125
1.91748046875
1.9271484374999999
1.941650390625
1.912646484375
1.9078125
1.740234375
1.5436523437499998
1.3962158203125
1.3502929687499998
1.3261230468749998
1.3204833984375
1.3333740234375
1.345458984375
1.348681640625
1.3599609375
1.3712402343749999
1.38896484375
1.4219970703125
1.4348876953124998
1.5347900390625
1.3728515625
1.1867431640625
1.1778808593749999
1.174658203125
1.16337890625
1.15693359375
1.2785888671874999
1.3744628906249998
1.5766845703124999
1.63388671875
1.6733642578124999
1.6951171875
1.7345947265625
1.72412109375
1.7096191406249999
1.6959228515625
1.6798095703125
1.6701416015625
1.6379150390625
1.6363037109374998
1.5218994140625
1.8095214843749998
1.8957275390625
1.912646484375
1.9279541015625
1.9102294921874998
1.8973388671875
1.8385253906249999
1.5331787109375
1.4155517578124999
1.3599609375
1.3229003906249999
1.3414306640625
1.3349853515624999
1.3656005859375
1.35673828125
1.3583496093749998
1.36962890625
1.397021484375
1.40185546875
1.4147460937499998
1.513037109375
1.361572265625
1.2101074218749999
1.17626953125
1.15693359375
1.1690185546875
1.19560546875
1.264892578125
1.3954101562499999
1.53076171875
1.63388671875
1.667724609375
1.6951171875
1.7249267578124998
1.73056640625
1.7208984374999998
1.6894775390624999
1.662890625
1.6524169921874998
1.63388671875
1.6218017578125
1.533984375
1.6806152343749998
1.8707519531249999
1.9150634765624999
1.920703125
1.9142578124999998
1.893310546875
1.8546386718749999
1.6040771484374998
1.4195800781249999
1.3720458984375
1.3478759765625
1.3333740234375
1.32451171875
1.3502929687499998
1.3422363281249998
1.3510986328124999
1.3728515625
1.38896484375
1.4034667968749999
1.4244140625
1.4203857421875
1.464697265625
1.2189697265625
1.1706298828125
1.173046875
1.1698242187499999
1.1939941406249999
1.2141357421874999
1.3849365234375
1.5202880859374999
1.6105224609375
1.6636962890625
1.5235107421874998
1.1706298828125
1.6177734375
1.7136474609374999
1.6822265625
1.6927001953124998
1.674169921875
1.5436523437499998
1.6427490234375
1.658056640625
1.6927001953124998
1.8981445312499998
1.9432617187499999
1.94970703125
1.9513183593749999
1.920703125
1.8989501953124999
1.6773925781249999
1.4953124999999998
1.4091064453125
1.3559326171875
1.3398193359375
1.3390136718749999
1.340625
1.3527099609375
1.35673828125
1.3801025390625
1.3833251953124999
1.4091064453125
1.4397216796874999
1.4477783203124999
1.4896728515625
1.2689208984375
1.181103515625
1.1706298828125
1.174658203125
1.1802978515625
1.2189697265625
1.33740234375
1.4655029296875
1.5839355468749998
0.0217529296875
0.022558593749999998
1.4518066406249999
1.7281494140625
1.7184814453125
1.7337890624999999
1.7974365234374998
1.7901855468749999
1.7531249999999998
1.748291015625
1.7418457031249999
1.6814208984374999
1.9505126953124998
2.0020751953125
2.02060546875
2.0439697265625
2.00771484375
1.977099609375
1.7829345703125
1.4791992187499998
1.41796875
1.3946044921874998
1.4058837890625
1.3462646484374998
1.287451171875
1.316455078125
1.3019531249999998
1.4139404296875
1.4010498046875
1.44052734375
1.46953125
1.4477783203124999
1.554931640625
1.3317626953125
1.2608642578125
1.2399169921875
1.21494140625
1.21494140625
1.2270263671875
1.3664062499999998
1.4848388671875
1.5396240234374998
1.184326171875
1.4026611328124998
1.6910888671875
1.73056640625
1.7595703125
1.77890625
1.7571533203124998
1.719287109375
1.7096191406249999
1.7055908203124999
1.6733642578124999
1.6129394531249999
1.8344970703124999
1.9432617187499999
1.95615234375
1.9714599609374999
1.9625976562499998
1.93359375
1.780517578125
1.5791015625
1.4373046875
1.3873535156249999
1.3720458984375
1.3551269531249999
1.3599609375
1.3744628906249998
1.361572265625
1.3688232421875
1.3962158203125
1.4074951171874999
1.4252197265625
1.4437499999999999
1.5041748046874999
1.3720458984375
1.213330078125
1.1996337890625
1.168212890625
1.1432373046875
1.1657958984374999
1.2592529296875
1.40830078125
1.5605712890624999
1.63388671875
1.6862548828125
1.7080078125
1.7152587890625
1.7362060546875
1.7249267578124998
1.716064453125
1.6910888671875
1.6693359374999999
1.6556396484375
1.638720703125
1.5718505859374998
1.7829345703125
1.9086181640625
1.9198974609375
1.9456787109375
1.928759765625
1.8892822265625
1.8554443359375
1.5662109375
1.4316650390624999
1.3752685546874999
1.332568359375
1.319677734375
1.32451171875
1.3261230468749998
1.3494873046875
1.353515625
1.3575439453125
1.3873535156249999
1.3954101562499999
1.4236083984374999
1.4872558593749998
1.3712402343749999
1.229443359375
1.1778808593749999
1.15693359375
1.164990234375
1.181103515625
1.2624755859374999
1.3986328124999998
1.5106201171875
1.6218017578125
1.6701416015625
1.6935058593749999
1.71123046875
1.7080078125
1.7072021484375
1.7120361328125
1.6846435546874998
1.6830322265625
1.6427490234375
1.6435546875
1.5799072265624998
1.6822265625
1.8908935546874999
1.9150634765624999
1.928759765625
1.9215087890625
1.9029785156249999
1.8618896484374998
1.6209960937499999
1.4461669921875
1.3784912109374998
1.3414306640625
1.3309570312499999
1.327734375
1.33740234375
1.340625
1.3623779296874998
1.3817138671875
1.3962158203125
1.40830078125
1.413134765625
1.4437499999999999
1.4066894531249998
1.24072265625
1.1786865234375
1.1706298828125
1.1674072265625
1.1786865234375
1.1996337890625
1.3784912109374998
1.513037109375
1.5927978515624999
1.6330810546874999
1.66611328125
1.7039794921875
1.7200927734375
1.7168701171874998
1.7088134765624998
1.6975341796874999
1.6645019531249998
1.6435546875
1.6322753906249998
1.61455078125
1.6532226562499999
1.8312744140625
1.9086181640625
1.912646484375
1.9078125
1.8860595703124998
1.8489990234375
1.6121337890624998
1.4510009765624998
1.3954101562499999
1.3390136718749999
1.3285400390625
1.3067871093749999
1.3140380859374998
1.3317626953125
1.332568359375
1.35673828125
1.380908203125
1.361572265625
1.345458984375
1.400244140625
1.45341796875
1.2238037109375
1.1400146484375
1.1319580078125
1.0385009765625
1.1722412109375
1.2310546875
1.3261230468749998
1.458251953125
1.6056884765625
1.6878662109375
1.7080078125
1.7362060546875
1.738623046875
1.7345947265625
1.7184814453125
1.7015624999999999
1.6927001953124998
1.2479736328125
1.5251220703125
1.6363037109374998
1.6153564453125
1.8602783203125
1.944873046875
1.9674316406249999
1.8715576171875
1.9102294921874998
1.8667236328124999
1.7015624999999999
1.4800048828124999
1.4284423828125
1.38896484375
1.3527099609375
1.35673828125
1.34384765625
1.3728515625
1.3712402343749999
1.3825195312499998
1.40830078125
1.4236083984374999
1.4397216796874999
1.4630859374999998
1.49853515625
1.3220947265624998
1.21171875
1.187548828125
1.1698242187499999
1.181103515625
1.1939941406249999
1.3382080078124998
1.461474609375
1.5734619140625
1.6564453124999998
1.67900390625
1.69833984375
1.7249267578124998
1.7184814453125
1.73056640625
1.716064453125
1.69189453125
1.6612792968749999
1.6411376953124999
1.63388671875
1.5911865234375
1.7829345703125
1.9215087890625
1.9424560546874998
1.9424560546874998
1.9303710937499998
1.9102294921874998
1.7015624999999999
1.5170654296875
1.393798828125
1.3583496093749998
1.3204833984375
1.3027587890624999
1.3333740234375
1.3446533203125
1.3446533203125
1.364794921875
1.393798828125
1.3986328124999998
1.4203857421875
1.42119140625
1.4638916015624999
1.3768798828125
1.20849609375
1.1778808593749999
1.1722412109375
1.184326171875
1.206884765625
1.2673095703125
1.4187744140624998
1.5243164062499999
1.6081054687499998
1.6701416015625
1.703173828125
1.722509765625
1.716064453125
1.7080078125
1.69833984375
1.6846435546874998
1.66611328125
1.64677734375
1.63388671875
1.5807128906249999
1.7466796875
1.8892822265625
1.9166748046875
1.9311767578124999
1.9231201171874999
1.9078125
1.8820312499999998
1.5879638671874998
1.4445556640625
1.3784912109374998
1.332568359375
1.3188720703124999
1.3365966796875
1.332568359375
1.340625
1.353515625
1.37607421875
1.3921875
1.4074951171874999
1.4236083984374999
1.4493896484375
1.3978271484375
1.2399169921875
1.1819091796874999
1.1617675781249999
1.1577392578124999
1.1899658203124999
1.268115234375
1.3688232421875
1.48564453125
1.603271484375
1.658056640625
1.683837890625
1.7015624999999999
1.72412109375
1.7047851562499998
1.69833984375
1.6910888671875
1.6814208984374999
1.6669189453125
1.6346923828125
1.6040771484374998
1.658056640625
1.8506103515624999
1.9118408203125
1.9247314453125
1.9271484374999999
1.896533203125
1.8618896484374998
1.6685302734374998
1.4518066406249999
1.377685546875
1.34384765625
1.3301513671874998
1.327734375
1.3309570312499999
1.3349853515624999
1.351904296875
1.361572265625
1.384130859375
1.4066894531249998
1.4155517578124999
1.4268310546874998
1.4671142578124998
1.2455566406249998
1.18916015625
1.1625732421875
1.1545166015625
1.171435546875
1.2060791015624999
1.3607666015625
1.4840332031249999
1.5815185546875
1.635498046875
1.6886718749999998
1.6967285156249998
1.7128417968749998
1.7023681640625
1.703173828125
1.6991455078125
1.6725585937499998
1.651611328125
1.6218017578125
1.6218017578125
1.641943359375
1.82724609375
1.89169921875
1.9086181640625
1.8949218749999999
1.877197265625
1.8151611328125
1.6459716796875
1.5033691406249998
1.413134765625
1.3583496093749998
1.3422363281249998
1.3317626953125
1.3430419921874999
1.345458984375
1.3591552734374999
1.384130859375
1.393798828125
1.413134765625
1.4123291015625
1.4284423828125
1.480810546875
1.3108154296874999
1.1980224609374999
1.1754638671875
1.1617675781249999
1.18271484375
1.2141357421874999
1.3075927734375
1.4348876953124998
1.5734619140625
1.6371093749999999
1.6733642578124999
1.703173828125
1.716064453125
1.7184814453125
1.7023681640625
1.6894775390624999
1.6749755859375
1.6532226562499999
1.6435546875
1.6306640625
1.5879638671874998
1.8256347656249998
1.9062011718749998
1.925537109375
1.931982421875
1.9102294921874998
1.8868652343749999
1.783740234375
1.522705078125
1.41796875
1.3583496093749998
1.3309570312499999
1.3261230468749998
1.3341796874999998
1.332568359375
1.3446533203125
1.3478759765625
1.3720458984375
1.3849365234375
1.4091064453125
1.4187744140624998
1.4759765624999999
1.31162109375
1.20849609375
1.174658203125
1.16015625
1.1674072265625
1.18271484375
1.2979248046874998
1.4203857421875
1.5323730468749999
1.6314697265625
1.6717529296875
1.6943115234375
1.719287109375
1.699951171875
1.7080078125
1.699951171875
1.6749755859375
1.658056640625
1.6451660156249999
1.6298583984375
1.5726562499999999
1.74345703125
1.8812255859375
1.912646484375
1.9352050781249999
1.9360107421875
1.8900878906249998
1.79501953125
1.5895751953125
1.4518066406249999
1.3583496093749998
1.3422363281249998
1.3349853515624999
1.3317626953125
1.3422363281249998
1.3430419921874999
1.3599609375
1.3752685546874999
1.3921875
1.405078125
1.4195800781249999
1.448583984375
1.3857421875
1.20849609375
1.181103515625
1.1770751953125
1.1859374999999999
1.19560546875
1.2463623046874999
1.3607666015625
1.5186767578125
1.611328125
1.670947265625
1.6967285156249998
1.6959228515625
1.7039794921875
1.6951171875
1.69189453125
1.683837890625
1.6636962890625
1.64677734375
1.6314697265625
1.61455078125
1.74345703125
1.8739746093749998
1.9070068359374999
1.9327880859375
1.9223144531249998
1.893310546875
1.87236328125
1.5927978515624999
1.4526123046875
1.37607421875
1.33740234375
1.3349853515624999
1.32451171875
1.3349853515624999
1.335791015625
1.3422363281249998
1.3704345703124998
1.3792968749999999
1.4026611328124998
1.4155517578124999
1.4308593749999998
1.416357421875
1.2536132812499998
1.1867431640625
1.1641845703125
1.16015625
1.1738525390624999
1.248779296875
1.351904296875
1.4767822265625
1.6024658203125
1.6540283203125
1.690283203125
1.7023681640625
1.7136474609374999
1.71123046875
1.7055908203124999
1.67900390625
1.65966796875
1.6564453124999998
1.6346923828125
1.6185791015625
1.6443603515624998
1.8240234375
1.9182861328124998
1.9263427734374998
1.92392578125
1.9013671875
1.8739746093749998
1.7047851562499998
1.4767822265625
1.3929931640625
1.351904296875
1.3333740234375
1.3285400390625
1.3341796874999998
1.3422363281249998
1.3494873046875
1.3599609375
1.377685546875
1.3946044921874998
1.4123291015625
1.416357421875
1.4711425781249998
1.2656982421874998
1.1915771484375
1.168212890625
1.1593505859375
1.1819091796874999
1.20849609375
1.3543212890624998
1.4816162109375
1.5799072265624998
1.6395263671875
1.6773925781249999
1.6951171875
1.7096191406249999
1.7104248046875
1.6967285156249998
1.6991455078125
1.667724609375
1.6604736328124998
1.6322753906249998
1.6234130859375
1.611328125
1.8087158203125
1.9021728515624998
1.9231201171874999
1.931982421875
1.9102294921874998
1.8820312499999998
1.6991455078125
1.5299560546875
1.4147460937499998
1.353515625
1.3269287109374999
1.32451171875
1.332568359375
1.335791015625
1.3430419921874999
1.361572265625
1.380908203125
1.4066894531249998
1.4074951171874999
1.4300537109375
1.4783935546875
1.3212890625
1.190771484375
1.1641845703125
1.1561279296875
1.18271484375
1.190771484375
1.2938964843749998
1.4155517578124999
1.5557373046874998
1.6330810546874999
1.6556396484375
1.6991455078125
1.716064453125
1.7176757812499999
1.6242187499999998
1.69189453125
1.6693359374999999
1.65966796875
1.6411376953124999
1.6266357421875
1.5702392578125
1.8087158203125
1.89169921875
1.9215087890625
1.9303710937499998
1.9166748046875
1.8884765625
1.7901855468749999
1.5283447265624999
1.41796875
1.361572265625
1.332568359375
1.3349853515624999
1.335791015625
1.332568359375
1.3462646484374998
1.3551269531249999
1.380908203125
1.3921875
1.4123291015625
1.4203857421875
1.4783935546875
1.348681640625
1.206884765625
1.181103515625
1.1577392578124999
1.1698242187499999
1.184326171875
1.2890625
1.4115234374999999
1.5251220703125
1.6209960937499999
1.66611328125
1.69189453125
1.7120361328125
1.71123046875
1.7096191406249999
1.7023681640625
1.6781982421875
1.6612792968749999
1.6483886718749998
1.6306640625
1.58232421875
1.722509765625
1.8659179687499998
1.9182861328124998
1.9408447265625
1.928759765625
1.8868652343749999
1.8304687499999999
1.6177734375
1.44052734375
1.364794921875
1.3446533203125
1.3527099609375
1.353515625
1.3510986328124999
1.348681640625
1.34384765625
1.361572265625
1.3801025390625
1.4074951171874999
1.41796875
1.4397216796874999
1.4187744140624998
1.224609375
1.181103515625
1.1657958984374999
1.164990234375
1.184326171875
1.2342773437499999
1.397021484375
1.5138427734375
1.6000488281249998
1.6451660156249999
1.6991455078125
1.714453125
1.7200927734375
1.7072021484375
1.699951171875
1.6798095703125
1.65966796875
1.6483886718749998
1.625830078125
1.6048828124999999
1.69189453125
1.861083984375
1.9037841796875
1.941650390625
1.9271484374999999
1.9053955078125
1.812744140625
1.6266357421875
1.4719482421874999
1.393798828125
1.3414306640625
1.3301513671874998
1.3261230468749998
1.3309570312499999
1.3285400390625
1.3462646484374998
1.3712402343749999
1.400244140625
1.42119140625
1.4228027343749998
1.4284423828125
1.44052734375
1.2673095703125
1.1819091796874999
1.1617675781249999
1.158544921875
1.1899658203124999
1.2238037109375
1.3422363281249998
1.47275390625
1.5968261718749999
1.6475830078125
1.6854492187499999
1.7096191406249999
1.7104248046875
1.7055908203124999
