1.3607666015625
1.51787109375
1.6185791015625
1.6588623046875
1.6153564453125
1.7136474609374999
1.722509765625
1.7136474609374999
1.7007568359374998
1.6830322265625
1.6725585937499998
1.6475830078125
1.635498046875
1.6161621093749998
1.6435546875
1.8747802734374999
1.9223144531249998
1.9295654296875
1.9311767578124999
1.9053955078125
1.8707519531249999
1.609716796875
1.4542236328125
1.3752685546874999
1.3430419921874999
1.327734375
1.327734375
1.3309570312499999
1.3430419921874999
1.345458984375
1.3599609375
1.3801025390625
1.3954101562499999
1.4203857421875
1.4300537109375
1.4228027343749998
1.2544189453124999
1.18916015625
1.1561279296875
1.1545166015625
1.1819091796874999
1.2479736328125
1.3623779296874998
1.4800048828124999
1.5791015625
1.6572509765624999
1.6854492187499999
1.69833984375
1.7233154296875
1.714453125
1.7039794921875
1.69189453125
1.67578125
1.651611328125
1.6491943359374999
1.619384765625
1.6346923828125
1.8336914062499998
1.9142578124999998
1.928759765625
1.931982421875
1.9086181640625
1.8788085937499999
1.66611328125
1.4961181640624999
1.3744628906249998
1.3382080078124998
1.3309570312499999
1.3253173828125
1.332568359375
1.340625
1.3575439453125
1.36962890625
1.384130859375
1.40830078125
1.4074951171874999
1.4300537109375
1.46630859375
1.2584472656249999
1.19560546875
1.17626953125
1.1545166015625
1.1738525390624999
1.1996337890625
1.30517578125
1.4711425781249998
1.5758789062499998
1.6451660156249999
1.687060546875
1.7096191406249999
1.7152587890625
1.7136474609374999
1.7072021484375
1.69833984375
1.683837890625
1.6508056640625
1.6403320312499998
1.6322753906249998
1.6242187499999998
1.8224121093749999
1.8989501953124999
1.925537109375
1.9384277343749998
1.9231201171874999
1.9102294921874998
1.690283203125
1.4993408203124998
1.409912109375
1.3478759765625
1.3237060546875
1.3204833984375
1.3333740234375
1.3430419921874999
1.3510986328124999
1.351904296875
1.3784912109374998
1.3986328124999998
1.405078125
1.4171630859375
1.4759765624999999
1.3180664062499998
1.2173583984375
1.17626953125
1.1537109374999999
1.1738525390624999
1.206884765625
1.2930908203125
1.416357421875
1.5573486328125
1.63388671875
1.6701416015625
1.687060546875
1.7217041015624999
1.7104248046875
1.7120361328125
1.6894775390624999
1.67578125
1.6588623046875
1.641943359375
1.6290527343749999
1.5791015625
1.7410400390624998
1.912646484375
1.93359375
1.941650390625
1.91748046875
1.8860595703124998
1.8183837890624999
1.545263671875
1.4203857421875
1.3623779296874998
1.3285400390625
1.3349853515624999
1.3212890625
1.3414306640625
1.3382080078124998
1.3494873046875
1.3736572265625
1.3873535156249999
1.4091064453125
1.4171630859375
1.4356933593749999
1.3414306640625
1.2109130859375
1.1786865234375
1.1617675781249999
1.1577392578124999
1.1947998046875
1.213330078125
1.416357421875
1.53076171875
1.6153564453125
1.6636962890625
1.6975341796874999
1.716064453125
1.7120361328125
1.7088134765624998
1.7039794921875
1.6943115234375
1.6556396484375
1.64677734375
1.6363037109374998
1.5807128906249999
1.7249267578124998
1.8820312499999998
1.9182861328124998
1.93359375
1.9327880859375
1.920703125
1.7990478515625
1.577490234375
1.445361328125
1.353515625
1.3317626953125
1.3237060546875
1.329345703125
1.327734375
1.3390136718749999
1.361572265625
1.3784912109374998
1.3921875
1.40830078125
1.4147460937499998
1.4308593749999998
1.4171630859375
1.2262207031249999
1.190771484375
1.16337890625
1.16015625
1.18916015625
1.2310546875
1.3543212890624998
1.5194824218749998
1.6000488281249998
1.6491943359374999
1.6927001953124998
1.7217041015624999
1.7281494140625
1.7104248046875
1.7072021484375
1.687060546875
1.6604736328124998
1.6379150390625
1.6330810546874999
1.6129394531249999
1.7168701171874998
1.8788085937499999
1.9231201171874999
1.93359375
1.93359375
1.9118408203125
1.8707519531249999
1.609716796875
1.4574462890625
1.37607421875
1.335791015625
1.3301513671874998
1.3309570312499999
1.329345703125
1.3349853515624999
1.3494873046875
1.3527099609375
1.38896484375
1.3986328124999998
1.4107177734374998
1.4219970703125
1.426025390625
1.2608642578125
1.190771484375
1.1617675781249999
1.1609619140625
1.1786865234375
1.24072265625
1.3414306640625
1.4759765624999999
1.5976318359375
1.6532226562499999
1.69189453125
1.7047851562499998
1.7200927734375
1.71123046875
1.703173828125
1.6806152343749998
1.6717529296875
1.6532226562499999
1.635498046875
1.619384765625
1.6298583984375
1.8224121093749999
1.920703125
1.9376220703125
1.9384277343749998
1.9070068359374999
1.8876708984375
1.706396484375
1.474365234375
1.3865478515624998
1.3478759765625
1.3285400390625
1.3285400390625
1.3333740234375
1.3349853515624999
1.3527099609375
1.35673828125
1.3801025390625
1.4058837890625
1.4107177734374998
1.4219970703125
1.46630859375
1.271337890625
1.190771484375
1.1641845703125
1.1561279296875
1.1778808593749999
1.1915771484375
1.353515625
1.474365234375
1.5686279296874999
1.6330810546874999
1.6862548828125
1.706396484375
1.7128417968749998
1.7152587890625
1.7047851562499998
1.7047851562499998
1.6725585937499998
1.6588623046875
1.6363037109374998
1.6250244140624999
1.6048828124999999
1.8071044921875
1.893310546875
1.9215087890625
1.93681640625
1.920703125
1.8876708984375
1.699951171875
1.513037109375
1.38896484375
1.3470703124999999
1.335791015625
1.329345703125
1.3309570312499999
1.3382080078124998
1.3349853515624999
1.3728515625
1.3817138671875
1.397021484375
1.413134765625
1.4195800781249999
1.4735595703125
1.3502929687499998
1.1980224609374999
1.1674072265625
1.1561279296875
1.1617675781249999
1.19560546875
1.2890625
1.41796875
1.561376953125
1.63388671875
1.6685302734374998
1.7023681640625
1.7200927734375
1.706396484375
1.6991455078125
1.6830322265625
1.6886718749999998
1.6701416015625
1.6451660156249999
1.6282470703124998
1.5815185546875
1.7990478515625
1.899755859375
1.9182861328124998
1.93681640625
1.9263427734374998
1.8957275390625
1.828857421875
1.5509033203125
1.4268310546874998
1.3728515625
1.3398193359375
1.3349853515624999
1.32451171875
1.3382080078124998
1.340625
1.3462646484374998
1.368017578125
1.3921875
1.4066894531249998
1.4203857421875
1.4655029296875
1.3559326171875
1.21494140625
1.1770751953125
1.158544921875
1.155322265625
1.190771484375
1.27939453125
1.4066894531249998
1.5218994140625
1.6250244140624999
1.67578125
1.6967285156249998
1.7176757812499999
1.716064453125
1.7249267578124998
1.7055908203124999
1.6806152343749998
1.6645019531249998
1.6524169921874998
1.6306640625
1.5863525390625
1.7128417968749998
1.8973388671875
1.91748046875
1.9408447265625
1.941650390625
1.9037841796875
1.8296630859374998
1.6000488281249998
1.4300537109375
1.3639892578125
1.3365966796875
1.3285400390625
1.3212890625
1.3309570312499999
1.3559326171875
1.353515625
1.3736572265625
1.3913818359374999
1.4107177734374998
1.416357421875
1.4308593749999998
1.3672119140624999
1.224609375
1.1786865234375
1.1609619140625
1.1674072265625
1.1899658203124999
1.2383056640624999
1.3978271484375
1.5186767578125
1.6008544921874999
1.6588623046875
1.6878662109375
1.7128417968749998
1.7208984374999998
1.7168701171874998
1.7007568359374998
1.6943115234375
1.6588623046875
1.6540283203125
1.6314697265625
1.6250244140624999
1.6943115234375
1.8659179687499998
1.915869140625
1.9408447265625
1.9223144531249998
1.899755859375
1.82724609375
1.6081054687499998
1.4671142578124998
1.3833251953124999
1.3309570312499999
1.3269287109374999
1.3285400390625
1.3446533203125
1.348681640625
1.351904296875
1.3720458984375
1.380908203125
1.4010498046875
1.4171630859375
1.4308593749999998
1.445361328125
1.2624755859374999
1.1915771484375
1.16337890625
1.158544921875
1.1867431640625
1.2342773437499999
1.3390136718749999
1.4671142578124998
1.59521484375
1.6459716796875
1.6894775390624999
1.71123046875
1.7265380859375
1.7128417968749998
1.7007568359374998
1.6910888671875
1.6701416015625
1.6564453124999998
1.6306640625
1.6250244140624999
1.61455078125
1.8538330078124998
1.90458984375
1.928759765625
1.9343994140624998
1.9102294921874998
1.883642578125
1.7474853515625
1.4896728515625
1.3946044921874998
1.3559326171875
1.3317626953125
1.3341796874999998
1.3301513671874998
1.3261230468749998
1.3398193359375
1.3470703124999999
1.3801025390625
1.3962158203125
1.4115234374999999
1.4284423828125
1.4493896484375
1.27294921875
1.200439453125
1.1698242187499999
1.1577392578124999
1.1738525390624999
1.184326171875
1.3333740234375
1.4542236328125
1.5621826171875
1.651611328125
1.6798095703125
1.6991455078125
1.7152587890625
1.7080078125
1.7128417968749998
1.7015624999999999
1.6701416015625
1.6564453124999998
1.6395263671875
1.63388671875
1.5992431640625
1.7901855468749999
1.915869140625
1.9311767578124999
1.9424560546874998
1.9231201171874999
1.8973388671875
1.7233154296875
1.5323730468749999
1.3849365234375
1.348681640625
1.3220947265624998
1.332568359375
1.3285400390625
1.3398193359375
1.3478759765625
1.3631835937499999
1.377685546875
1.3897705078125
1.4123291015625
1.4437499999999999
1.4679199218749999
1.2979248046874998
1.1980224609374999
1.1794921875
1.1609619140625
1.1690185546875
1.200439453125
1.27939453125
1.4389160156249998
1.5573486328125
1.6266357421875
1.667724609375
1.6959228515625
1.7152587890625
1.7233154296875
1.7055908203124999
1.699951171875
1.69189453125
1.6653076171874999
1.6459716796875
1.63388671875
1.5766845703124999
1.767626953125
1.8900878906249998
1.9231201171874999
1.9352050781249999
1.9215087890625
1.8989501953124999
1.7587646484375
1.5476806640624998
1.4244140625
1.3664062499999998
1.32451171875
1.3301513671874998
1.3309570312499999
1.335791015625
1.3422363281249998
1.3551269531249999
1.3720458984375
1.3913818359374999
1.405078125
1.432470703125
1.4655029296875
1.368017578125
1.2181640624999999
1.174658203125
1.1577392578124999
1.16015625
1.2020507812499999
1.2785888671874999
1.3954101562499999
1.5186767578125
1.6161621093749998
1.6645019531249998
1.6886718749999998
1.7168701171874998
1.72412109375
1.7120361328125
1.6959228515625
1.6773925781249999
1.6564453124999998
1.6556396484375
1.62744140625
1.59521484375
1.69833984375
1.893310546875
1.9166748046875
1.9432617187499999
1.93681640625
1.8989501953124999
1.8473876953125
1.6379150390625
1.4397216796874999
1.36962890625
1.3390136718749999
1.32451171875
1.3237060546875
1.3237060546875
1.340625
1.3462646484374998
1.3688232421875
1.3849365234375
1.3929931640625
1.4147460937499998
1.4228027343749998
1.3728515625
1.24072265625
1.1835205078125
1.1666015625
1.1593505859375
1.184326171875
1.22783203125
1.3849365234375
1.5041748046874999
1.6000488281249998
1.66611328125
1.6910888671875
1.7088134765624998
1.7152587890625
1.71123046875
1.7128417968749998
1.687060546875
1.6645019531249998
1.6508056640625
1.6250244140624999
1.6024658203125
1.667724609375
1.85302734375
1.9231201171874999
1.93359375
1.9311767578124999
1.9062011718749998
1.8489990234375
1.638720703125
1.4719482421874999
1.368017578125
1.345458984375
1.3253173828125
1.3220947265624998
1.3430419921874999
1.345458984375
1.361572265625
1.3639892578125
1.3881591796875
1.4042724609375
1.413134765625
1.4268310546874998
1.4501953125
1.248779296875
1.1859374999999999
1.1690185546875
1.16015625
1.181103515625
1.219775390625
1.319677734375
1.4977294921875
1.6008544921874999
1.6564453124999998
1.6894775390624999
1.714453125
1.714453125
1.719287109375
1.6927001953124998
1.6886718749999998
1.6781982421875
1.6588623046875
1.6346923828125
1.6218017578125
1.603271484375
1.848193359375
1.9078125
1.928759765625
1.9215087890625
1.9070068359374999
1.88525390625
1.6685302734374998
1.493701171875
1.3929931640625
1.3494873046875
1.3365966796875
1.3253173828125
1.3317626953125
1.3349853515624999
1.3462646484374998
1.35673828125
1.3849365234375
1.3978271484375
1.409912109375
1.4195800781249999
1.456640625
1.284228515625
1.1915771484375
1.1666015625
1.1617675781249999
1.1666015625
1.2221923828124999
1.3349853515624999
1.4518066406249999
1.5597656249999998
1.6411376953124999
1.6806152343749998
1.6943115234375
1.7176757812499999
1.7217041015624999
1.7047851562499998
1.690283203125
1.670947265625
1.6572509765624999
1.6556396484375
1.6282470703124998
1.585546875
1.7781005859374999
1.9078125
1.92392578125
1.9360107421875
1.915869140625
1.8820312499999998
1.7764892578125
1.5605712890624999
1.4074951171874999
1.351904296875
1.329345703125
1.3269287109374999
1.33740234375
1.3446533203125
1.3430419921874999
1.3575439453125
1.364794921875
1.3857421875
1.4066894531249998
1.4187744140624998
1.4759765624999999
1.30517578125
1.203662109375
1.1698242187499999
1.15048828125
1.1674072265625
1.19560546875
1.27939453125
1.44052734375
1.5541259765625
1.6282470703124998
1.6781982421875
1.6951171875
1.7168701171874998
1.7257324218749999
1.7120361328125
1.7015624999999999
1.6878662109375
1.6612792968749999
1.6483886718749998
1.635498046875
1.5799072265624998
1.7579589843749999
1.883642578125
1.9247314453125
1.9303710937499998
1.9182861328124998
1.896533203125
1.7611816406249998
1.5404296874999999
1.42119140625
1.3527099609375
1.3269287109374999
1.3414306640625
1.3317626953125
1.335791015625
1.33740234375
1.364794921875
1.3792968749999999
1.3986328124999998
1.4091064453125
1.4276367187499999
1.461474609375
1.377685546875
1.2374999999999998
1.1778808593749999
1.1657958984374999
1.1657958984374999
1.190771484375
1.2560302734375
1.397021484375
1.542041015625
1.6201904296874998
1.66611328125
1.6943115234375
1.716064453125
1.7184814453125
1.7136474609374999
1.7007568359374998
1.6717529296875
1.6669189453125
1.6403320312499998
1.62744140625
1.5992431640625
1.6733642578124999
1.88525390625
1.92392578125
1.9384277343749998
1.928759765625
1.89169921875
1.8498046874999998
1.662890625
1.4445556640625
1.3752685546874999
1.3430419921874999
1.319677734375
1.3285400390625
1.3341796874999998
1.340625
1.353515625
1.3591552734374999
1.38896484375
1.4026611328124998
1.4203857421875
1.4195800781249999
1.3873535156249999
1.2399169921875
1.1835205078125
1.158544921875
1.1657958984374999
1.174658203125
1.2254150390625
1.384130859375
1.5057861328125
1.5807128906249999
1.662890625
1.69189453125
1.7120361328125
1.722509765625
1.7128417968749998
1.7096191406249999
1.683837890625
1.65966796875
1.6508056640625
1.6451660156249999
1.606494140625
1.658056640625
1.8498046874999998
1.925537109375
1.931982421875
1.92392578125
1.9062011718749998
1.8586669921874999
1.658056640625
1.49853515625
1.37607421875
1.3446533203125
1.32451171875
1.3301513671874998
1.332568359375
1.3422363281249998
1.3470703124999999
1.368017578125
1.3849365234375
1.409912109375
1.4147460937499998
1.4252197265625
1.456640625
1.287451171875
1.1851318359375
1.1657958984374999
1.1609619140625
1.1786865234375
1.213330078125
1.3341796874999998
1.4977294921875
1.5831298828125
1.651611328125
1.6846435546874998
1.7039794921875
1.7168701171874998
1.72412109375
1.7055908203124999
1.6967285156249998
1.67578125
1.6612792968749999
1.6427490234375
1.619384765625
1.5927978515624999
1.835302734375
1.90458984375
1.9231201171874999
1.9303710937499998
1.9005615234375
1.8941162109374998
1.7337890624999999
1.4880615234374999
1.3857421875
1.3462646484374998
1.3365966796875
1.33740234375
1.3309570312499999
1.3446533203125
1.3478759765625
1.3494873046875
1.3849365234375
1.40830078125
1.4139404296875
1.4203857421875
1.46953125
1.297119140625
1.1939941406249999
1.1706298828125
1.1537109374999999
1.1738525390624999
1.2076904296875
1.32451171875
1.4510009765624998
1.546875
1.6403320312499998
1.6814208984374999
1.6943115234375
1.7152587890625
1.7208984374999998
1.7088134765624998
1.6959228515625
1.6717529296875
1.6604736328124998
1.6411376953124999
1.625830078125
1.5807128906249999
1.7684326171875
1.9053955078125
1.9343994140624998
1.928759765625
1.9223144531249998
1.877197265625
1.770849609375
1.5766845703124999
1.405078125
1.3599609375
1.329345703125
1.329345703125
1.3317626953125
1.3317626953125
1.3390136718749999
1.353515625
1.3688232421875
1.3921875
1.4187744140624998
1.4252197265625
1.464697265625
1.3664062499999998
1.206884765625
1.1690185546875
1.16015625
1.1674072265625
1.1859374999999999
1.2737548828124998
1.3929931640625
1.55009765625
1.6209960937499999
1.6612792968749999
1.6959228515625
1.7096191406249999
1.719287109375
1.7072021484375
1.6975341796874999
1.6781982421875
1.65966796875
1.6411376953124999
1.62744140625
1.5887695312499999
1.764404296875
1.8884765625
1.9231201171874999
1.9400390625
1.9263427734374998
1.8860595703124998
1.8369140625
1.5662109375
1.4300537109375
1.3720458984375
1.327734375
1.3204833984375
1.3269287109374999
1.3341796874999998
1.332568359375
1.3583496093749998
1.3752685546874999
1.3962158203125
1.4155517578124999
1.4244140625
1.45341796875
1.3905761718749998
1.2286376953125
1.17626953125
1.16337890625
1.164990234375
1.1835205078125
1.2576416015624998
1.3865478515624998
1.5082031249999999
1.6290527343749999
1.66611328125
1.690283203125
1.7096191406249999
1.72734375
1.71123046875
1.7080078125
1.6830322265625
1.66611328125
1.6451660156249999
1.6282470703124998
1.5927978515624999
1.667724609375
1.861083984375
1.915869140625
1.9295654296875
1.9303710937499998
1.8973388671875
1.8393310546875
1.6266357421875
1.4373046875
1.3607666015625
1.3365966796875
1.3285400390625
1.3269287109374999
1.3390136718749999
1.3422363281249998
1.353515625
1.3752685546874999
1.3801025390625
1.4058837890625
1.4203857421875
1.4236083984374999
1.4574462890625
1.2374999999999998
1.1947998046875
1.17626953125
1.164990234375
1.18271484375
1.229443359375
1.3269287109374999
1.5017578125
1.5847412109374999
1.6475830078125
1.6951171875
1.703173828125
1.7168701171874998
1.7104248046875
1.7015624999999999
1.6846435546874998
1.674169921875
1.6443603515624998
1.63388671875
1.6234130859375
1.65966796875
1.844970703125
1.9134521484375
1.9360107421875
1.9303710937499998
1.909423828125
1.8844482421875
1.6733642578124999
1.4953124999999998
1.397021484375
1.3390136718749999
1.3261230468749998
1.3237060546875
1.3341796874999998
1.3390136718749999
1.348681640625
1.3559326171875
1.3744628906249998
1.3994384765624999
1.41796875
1.4284423828125
1.4598632812499999
1.2955078125
1.181103515625
1.1770751953125
1.1593505859375
1.171435546875
1.2205810546875
1.3220947265624998
1.448583984375
1.5879638671874998
1.64677734375
1.67900390625
1.7039794921875
1.7184814453125
1.7120361328125
1.706396484375
1.6878662109375
1.674169921875
1.654833984375
1.6395263671875
1.6218017578125
1.590380859375
1.7716552734375
1.9134521484375
1.9279541015625
1.9384277343749998
1.9062011718749998
1.8820312499999998
1.7410400390624998
1.4945068359375
1.4026611328124998
1.351904296875
1.3269287109374999
1.332568359375
1.332568359375
1.3470703124999999
1.351904296875
1.3744628906249998
1.3825195312499998
1.40185546875
1.4139404296875
1.4284423828125
1.4638916015624999
1.3027587890624999
1.20849609375
1.1778808593749999
1.155322265625
1.1770751953125
1.19560546875
1.316455078125
1.442138671875
1.5484863281249999
1.619384765625
1.6822265625
1.7007568359374998
1.7104248046875
1.714453125
1.7096191406249999
1.7023681640625
1.6846435546874998
1.6556396484375
1.641943359375
1.6218017578125
1.5782958984375
1.7619873046874999
1.883642578125
1.9215087890625
1.93681640625
1.9223144531249998
1.8828369140624999
1.7611816406249998
1.5573486328125
1.4284423828125
1.3510986328124999
1.3390136718749999
1.3261230468749998
1.3301513671874998
1.33740234375
1.340625
1.3607666015625
1.377685546875
1.3946044921874998
1.40185546875
1.4203857421875
1.4598632812499999
1.3752685546874999
1.21171875
1.1786865234375
1.171435546875
1.17626953125
1.197216796875
1.2769775390625
1.384130859375
1.5444580078124999
1.6177734375
1.6693359374999999
1.6959228515625
1.7184814453125
1.7184814453125
1.7176757812499999
1.6951171875
1.6765869140624998
1.6645019531249998
1.6435546875
1.6282470703124998
1.5976318359375
1.7466796875
1.8788085937499999
1.9215087890625
1.9303710937499998
1.92392578125
1.89169921875
1.8489990234375
1.5895751953125
1.445361328125
1.37607421875
1.3422363281249998
1.335791015625
1.319677734375
1.3261230468749998
1.34384765625
1.3478759765625
1.3583496093749998
1.3865478515624998
1.3905761718749998
1.4228027343749998
1.456640625
1.397021484375
1.232666015625
1.1690185546875
1.148876953125
1.16337890625
1.1867431640625
1.27294921875
1.3978271484375
1.5057861328125
1.5380126953125
1.6717529296875
1.6951171875
1.7096191406249999
1.7096191406249999
1.7039794921875
1.699951171875
1.6894775390624999
1.6773925781249999
1.6508056640625
1.6266357421875
1.5919921874999998
1.6475830078125
1.8441650390625
1.9142578124999998
1.9271484374999999
1.93359375
1.9037841796875
1.8731689453125
1.6508056640625
1.52109375
1.3664062499999998
1.3382080078124998
1.3309570312499999
1.332568359375
1.3341796874999998
1.3341796874999998
1.33740234375
1.3527099609375
1.37607421875
1.4010498046875
1.4316650390624999
1.4373046875
1.4630859374999998
1.2503906249999999
1.198828125
1.174658203125
1.168212890625
1.1915771484375
1.2173583984375
1.3253173828125
1.493701171875
1.5839355468749998
1.6435546875
1.6951171875
1.71123046875
1.7337890624999999
1.7152587890625
1.7039794921875
1.6910888671875
1.6717529296875
1.6491943359374999
1.6290527343749999
1.6209960937499999
1.638720703125
1.8369140625
1.90458984375
1.9327880859375
1.9352050781249999
1.9150634765624999
1.89169921875
1.6669189453125
1.490478515625
1.3986328124999998
1.3430419921874999
1.3333740234375
1.340625
1.3341796874999998
1.3422363281249998
1.3390136718749999
1.3341796874999998
1.3712402343749999
1.3946044921874998
1.40830078125
1.4429443359374998
1.474365234375
1.3059814453124998
1.203662109375
1.16337890625
1.1561279296875
1.1690185546875
1.224609375
1.3261230468749998
1.4445556640625
1.5662109375
1.619384765625
1.6701416015625
1.7015624999999999
1.7265380859375
1.7337890624999999
1.7168701171874998
1.690283203125
1.6604736328124998
1.6443603515624998
1.63388671875
1.625830078125
1.574267578125
1.7603759765625
1.8908935546874999
1.9086181640625
1.928759765625
1.920703125
1.8892822265625
1.791796875
1.5283447265624999
1.4147460937499998
1.35673828125
1.33740234375
1.3212890625
1.327734375
1.3398193359375
1.353515625
1.3591552734374999
1.368017578125
1.4026611328124998
1.40830078125
1.4445556640625
1.4606689453125
1.332568359375
1.2221923828124999
1.1947998046875
1.1577392578124999
1.1674072265625
1.2125244140625
1.33740234375
1.4437499999999999
1.53076171875
1.593603515625
1.6371093749999999
1.6693359374999999
1.6991455078125
1.714453125
1.7418457031249999
1.7217041015624999
1.6830322265625
1.6717529296875
1.6572509765624999
1.62744140625
1.5831298828125
1.75634765625
1.8828369140624999
1.9110351562499999
1.9166748046875
1.91748046875
1.896533203125
1.7660156249999999
1.5460693359375
1.416357421875
1.3801025390625
1.3752685546874999
1.3446533203125
1.3349853515624999
1.3382080078124998
1.332568359375
1.3631835937499999
1.3954101562499999
1.4171630859375
1.4058837890625
1.3913818359374999
1.4413330078125
1.4066894531249998
1.2479736328125
1.21171875
1.184326171875
1.1851318359375
1.216552734375
1.2818115234374998
1.40185546875
1.5565429687499999
1.641943359375
1.6798095703125
1.7120361328125
1.7281494140625
1.7345947265625
1.7265380859375
1.7337890624999999
1.6991455078125
1.67578125
1.6346923828125
1.6346923828125
1.6056884765625
1.740234375
1.8884765625
1.92392578125
1.9247314453125
1.9078125
1.8755859375
1.8328857421875
1.5573486328125
1.44052734375
1.3801025390625
1.33740234375
1.3398193359375
1.3349853515624999
1.3422363281249998
1.353515625
1.3575439453125
1.3849365234375
1.4107177734374998
1.426025390625
1.4236083984374999
1.429248046875
1.4026611328124998
1.2455566406249998
1.19560546875
1.1666015625
1.1609619140625
1.164990234375
1.2495849609374998
1.3817138671875
1.5154541015624998
1.59521484375
1.651611328125
1.6749755859375
1.703173828125
1.7152587890625
1.69189453125
1.6967285156249998
1.6878662109375
1.6765869140624998
1.6524169921874998
1.635498046875
1.60166015625
1.641943359375
1.844970703125
1.9134521484375
1.931982421875
1.9182861328124998
1.8925048828125
1.8707519531249999
1.6572509765624999
1.4880615234374999
1.3728515625
1.348681640625
1.327734375
1.3229003906249999
1.329345703125
1.34384765625
1.35673828125
1.3688232421875
1.3849365234375
1.3994384765624999
1.409912109375
1.4155517578124999
1.4687255859375
1.239111328125
1.1738525390624999
1.171435546875
1.171435546875
1.2052734375
1.229443359375
1.3220947265624998
1.4928955078125
1.6008544921874999
1.6564453124999998
1.6604736328124998
1.674169921875
1.6572509765624999
1.6298583984375
1.7362060546875
1.7200927734375
1.6765869140624998
1.641943359375
1.6371093749999999
1.6153564453125
1.6056884765625
1.8119384765625
1.8957275390625
1.925537109375
1.9376220703125
1.912646484375
1.912646484375
1.6556396484375
1.4800048828124999
1.3954101562499999
1.3527099609375
1.33740234375
1.335791015625
1.329345703125
1.3414306640625
1.3494873046875
1.3664062499999998
1.3784912109374998
1.40185546875
1.4244140625
1.4389160156249998
1.4848388671875
1.3027587890624999
1.200439453125
1.1899658203124999
1.1545166015625
1.1512939453125
1.1786865234375
1.2979248046874998
1.4236083984374999
1.5807128906249999
1.6314697265625
1.67900390625
1.7055908203124999
1.714453125
1.7039794921875
1.6967285156249998
1.6854492187499999
1.67578125
1.6556396484375
1.635498046875
1.6242187499999998
1.577490234375
1.7724609375
1.9110351562499999
1.9311767578124999
1.93359375
1.899755859375
1.85625
1.77890625
1.5017578125
1.4091064453125
1.345458984375
1.3188720703124999
1.3309570312499999
1.3382080078124998
1.3510986328124999
1.3599609375
1.3623779296874998
1.361572265625
1.377685546875
1.3921875
1.4203857421875
1.4759765624999999
1.3575439453125
1.219775390625
1.168212890625
1.1641845703125
1.1867431640625
1.1980224609374999
1.2914794921875
1.445361328125
1.5492919921875
1.6475830078125
1.6435546875
1.6330810546874999
1.6572509765624999
1.67900390625
1.674169921875
1.65966796875
1.6765869140624998
1.6894775390624999
1.6806152343749998
1.6266357421875
1.538818359375
1.7523193359375
1.893310546875
1.9190917968749999
1.9247314453125
1.92392578125
1.9150634765624999
1.8014648437499998
1.56943359375
1.409912109375
1.353515625
1.3269287109374999
1.3237060546875
1.327734375
1.3317626953125
1.3414306640625
1.3583496093749998
1.361572265625
1.3873535156249999
1.4139404296875
1.4139404296875
1.4558349609374999
1.3978271484375
1.213330078125
1.1859374999999999
1.1657958984374999
1.1617675781249999
1.1802978515625
1.2286376953125
1.3478759765625
1.5186767578125
1.6346923828125
1.6822265625
1.6878662109375
1.7080078125
1.7047851562499998
2.7529541015624996
3.0252685546875
2.0230224609375
1.7474853515625
1.7080078125
1.6322753906249998
1.571044921875
1.6290527343749999
1.7595703125
1.79501953125
1.8304687499999999
1.8095214843749998
1.8062988281249999
1.8175781249999998
1.46630859375
1.329345703125
1.2753662109375
1.281005859375
1.2898681640624998
1.2737548828124998
1.2955078125
1.3011474609375
1.2947021484374999
1.3309570312499999
1.3736572265625
1.4187744140624998
1.3986328124999998
1.3962158203125
1.380908203125
1.16337890625
1.1214843749999999
1.0948974609375
1.1295410156249999
1.147265625
1.203662109375
1.329345703125
1.4671142578124998
1.609716796875
1.6701416015625
1.6894775390624999
1.6959228515625
1.71123046875
1.7015624999999999
1.6814208984374999
1.670947265625
1.65966796875
1.6322753906249998
1.6169677734374999
1.5919921874999998
1.5944091796875
1.861083984375
1.91748046875
1.928759765625
1.9440673828125
1.9215087890625
1.9231201171874999
1.6910888671875
1.4445556640625
1.3543212890624998
1.3180664062499998
1.3180664062499998
1.3285400390625
1.3100097656249998
1.2979248046874998
1.3188720703124999
1.319677734375
1.361572265625
1.409912109375
1.4356933593749999
1.44052734375
1.545263671875
1.224609375
1.164990234375
1.1609619140625
1.1384033203125
1.164990234375
1.203662109375
1.3285400390625
1.4840332031249999
1.577490234375
1.6403320312499998
1.6806152343749998
1.7023681640625
1.7217041015624999
1.7152587890625
1.6967285156249998
1.6967285156249998
1.674169921875
1.6443603515624998
1.6363037109374998
1.6346923828125
1.5807128906249999
1.864306640625
1.944873046875
1.9432617187499999
1.9424560546874998
1.9247314453125
1.9464843749999998
1.67578125
1.4896728515625
1.38896484375
1.3285400390625
1.3204833984375
1.319677734375
1.3398193359375
1.3720458984375
1.393798828125
1.3688232421875
1.3599609375
1.353515625
1.348681640625
1.3913818359374999
1.5517089843749998
1.313232421875
1.1698242187499999
1.1609619140625
1.1367919921875
1.1384033203125
1.17626953125
1.313232421875
1.4348876953124998
1.5726562499999999
1.6508056640625
1.690283203125
1.7128417968749998
1.73056640625
1.73056640625
1.740234375
1.7120361328125
1.670947265625
1.6540283203125
1.641943359375
1.625830078125
1.5041748046874999
1.8949218749999999
1.998046875
1.98193359375
1.957763671875
1.8820312499999998
1.877197265625
1.751513671875
1.4687255859375
1.3921875
1.364794921875
1.3092041015625
1.3349853515624999
1.327734375
1.335791015625
1.3365966796875
1.3527099609375
1.3897705078125
1.3913818359374999
1.3865478515624998
1.3994384765624999
1.5315673828124998
1.3156494140625
1.181103515625
1.1239013671875
1.071533203125
1.11826171875
1.1617675781249999
1.2656982421874998
1.405078125
1.5436523437499998
1.651611328125
1.706396484375
1.7265380859375
1.738623046875
1.6991455078125
1.6967285156249998
1.6669189453125
1.674169921875
1.654833984375
1.6242187499999998
1.5919921874999998
1.426025390625
1.767626953125
1.957763671875
1.9730712890625
1.9996582031249999
2.0181884765625
1.9891845703125
1.9231201171874999
1.538818359375
1.3712402343749999
1.2979248046874998
1.29228515625
1.3212890625
1.353515625
1.3736572265625
1.3825195312499998
1.4123291015625
1.3913818359374999
1.4276367187499999
1.4622802734375
1.46953125
1.5114257812499998
1.5041748046874999
1.222998046875
1.2270263671875
1.1819091796874999
1.1617675781249999
1.1980224609374999
1.3156494140625
1.442138671875
1.6089111328124999
1.6725585937499998
1.716064453125
1.7442626953125
1.7684326171875
1.76279296875
1.7265380859375
1.7329833984374998
1.7023681640625
1.6685302734374998
1.6298583984375
1.6048828124999999
1.5525146484374999
1.7208984374999998
1.9013671875
1.8747802734374999
1.8925048828125
1.8498046874999998
1.8312744140625
1.8820312499999998
1.4816162109375
1.3792968749999999
1.345458984375
1.3382080078124998
1.345458984375
1.3510986328124999
1.3551269531249999
1.368017578125
1.3865478515624998
1.3929931640625
1.4228027343749998
1.4187744140624998
1.4397216796874999
1.4711425781249998
1.5275390624999998
1.284228515625
1.264892578125
1.2640869140625
1.2536132812499998
1.2785888671874999
1.29228515625
1.3978271484375
1.493701171875
1.593603515625
1.6298583984375
1.63388671875
1.6604736328124998
1.65
1.6322753906249998
1.63388671875
1.6218017578125
1.6282470703124998
1.6081054687499998
1.619384765625
1.5847412109374999
1.4783935546875
1.76279296875
1.7635986328125
1.7652099609374998
1.7982421874999999
1.8111328125
1.85625
1.5976318359375
1.44052734375
1.4598632812499999
1.4397216796874999
1.4058837890625
1.368017578125
1.3559326171875
1.3631835937499999
1.3929931640625
1.3865478515624998
1.4066894531249998
1.4461669921875
1.4558349609374999
1.4864501953125
1.6862548828125
1.3575439453125
1.33740234375
1.2955078125
1.2818115234374998
1.29228515625
1.276171875
1.3664062499999998
1.509814453125
1.5621826171875
1.6000488281249998
1.6218017578125
1.62744140625
1.64677734375
1.6508056640625
1.6427490234375
1.611328125
1.5944091796875
1.59521484375
1.59521484375
1.5799072265624998
1.4735595703125
1.748291015625
1.740234375
1.72734375
1.7587646484375
1.7466796875
1.7700439453124999
1.6564453124999998
1.4888671875
1.456640625
1.445361328125
1.445361328125
1.4252197265625
1.4187744140624998
1.4300537109375
1.4437499999999999
1.4687255859375
1.442138671875
1.4252197265625
1.4252197265625
1.4397216796874999
1.6089111328124999
1.3744628906249998
1.3688232421875
1.3607666015625
1.313232421875
1.332568359375
1.2995361328125
1.4034667968749999
1.4888671875
1.5605712890624999
1.5839355468749998
1.590380859375
1.5791015625
1.62744140625
1.5734619140625
1.5678222656249998
1.6773925781249999
1.6379150390625
1.6524169921874998
1.5960205078124998
1.5621826171875
0.022558593749999998
0.8950927734374999
1.9062011718749998
2.3581787109375
2.582958984375
2.44921875
3.02607421875
3.0236572265625
1.7120361328125
0.8427246093749999
0.34562988281249996
0.3552978515625
0.7412109375
1.0562255859375
1.3559326171875
1.8377197265624998
1.7958251953125
1.6935058593749999
1.5605712890624999
1.432470703125
1.36962890625
2.892333984375
3.0244628906249997
2.2429687499999997
1.6153564453125
0.75087890625
0.18852539062499998
0.0249755859375
0.0281982421875
0.2900390625
0.961962890625
1.687060546875
2.43955078125
2.553955078125
2.6296874999999997
2.1342041015624997
2.1712646484375
1.8022705078124999
1.6201904296874998
1.3873535156249999
1.284228515625
1.2882568359375
0.019335937499999997
0.020947265625
0.845947265625
1.909423828125
2.59423828125
3.0236572265625
3.0220458984375
3.0284912109374997
2.6885009765624996
1.6765869140624998
0.39799804687499996
0.023364257812499997
0.017724609375
0.1538818359375
0.6574218749999999
1.0787841796875
1.3946044921874998
1.65966796875
1.8957275390625
1.9706542968749998
1.8941162109374998
2.2751953124999997
3.02607421875
2.7610107421874996
1.9352050781249999
1.271337890625
0.59619140625
0.018530273437499998
0.022558593749999998
0.020947265625
0.2876220703125
1.1512939453125
1.7337890624999999
2.2647216796875
2.6876953125
2.900390625
2.721533203125
2.7223388671874997
2.47822265625
2.1599853515625
1.812744140625
1.3349853515624999
0.833056640625
0.018530273437499998
0.42216796874999996
1.0239990234375
1.670947265625
2.682861328125
3.0252685546875
3.0252685546875
3.0268798828124996
2.3396484374999997
1.43408203125
0.6018310546875
0.022558593749999998
0.0217529296875
0.030615234374999998
0.530126953125
0.7242919921875
0.9933837890624999
1.345458984375
1.72734375
1.9617919921875
1.9714599609374999
3.0220458984375
3.0228515624999996
2.4846679687499997
1.6653076171874999
0.9402099609375
0.116015625
0.020947265625
0.0217529296875
0.0217529296875
0.549462890625
1.2221923828124999
2.02060546875
2.41376953125
2.7964599609375
2.9970703125
2.9841796874999997
2.9277832031249997
2.5386474609375
2.209130859375
1.7877685546875
1.332568359375
0.017724609375
0.02900390625
0.491455078125
1.2624755859374999
1.998046875
2.70703125
3.0236572265625
3.0228515624999996
3.0236572265625
2.118896484375
1.0465576171875
0.39638671875
0.018530273437499998
0.0217529296875
0.020947265625
0.3424072265625
0.526904296875
0.93779296875
1.297119140625
1.5758789062499998
1.796630859375
3.0244628906249997
3.0236572265625
2.8528564453125
2.425048828125
1.76279296875
0.9998291015624999
0.0201416015625
0.0217529296875
0.020947265625
0.25217285156249997
0.7500732421874999
1.2850341796875
1.7249267578124998
2.4725830078124997
2.76826171875
2.9801513671874997
3.0244628906249997
2.92939453125
2.715087890625
2.32998046875
1.9400390625
0.0201416015625
0.0217529296875
0.104736328125
0.4447265625
1.0489746093749999
2.0761962890625
3.0244628906249997
3.0236572265625
3.02607421875
2.731201171875
1.98837890625
1.335791015625
0.62197265625
0.240087890625
0.017724609375
0.0475341796875
0.024169921875
0.20061035156249998
0.46245117187499996
0.8499755859375
1.2052734375
2.673193359375
3.0236572265625
3.0220458984375
2.8955566406249997
2.2880859375
1.6000488281249998
0.588134765625
0.024169921875
0.0217529296875
0.0217529296875
0.2570068359375
0.897509765625
1.3333740234375
1.88525390625
2.42666015625
2.8818603515624996
3.027685546875
3.0236572265625
2.924560546875
2.7239501953125
2.4709716796875
0.07009277343749999
0.023364257812499997
0.0217529296875
0.1812744140625
0.7637695312499999
1.4711425781249998
2.341259765625
3.0268798828124996
3.0228515624999996
3.02607421875
2.657080078125
1.7877685546875
1.2415283203124998
0.742822265625
0.2263916015625
0.133740234375
0.0281982421875
0.0829833984375
0.2183349609375
0.49064941406249996
0.8096923828125
1.7772949218749998
3.0204345703124997
3.0244628906249997
3.0228515624999996
2.6401611328124996
2.07216796875
1.3309570312499999
0.0217529296875
0.022558593749999998
0.020947265625
0.1957763671875
0.5446289062499999
1.0368896484374999
1.5218994140625
2.2260498046875
2.45888671875
2.8770263671875
3.0228515624999996
3.0236572265625
2.9092529296875
2.63291015625
1.8900878906249998
0.020947265625
0.023364257812499997
0.0749267578125
0.439892578125
1.0207763671874999
2.1946289062499997
3.0228515624999996
3.0244628906249997
3.0236572265625
2.7239501953125
2.167236328125
1.5863525390625
0.9812988281249999
0.5760498046875
0.230419921875
0.07734374999999999
0.1087646484375
0.1329345703125
0.28359375
0.6243896484375
0.8934814453125
3.029296875
3.0204345703124997
3.0236572265625
3.0107666015624996
2.325146484375
1.5815185546875
0.169189453125
0.022558593749999998
0.022558593749999998
0.0201416015625
0.2811767578125
0.8161376953124999
1.2318603515625
1.7104248046875
2.3638183593749997
2.7626220703124997
3.0228515624999996
3.0284912109374997
3.0244628906249997
2.8576904296874996
2.57490234375
0.023364257812499997
0.02578125
0.02578125
0.1232666015625
0.85400390625
1.554931640625
3.0252685546875
3.0268798828124996
3.02607421875
3.0244628906249997
2.5998779296874996
1.909423828125
1.490478515625
1.1529052734375
0.4229736328125
0.42216796874999996
0.1409912109375
0.09829101562499999
0.17241210937499998
0.372216796875
0.572021484375
3.02607421875
3.02607421875
3.02607421875
3.0252685546875
2.6039062499999996
2.0496093749999997
0.7774658203125
0.02578125
0.022558593749999998
0.0217529296875
0.0829833984375
0.488232421875
0.8338623046875
1.3825195312499998
2.099560546875
2.3662353515625
2.7368408203124996
3.02607421875
3.029296875
3.0252685546875
2.8552734374999997
0.45842285156249996
0.0064453125
0.017724609375
0.022558593749999998
0.3843017578125
0.9812988281249999
3.0244628906249997
3.02607421875
3.027685546875
3.0236572265625
2.7803466796875
2.2993652343749997
1.88525390625
1.3317626953125
0.871728515625
0.533349609375
0.3875244140625
0.2892333984375
0.23122558593749998
0.29245605468749997
0.4197509765625
2.04638671875
3.0228515624999996
3.02607421875
3.0244628906249997
2.9076416015624997
2.27197265625
1.319677734375
0.02578125
0.018530273437499998
0.024169921875
0.022558593749999998
0.15146484375
0.44150390624999997
0.9498779296875
1.5073974609374998
1.89169921875
2.43310546875
2.7988769531249997
3.0204345703124997
3.0252685546875
3.0284912109374997
1.4236083984374999
0.027392578124999997
0.020947265625
0.0217529296875
0.259423828125
0.9240966796875
1.8183837890624999
3.0228515624999996
3.02607421875
3.0244628906249997
3.0252685546875
2.502392578125
2.1599853515625
1.7813232421874998
1.4316650390624999
0.9563232421875
0.623583984375
0.472119140625
0.29648437499999997
0.30937499999999996
0.281982421875
1.4203857421875
3.027685546875
3.02607421875
3.027685546875
2.969677734375
2.5265625
1.85302734375
0.01611328125
0.018530273437499998
0.022558593749999998
0.0217529296875
0.023364257812499997
0.3158203125
0.6509765624999999
1.2721435546875
1.606494140625
2.1809326171875
2.5313964843749996
2.8681640625
3.0228515624999996
3.02607421875
2.0214111328124997
0.020947265625
0.022558593749999998
0.024169921875
0.175634765625
0.4890380859375
1.2181640624999999
3.0252685546875
3.0236572265625
3.0244628906249997
3.0220458984375
2.808544921875
2.4306884765625
2.047998046875
1.7297607421874999
1.2955078125
0.9716308593749999
0.581689453125
0.39316406249999997
0.2731201171875
0.24492187499999998
0.31662597656249997
2.8447998046875
3.0204345703124997
3.0236572265625
3.0244628906249997
2.7303955078124997
1.8280517578125
0.420556640625
0.0217529296875
0.026586914062499998
0.024169921875
0.0201416015625
0.25458984375
0.6034423828125
1.0119140625
1.6564453124999998
1.92392578125
2.3823486328125
2.663525390625
2.9100585937499996
3.0252685546875
2.9970703125
0.4278076171875
0.018530273437499998
0.022558593749999998
0.020947265625
0.4358642578125
1.190771484375
3.027685546875
3.0228515624999996
3.0244628906249997
3.0252685546875
2.882666015625
2.383154296875
2.077001953125
1.72734375
1.66611328125
0.90556640625
0.66064453125
0.4954833984375
0.34160156249999996
0.343212890625
0.37785644531249996
2.7497314453125
3.0317138671875
3.0236572265625
3.0252685546875
2.7529541015624996
2.2751953124999997
1.197216796875
0.027392578124999997
0.0249755859375
0.0217529296875
0.0217529296875
0.14018554687499998
0.3843017578125
0.8757568359375
1.5621826171875
1.7531249999999998
2.196240234375
2.566845703125
2.9124755859375
3.0244628906249997
3.0236572265625
0.630029296875
0.020947265625
0.022558593749999998
0.023364257812499997
0.3053466796875
0.8886474609374999
1.7821289062499999
3.0236572265625
3.0268798828124996
3.0284912109374997
3.0236572265625
2.7465087890624997
2.4943359375
2.1245361328125
1.72412109375
1.2608642578125
0.9345703125
0.6002197265625
0.407666015625
0.2989013671875
0.2586181640625
1.8393310546875
2.9181152343749996
3.0244628906249997
3.0244628906249997
2.9906249999999996
2.4677490234375
0.9982177734375
0.026586914062499998
0.018530273437499998
0.022558593749999998
0.018530273437499998
0.0217529296875
0.2255859375
0.69609375
1.29228515625
1.5678222656249998
2.0665283203125
2.4129638671875
2.6522460937499996
2.872998046875
3.005126953125
1.2447509765625
0.0217529296875
0.0249755859375
0.022558593749999998
0.149853515625
0.813720703125
1.6040771484374998
3.0268798828124996
3.0244628906249997
3.0236572265625
3.0252685546875
2.8536621093749996
2.3662353515625
1.9907958984374998
1.654833984375
1.1271240234375
0.9144287109375
0.6195556640625
0.38349609375
0.327099609375
0.31743164062499996
0.38188476562499996
3.0220458984375
3.0268798828124996
3.0317138671875
3.0252685546875
2.52978515625
1.7652099609374998
0.2827880859375
0.022558593749999998
0.023364257812499997
0.022558593749999998
0.0217529296875
0.22880859374999998
0.515625
0.91201171875
1.458251953125
1.8820312499999998
2.3259521484375
2.747314453125
2.940673828125
3.0228515624999996
3.021240234375
0.02578125
0.022558593749999998
0.017724609375
0.153076171875
0.5986083984375
1.3059814453124998
3.0268798828124996
3.0244628906249997
3.0236572265625
3.0252685546875
2.8351318359374997
2.53623046875
2.24619140625
1.754736328125
1.4719482421874999
1.1512939453125
0.8185546874999999
0.549462890625
0.4326416015625
0.3673828125
0.32065429687499997
2.89716796875
3.02607421875
3.0284912109374997
3.0236572265625
2.70380859375
2.1696533203125
0.38913574218749997
0.0217529296875
0.0201416015625
0.023364257812499997
0.022558593749999998
0.0958740234375
0.27231445312499997
0.8580322265625
1.327734375
1.603271484375
2.1374267578125
2.4371337890625
2.7690673828124996
2.9390625
3.0228515624999996
0.33193359375
0.0217529296875
0.020947265625
0.022558593749999998
0.436669921875
1.2584472656249999
3.027685546875
3.0228515624999996
3.0220458984375
3.0244628906249997
3.02607421875
2.70703125
2.305810546875
2.0343017578125
1.9795166015624999
1.239111328125
0.816943359375
0.5599365234375
0.394775390625
0.298095703125
0.2634521484375
2.0375244140624997
3.0228515624999996
3.0244628906249997
3.0228515624999996
2.7690673828124996
2.3050048828125
0.8668945312499999
0.022558593749999998
0.022558593749999998
0.022558593749999998
0.02578125
0.0845947265625
0.22880859374999998
0.604248046875
1.3478759765625
1.4920898437499999
1.9835449218749999
2.3372314453125
2.727978515625
2.8617187499999996
2.969677734375
0.54140625
0.020947265625
0.0217529296875
0.022558593749999998
0.3544921875
0.9095947265625
1.8232177734375
3.021240234375
3.0236572265625
3.02607421875
3.0220458984375
2.7561767578125
2.5064208984375
2.118896484375
1.8659179687499998
1.316455078125
0.9547119140625
0.6550048828124999
0.4809814453125
0.40927734374999997
0.359326171875
2.0254394531249997
3.0244628906249997
3.0244628906249997
3.0236572265625
2.9455078125
2.4629150390625
1.2012451171875
0.0201416015625
0.023364257812499997
0.024169921875
0.022558593749999998
0.024169921875
0.143408203125
0.597802734375
1.235888671875
1.533984375
1.94970703125
2.3565673828125
2.6240478515624996
2.9100585937499996
3.0228515624999996
1.13115234375
0.0217529296875
0.0249755859375
0.024169921875
0.19497070312499998
0.78310546875
1.654833984375
3.0244628906249997
3.0244628906249997
3.0244628906249997
3.0252685546875
2.9140869140624996
2.6047119140625
2.238134765625
1.9489013671875
1.4107177734374998
1.1625732421875
0.8346679687499999
0.5244873046874999
0.33837890625
0.2908447265625
0.2255859375
2.9269775390625
3.0228515624999996
3.0252685546875
3.027685546875
2.4951416015624996
1.8062988281249999
0.33837890625
0.02578125
0.022558593749999998
0.024169921875
0.020947265625
0.143408203125
0.404443359375
0.7822998046874999
1.3631835937499999
1.7410400390624998
2.1197021484375
2.4935302734375
2.747314453125
2.8866943359375
1.477587890625
0.022558593749999998
0.0217529296875
0.020947265625
0.16274414062499998
0.4833984375
1.24072265625
3.02607421875
3.0244628906249997
3.0236572265625
3.021240234375
2.9261718749999996
2.5974609374999997
2.3904052734375
1.95615234375
1.7394287109375
1.4244140625
0.9579345703125
0.7259033203124999
0.4833984375
0.399609375
0.3158203125
2.892333984375
3.0252685546875
3.0268798828124996
3.0236572265625
2.7626220703124997
1.8876708984375
0.439892578125
0.023364257812499997
0.019335937499999997
0.0217529296875
0.023364257812499997
0.059619140625
0.32145996093749996
0.6509765624999999
1.1778808593749999
1.6959228515625
2.047998046875
2.40087890625
2.6876953125
2.9656494140625
2.9745117187499996
0.29970703125
0.0217529296875
0.017724609375
0.017724609375
0.5470458984375
1.2399169921875
3.0244628906249997
3.0244628906249997
3.0220458984375
3.0204345703124997
3.018017578125
2.6627197265625
2.4121582031249997
2.0923095703125
2.0004638671875
1.2262207031249999
0.9531005859374999
0.7379882812499999
0.5220703125
0.46245117187499996
0.423779296875
2.8641357421875
3.0236572265625
3.02607421875
3.0236572265625
2.7094482421875
2.230078125
0.8910644531249999
0.019335937499999997
0.023364257812499997
0.0169189453125
0.020947265625
0.0281982421875
0.17644042968749998
0.555908203125
1.2044677734375
1.3873535156249999
1.815966796875
2.3082275390625
2.608740234375
2.8133789062499996
3.003515625
0.44794921875
0.019335937499999997
0.019335937499999997
0.023364257812499997
0.43022460937499996
0.8805908203124999
2.1374267578125
3.0204345703124997
3.0244628906249997
3.018017578125
3.02607421875
2.8230468749999997
2.5934326171874997
2.280029296875
2.2349121093749997
1.5573486328125
1.2270263671875
0.8628662109374999
0.6308349609374999
0.443115234375
0.31904296875
1.996435546875
3.0244628906249997
3.0244628906249997
3.01962890625
2.9028076171875
2.431494140625
0.9490722656249999
0.02578125
0.020947265625
0.018530273437499998
0.0249755859375
0.022558593749999998
0.059619140625
0.4970947265625
0.9369873046874999
1.3688232421875
1.8385253906249999
2.1599853515625
2.384765625
2.6804443359374996
2.8029052734374997
0.9643798828125
0.020947265625
0.0249755859375
0.023364257812499997
0.22316894531249998
0.9369873046874999
1.7853515624999998
3.0244628906249997
3.0236572265625
3.0228515624999996
3.0236572265625
2.9970703125
2.6675537109375
2.334814453125
2.0560546875
1.5090087890625
1.2455566406249998
0.98291015625
0.6735351562499999
0.43828124999999996
0.4068603515625
0.32548828124999996
2.9906249999999996
3.029296875
3.0268798828124996
3.0228515624999996
2.534619140625
1.8248291015625
0.018530273437499998
0.023364257812499997
0.01611328125
0.023364257812499997
0.022558593749999998
0.103125
0.3150146484375
0.8016357421875
1.2834228515625
1.6532226562499999
2.012548828125
2.4290771484375
2.6804443359374996
2.8496337890624996
1.2374999999999998
0.022558593749999998
0.0217529296875
0.024169921875
0.165966796875
0.5180419921875
1.2374999999999998
3.021240234375
3.0220458984375
3.0228515624999996
3.0228515624999996
2.900390625
2.727978515625
2.434716796875
2.0616943359374997
1.8506103515624999
1.368017578125
1.0304443359375
0.8370849609375
0.6195556640625
0.43505859375
0.3601318359375
2.9181152343749996
3.0309082031249996
3.0220458984375
3.0252685546875
2.785986328125
1.920703125
0.37705078124999997
0.0169189453125
0.020947265625
0.024169921875
0.022558593749999998
0.0217529296875
0.29648437499999997
0.597802734375
1.1029541015625
1.276171875
1.8651123046875
2.2244384765625
2.5394531249999996
2.7908203124999997
2.8883056640625
0.1426025390625
0.020947265625
0.0249755859375
0.0201416015625
0.4358642578125
1.219775390625
3.0244628906249997
3.018017578125
3.0228515624999996
3.021240234375
3.0228515624999996
2.7344238281249997
2.534619140625
2.3468994140625
2.27197265625
1.61455078125
1.2093017578125
0.926513671875
0.572021484375
0.43828124999999996
0.330322265625
2.763427734375
2.9833740234375
3.0244628906249997
3.02607421875
2.7996826171875
2.309033203125
0.8314453125
0.026586914062499998
0.026586914062499998
0.022558593749999998
0.023364257812499997
0.020947265625
0.12810058593749998
0.48017578125
1.103759765625
1.30517578125
1.7370117187499998
2.2244384765625
2.518505859375
2.7465087890624997
2.874609375
0.40605468749999996
0.018530273437499998
0.018530273437499998
0.017724609375
0.31340332031249996
0.8580322265625
1.7297607421874999
3.0244628906249997
3.0204345703124997
3.02607421875
3.0244628906249997
2.874609375
2.67158203125
2.3138671875
2.260693359375
1.5484863281249999
1.200439453125
0.825
0.6380859375
0.407666015625
0.34160156249999996
2.0584716796875
3.0204345703124997
3.0252685546875
3.0244628906249997
2.8979736328124996
2.4226318359375
1.0642822265625
0.0217529296875
0.022558593749999998
0.022558593749999998
0.019335937499999997
0.022558593749999998
0.046728515624999994
0.38510742187499997
0.974853515625
1.1351806640625
1.5992431640625
2.00771484375
2.354150390625
2.769873046875
2.9044189453125
0.9724365234375
0.0169189453125
0.0201416015625
0.0217529296875
0.2384765625
0.8113037109375
1.7378173828124999
3.0244628906249997
3.0220458984375
3.0236572265625
3.0252685546875
2.9463134765624996
2.63291015625
2.344482421875
2.102783203125
1.5355957031249998
1.303564453125
1.0159423828125
0.7283203125
0.605859375
0.4809814453125
0.4632568359375
3.0228515624999996
3.02607421875
3.0252685546875
2.9745117187499996
2.4774169921875
1.85625
0.3440185546875
0.022558593749999998
0.022558593749999998
0.0217529296875
0.0217529296875
0.027392578124999997
0.28037109374999997
0.6638671875
1.06669921875
1.4961181640624999
1.9303710937499998
2.3146728515625
2.56201171875
2.7336181640625
1.17626953125
0.019335937499999997
0.019335937499999997
0.020947265625
0.207861328125
0.5534912109375
1.35673828125
3.0252685546875
3.027685546875
3.0244628906249997
3.0228515624999996
3.0244628906249997
2.81982421875
2.5547607421875
2.165625
1.9625976562499998
1.5879638671874998
1.1110107421875
0.8201660156249999
0.6292236328124999
0.4406982421875
0.35288085937499997
2.931005859375
3.0236572265625
3.0244628906249997
3.0244628906249997
2.7658447265625
1.91748046875
0.5478515625
0.017724609375
0.0169189453125
0.0217529296875
0.023364257812499997
0.017724609375
0.18852539062499998
0.5679931640625
1.06025390625
1.4864501953125
1.8062988281249999
2.1567626953125
2.46533203125
2.695751953125
2.8061279296875
0.0829833984375
0.0201416015625
0.0201416015625
0.0314208984375
0.4068603515625
1.24072265625
3.02607421875
3.0188232421874996
3.0228515624999996
3.0236572265625
3.01962890625
2.7722900390625
2.5483154296875
2.2631103515624997
2.1229248046875
1.5364013671874999
1.1754638671875
0.9643798828125
0.6654785156249999
0.4962890625
0.40283203125
2.8254638671874996
3.0252685546875
3.0244628906249997
3.0252685546875
2.8045166015625
2.273583984375
0.9796874999999999
0.020947265625
0.022558593749999998
0.019335937499999997
0.022558593749999998
0.023364257812499997
0.1039306640625
0.48178710937499997
1.0191650390625
1.1851318359375
1.6435546875
2.14306640625
2.5112548828124996
2.7078369140625
2.8286865234375
0.3029296875
0.020947265625
0.017724609375
0.020947265625
0.40524902343749997
0.8596435546875
2.2179931640625
3.021240234375
3.0284912109374997
3.0228515624999996
3.0244628906249997
2.83271484375
2.7166992187499996
2.3662353515625
2.4000732421874997
1.7539306640624999
1.329345703125
0.9635742187499999
0.717041015625
0.5687988281249999
0.452783203125
2.1406494140625
3.0236572265625
3.0220458984375
3.027685546875
2.9704833984374996
2.450830078125
0.958740234375
0.023364257812499997
0.0201416015625
0.022558593749999998
0.0217529296875
0.023364257812499997
0.0217529296875
0.3875244140625
0.9224853515625
1.181103515625
1.654833984375
2.02705078125
2.3799316406249997
2.6772216796875
2.843994140625
0.8967041015624999
0.020947265625
0.020947265625
0.0217529296875
0.18369140625
0.825
1.603271484375
3.0236572265625
3.0252685546875
3.0204345703124997
3.0268798828124996
3.02607421875
2.72958984375
2.47177734375
2.2341064453125
1.6371093749999999
1.37607421875
1.1110107421875
0.8064697265624999
0.6501708984375
0.517236328125
0.4809814453125
3.0244628906249997
3.0252685546875
3.0252685546875
2.985791015625
2.4903076171875
1.7579589843749999
0.3440185546875
0.020947265625
0.01611328125
0.026586914062499998
0.022558593749999998
0.022558593749999998
0.25458984375
0.6429199218749999
1.0836181640625
1.4630859374999998
1.843359375
2.27841796875
2.505615234375
2.6820556640624997
0.9676025390624999
0.0249755859375
0.017724609375
0.0217529296875
0.233642578125
0.4970947265625
1.2205810546875
3.027685546875
3.0244628906249997
3.021240234375
3.02607421875
3.0244628906249997
2.8496337890624996
2.615185546875
2.2671386718749997
2.1148681640625
1.585546875
1.1641845703125
0.8918701171875
0.7001220703125
0.51884765625
0.40283203125
2.905224609375
3.0252685546875
3.02607421875
3.021240234375
2.7908203124999997
2.1664306640624997
0.35690917968749997
0.02578125
0.0201416015625
0.0281982421875
0.022558593749999998
0.0217529296875
0.12246093749999999
0.555908203125
1.0207763671874999
1.319677734375
1.8151611328125
2.2026855468749997
2.425048828125
2.72314453125
2.7755126953125
0.01611328125
0.018530273437499998
0.024169921875
0.0217529296875
0.4149169921875
1.264892578125
3.01962890625
3.0252685546875
3.0228515624999996
3.0244628906249997
3.021240234375
2.8528564453125
2.5531494140624997
2.3074218749999997
1.980322265625
1.6024658203125
1.3124267578125
1.0304443359375
0.7178466796874999
0.5873291015625
0.4326416015625
2.183349609375
3.0252685546875
3.0268798828124996
3.0244628906249997
2.792431640625
2.2244384765625
0.7017333984374999
0.0217529296875
0.026586914062499998
0.0217529296875
0.020947265625
0.017724609375
0.10151367187499999
0.5357666015625
1.0288330078124999
1.3019531249999998
1.7096191406249999
2.018994140625
2.3718749999999997
2.5789306640625
2.6723876953124996
0.0515625
0.0217529296875
0.022558593749999998
0.0217529296875
0.3988037109375
0.8991210937499999
1.8884765625
3.027685546875
3.029296875
3.0268798828124996
3.0220458984375
2.876220703125
2.711865234375
2.41376953125
2.38154296875
1.7652099609374998
1.4880615234374999
1.02158203125
0.7806884765625
0.5937744140625
0.42539062499999997
2.13662109375
3.02607421875
3.0268798828124996
3.0252685546875
2.8697753906249996
2.431494140625
0.8266113281249999
0.024169921875
0.0217529296875
0.0201416015625
0.022558593749999998
0.018530273437499998
0.049145507812499996
0.375439453125
0.7951904296875
1.0642822265625
1.5283447265624999
1.8884765625
2.247802734375
2.4556640625
2.7626220703124997
0.7879394531249999
0.0217529296875
0.02578125
0.0217529296875
0.27634277343749997
0.733154296875
1.9118408203125
3.0244628906249997
3.02607421875
3.0236572265625
3.0252685546875
3.018017578125
2.7722900390625
2.4580810546875
2.183349609375
1.9625976562499998
1.3575439453125
1.0900634765625
0.9385986328125
0.6904541015625
0.5921630859375
0.6090820312499999
3.02607421875
3.02607421875
3.0301025390625
3.0284912109374997
2.4822509765625
1.7426513671875
0.153076171875
0.023364257812499997
0.0217529296875
0.0217529296875
0.022558593749999998
0.022558593749999998
0.27392578125
0.578466796875
1.08603515625
1.461474609375
1.8046875
2.196240234375
2.5233398437499996
2.6691650390625
2.737646484375
0.0201416015625
0.0169189453125
0.0217529296875
0.17080078124999998
0.678369140625
1.4228027343749998
3.0284912109374997
3.021240234375
3.0244628906249997
3.0204345703124997
3.0244628906249997
2.8174072265624996
2.6055175781249997
2.260693359375
2.1221191406249997
1.6725585937499998
1.287451171875
0.9144287109375
0.7073730468749999
0.591357421875
0.42861328125
2.947119140625
3.0252685546875
3.0204345703124997
3.0244628906249997
2.737646484375
2.1116455078125
0.2956787109375
0.020947265625
0.020947265625
0.0217529296875
0.0217529296875
0.022558593749999998
0.1007080078125
0.5478515625
0.9305419921875
1.3220947265624998
1.770849609375
2.1116455078125
2.3799316406249997
2.65546875
2.744091796875
0.020947265625
0.0201416015625
0.02578125
0.026586914062499998
0.472119140625
1.21171875
3.0204345703124997
3.0228515624999996
3.0244628906249997
3.0244628906249997
3.02607421875
2.89716796875
2.5418701171875
2.2453857421875
1.843359375
1.5702392578125
1.24716796875
0.8991210937499999
0.6977050781249999
0.47775878906249997
0.37785644531249996
2.2373291015625
3.0228515624999996
3.0228515624999996
3.0252685546875
2.7610107421874996
2.1164794921875
0.54140625
0.0217529296875
0.023364257812499997
0.020947265625
0.0217529296875
0.022558593749999998
0.15629882812499998
0.597802734375
0.604248046875
1.3551269531249999
1.8538330078124998
2.1664306640624997
2.5563720703125
2.8037109375
2.9285888671875
0.13857421875
0.018530273437499998
0.0217529296875
0.0169189453125
0.4729248046875
0.9998291015624999
2.5716796874999996
3.02607421875
3.0228515624999996
3.02607421875
3.02607421875
2.721533203125
2.4677490234375
1.9948242187499998
1.864306640625
1.416357421875
1.0836181640625
0.8048583984375
0.5969970703124999
0.4310302734375
0.38107910156249997
2.1060058593749997
3.0252685546875
3.029296875
3.0317138671875
2.8270751953124997
2.27841796875
0.7927734375
0.022558593749999998
0.017724609375
0.017724609375
0.022558593749999998
0.1152099609375
0.3021240234375
0.9369873046874999
1.3817138671875
1.9142578124999998
2.40087890625
2.914892578125
3.0244628906249997
3.0244628906249997
2.9108642578125
0.752490234375
0.0217529296875
0.2215576171875
0.6977050781249999
1.4598632812499999
2.51044921875
3.0244628906249997
3.0244628906249997
2.7303955078124997
0.9611572265624999
0.0169189453125
0.02578125
0.2586181640625
1.0626708984375
1.6443603515624998
2.051220703125
1.980322265625
1.7531249999999998
1.606494140625
1.4026611328124998
1.3921875
1.6645019531249998
3.0220458984375
1.7982421874999999
1.061865234375
0.6662841796875
0.468896484375
0.588134765625
0.5115966796875
1.069921875
1.7748779296875
2.2107421874999997
2.2486083984375
1.9070068359374999
1.6798095703125
1.5557373046874998
1.5895751953125
1.5887695312499999
1.5911865234375
1.622607421875
1.6266357421875
1.6330810546874999
1.670947265625
1.6878662109375
1.835302734375
1.796630859375
1.8304687499999999
1.8336914062499998
1.8248291015625
1.9021728515624998
1.609716796875
1.4711425781249998
1.4381103515625
1.429248046875
1.4300537109375
1.4244140625
1.426025390625
1.429248046875
1.4381103515625
1.4389160156249998
1.461474609375
1.4655029296875
1.4767822265625
1.480810546875
1.542041015625
1.3269287109374999
1.3108154296874999
1.2947021484374999
1.287451171875
1.4155517578124999
1.345458984375
1.2439453125
1.5082031249999999
2.3340087890625
1.8457763671874998
1.88525390625
1.7829345703125
1.6959228515625
1.6765869140624998
1.635498046875
1.6137451171875
1.585546875
1.56298828125
1.5484863281249999
1.5444580078124999
1.4638916015624999
1.7539306640624999
1.7418457031249999
1.6862548828125
1.6056884765625
1.796630859375
1.869140625
1.5919921874999998
1.4348876953124998
1.3220947265624998
1.3180664062499998
1.3833251953124999
1.3817138671875
1.380908203125
1.3865478515624998
1.3881591796875
1.3978271484375
1.4042724609375
1.416357421875
1.4356933593749999
1.4501953125
1.5235107421874998
1.3059814453124998
1.2616699218749998
1.252001953125
1.2334716796875
1.24716796875
1.2342773437499999
1.3817138671875
1.4759765624999999
1.554931640625
1.6218017578125
0.0217529296875
0.0201416015625
0.1393798828125
1.239111328125
1.5218994140625
1.6346923828125
1.75634765625
1.803076171875
1.8151611328125
1.828857421875
1.7934082031249998
1.964208984375
1.9940185546875
1.996435546875
1.9924072265625
1.980322265625
1.9384277343749998
1.8167724609375
1.651611328125
1.5766845703124999
1.5154541015624998
1.4993408203124998
1.4751708984374998
1.4606689453125
1.477587890625
1.4606689453125
1.4526123046875
1.4912841796874998
1.5025634765625
1.5170654296875
1.5073974609374998
1.5726562499999999
1.432470703125
1.29228515625
1.27939453125
1.2858398437499998
1.2858398437499998
1.2906738281249999
1.3801025390625
1.3825195312499998
1.5138427734375
1.6056884765625
1.6427490234375
1.6894775390624999
1.7023681640625
1.6822265625
1.667724609375
1.6669189453125
1.6773925781249999
1.6765869140624998
1.6427490234375
1.6451660156249999
1.546875
1.754736328125
1.8071044921875
1.8143554687499999
1.8304687499999999
1.8151611328125
1.7974365234374998
1.7442626953125
1.5041748046874999
1.4171630859375
1.3607666015625
1.3494873046875
1.3591552734374999
1.353515625
1.3623779296874998
1.3599609375
1.380908203125
1.38896484375
1.429248046875
1.4469726562499998
1.442138671875
1.5073974609374998
1.3905761718749998
1.2616699218749998
1.2415283203124998
1.2463623046874999
1.2431396484375
1.2753662109375
1.3559326171875
1.448583984375
1.558154296875
1.6371093749999999
1.6645019531249998
1.67900390625
1.674169921875
1.683837890625
1.6830322265625
1.6733642578124999
1.6451660156249999
1.6379150390625
1.6330810546874999
1.6008544921874999
1.5484863281249999
1.6701416015625
1.8199951171875
1.8417480468749998
1.8578613281249998
1.844970703125
1.8199951171875
1.7635986328125
1.5637939453124998
1.426025390625
1.3728515625
1.351904296875
1.3422363281249998
1.3470703124999999
1.3414306640625
1.3607666015625
1.3865478515624998
1.4074951171874999
1.4244140625
1.4308593749999998
1.4356933593749999
1.43408203125
1.4373046875
1.2536132812499998
1.21171875
1.197216796875
1.2044677734375
1.2286376953125
1.2745605468749999
1.4171630859375
1.5283447265624999
1.6008544921874999
1.6564453124999998
1.6854492187499999
1.6959228515625
1.69833984375
1.6886718749999998
1.6701416015625
1.6588623046875
1.6282470703124998
1.6185791015625
1.611328125
1.5895751953125
1.6653076171874999
1.8377197265624998
1.880419921875
1.9013671875
1.9029785156249999
1.8731689453125
1.828857421875
1.6185791015625
1.4751708984374998
1.3881591796875
1.3382080078124998
1.33740234375
1.327734375
1.345458984375
1.353515625
1.3599609375
1.3664062499999998
1.3905761718749998
1.416357421875
1.4252197265625
1.445361328125
1.4501953125
1.2753662109375
1.1899658203124999
1.1947998046875
1.190771484375
1.2044677734375
1.2439453125
1.3599609375
1.4791992187499998
1.61455078125
1.6717529296875
1.6975341796874999
1.716064453125
1.714453125
1.719287109375
1.7055908203124999
1.687060546875
1.6693359374999999
1.654833984375
1.638720703125
1.6185791015625
1.6040771484374998
1.8151611328125
1.9150634765624999
1.9384277343749998
1.9384277343749998
1.9053955078125
1.88525390625
1.7104248046875
1.4751708984374998
1.3865478515624998
1.34384765625
1.3269287109374999
1.340625
1.3494873046875
1.3494873046875
1.3599609375
1.36962890625
1.393798828125
1.4147460937499998
1.42119140625
1.4364990234375
1.4501953125
1.281005859375
1.2012451171875
1.173046875
1.1641845703125
1.1722412109375
1.2052734375
1.3502929687499998
1.46953125
1.5670166015625
1.6395263671875
1.6862548828125
1.7128417968749998
1.72734375
1.7861572265624999
1.72734375
1.7208984374999998
1.6693359374999999
1.6395263671875
1.6322753906249998
1.6169677734374999
1.6040771484374998
1.7974365234374998
1.9102294921874998
1.9182861328124998
1.931982421875
1.9102294921874998
1.8796142578125
1.7200927734375
1.53076171875
1.4187744140624998
1.3583496093749998
1.332568359375
1.3285400390625
1.3349853515624999
1.3349853515624999
1.340625
1.364794921875
1.3792968749999999
1.3817138671875
1.4034667968749999
1.432470703125
1.4953124999999998
1.353515625
1.2052734375
1.1770751953125
1.16015625
1.1545166015625
1.197216796875
1.2898681640624998
1.4155517578124999
1.5597656249999998
1.6290527343749999
1.6636962890625
1.6959228515625
1.7184814453125
1.7217041015624999
1.7088134765624998
1.6862548828125
1.67578125
1.6572509765624999
1.6451660156249999
1.6322753906249998
1.5839355468749998
1.783740234375
1.9021728515624998
1.9392333984374999
2.0133544921874997
1.9134521484375
1.883642578125
1.8264404296874999
1.56298828125
1.432470703125
1.3591552734374999
1.3285400390625
1.3204833984375
1.3269287109374999
1.332568359375
1.3446533203125
1.3599609375
1.3792968749999999
1.3921875
1.4026611328124998
1.4187744140624998
1.4638916015624999
1.34384765625
1.2181640624999999
1.1770751953125
1.174658203125
1.1819091796874999
1.2028564453125
1.2818115234374998
1.4139404296875
1.5275390624999998
1.6371093749999999
1.66611328125
1.699951171875
1.7120361328125
1.7168701171874998
1.7080078125
1.69189453125
1.6693359374999999
1.654833984375
1.6363037109374998
1.622607421875
1.5815185546875
1.7047851562499998
1.8747802734374999
1.9279541015625
1.9360107421875
1.928759765625
1.88525390625
1.8143554687499999
1.6008544921874999
1.416357421875
1.35673828125
1.3253173828125
1.3285400390625
1.3398193359375
1.3430419921874999
1.3510986328124999
1.36962890625
1.3784912109374998
1.3857421875
1.4058837890625
1.4268310546874998
1.4332763671875
1.4276367187499999
1.2318603515625
1.1835205078125
1.1706298828125
1.1593505859375
1.1931884765625
1.2383056640624999
1.3954101562499999
1.5170654296875
1.606494140625
1.6636962890625
1.6975341796874999
1.7176757812499999
1.7297607421874999
1.7136474609374999
1.6975341796874999
1.6781982421875
1.6604736328124998
1.6564453124999998
1.6443603515624998
1.6282470703124998
1.6894775390624999
1.85947265625
1.9215087890625
1.93359375
1.9279541015625
1.9005615234375
1.9166748046875
1.6201904296874998
1.4606689453125
1.3817138671875
1.3285400390625
1.3220947265624998
1.3261230468749998
1.332568359375
1.3390136718749999
1.3446533203125
1.3720458984375
1.3873535156249999
1.3994384765624999
1.416357421875
1.43408203125
1.4397216796874999
1.27939453125
1.187548828125
1.173046875
1.1577392578124999
1.1778808593749999
1.2262207031249999
1.345458984375
1.4671142578124998
1.5919921874999998
1.6645019531249998
1.6943115234375
1.7176757812499999
1.7176757812499999
1.722509765625
1.703173828125
1.6854492187499999
1.6669189453125
1.651611328125
1.6346923828125
1.6218017578125
1.611328125
1.8071044921875
1.9118408203125
1.9190917968749999
1.9343994140624998
1.8949218749999999
1.8820312499999998
1.7426513671875
1.4920898437499999
1.397021484375
1.3349853515624999
1.3301513671874998
1.329345703125
1.3309570312499999
1.3414306640625
1.340625
1.3478759765625
1.3712402343749999
1.4026611328124998
1.4058837890625
1.4268310546874998
1.474365234375
1.2745605468749999
1.1947998046875
1.1786865234375
1.16337890625
1.1786865234375
1.200439453125
1.335791015625
1.4606689453125
1.5758789062499998
1.6451660156249999
1.69189453125
1.703173828125
1.7176757812499999
1.7217041015624999
1.7176757812499999
1.6935058593749999
1.6701416015625
1.654833984375
1.6459716796875
1.6306640625
1.6056884765625
1.7990478515625
1.8908935546874999
1.9215087890625
1.9279541015625
1.909423828125
1.8763916015625
1.714453125
1.525927734375
1.4107177734374998
1.3462646484374998
1.3285400390625
1.3229003906249999
1.3237060546875
1.3446533203125
1.3510986328124999
1.3752685546874999
1.3784912109374998
1.40830078125
1.4123291015625
1.4268310546874998
1.4735595703125
1.3478759765625
1.2020507812499999
1.158544921875
1.1577392578124999
1.1786865234375
1.20849609375
1.2834228515625
1.4042724609375
1.5605712890624999
1.6314697265625
1.6773925781249999
