1.716064453125
1.683837890625
1.6395263671875
1.8312744140625
2.0359130859375
2.101171875
2.115673828125
2.0979492187499997
2.070556640625
1.9303710937499998
1.61455078125
1.4203857421875
1.297119140625
1.2665039062499999
1.2576416015624998
1.2560302734375
1.2584472656249999
1.264892578125
1.2858398437499998
1.319677734375
1.3365966796875
1.3478759765625
1.3784912109374998
1.3865478515624998
1.364794921875
1.087646484375
1.0159423828125
0.9974121093749999
0.9732421874999999
1.019970703125
1.0932861328124999
1.2616699218749998
1.496923828125
1.6209960937499999
1.7039794921875
1.7442626953125
1.7877685546875
1.7982421874999999
1.7901855468749999
1.7611816406249998
1.7490966796874998
1.7370117187499998
1.714453125
1.6894775390624999
1.6693359374999999
1.7047851562499998
2.022216796875
2.09150390625
2.102783203125
2.099560546875
2.0713623046875
2.0230224609375
1.6620849609375
1.4397216796874999
1.3390136718749999
1.2737548828124998
1.2528076171875
1.2463623046874999
1.2576416015624998
1.268115234375
1.2938964843749998
1.3075927734375
1.335791015625
1.3494873046875
1.364794921875
1.3833251953124999
1.3768798828125
1.16015625
1.0368896484374999
0.9974121093749999
0.9853271484374999
1.010302734375
1.0787841796875
1.2439453125
1.4155517578124999
1.5758789062499998
1.69833984375
1.7426513671875
1.7684326171875
1.8087158203125
1.7958251953125
1.7772949218749998
1.7490966796874998
1.7313720703125
1.7184814453125
1.6935058593749999
1.6693359374999999
1.6854492187499999
1.9432617187499999
2.0810302734375
2.1035888671875
2.115673828125
2.077001953125
2.035107421875
1.8167724609375
1.53720703125
1.3478759765625
1.284228515625
1.2640869140625
1.252001953125
1.2455566406249998
1.2616699218749998
1.2769775390625
1.3027587890624999
1.3253173828125
1.3333740234375
1.3656005859375
1.384130859375
1.4219970703125
1.1657958984374999
1.0417236328125
1.013525390625
0.9821044921875
1.0030517578125
1.0433349609375
1.1786865234375
1.4066894531249998
1.561376953125
1.6556396484375
1.7362060546875
1.770849609375
1.7958251953125
1.7901855468749999
1.7764892578125
1.7490966796874998
1.7337890624999999
1.716064453125
1.683837890625
1.6846435546874998
1.662890625
1.9182861328124998
2.0600830078125
2.1052001953125
2.1140624999999997
2.102783203125
2.0568603515625
1.8409423828125
1.5605712890624999
1.3857421875
1.2785888671874999
1.2616699218749998
1.2463623046874999
1.26005859375
1.268115234375
1.2850341796875
1.2979248046874998
1.3253173828125
1.3414306640625
1.3502929687499998
1.3768798828125
1.4115234374999999
1.2753662109375
1.0707275390625
1.0014404296875
0.9821044921875
0.9869384765625
1.0328613281249999
1.15693359375
1.3333740234375
1.55009765625
1.6604736328124998
1.714453125
1.75634765625
1.79501953125
1.7974365234374998
1.786962890625
1.7692382812499998
1.7426513671875
1.7208984374999998
1.6951171875
1.674169921875
1.6395263671875
1.799853515625
2.0576660156249997
2.096337890625
2.1221191406249997
2.102783203125
2.060888671875
1.9625976562499998
1.571044921875
1.3946044921874998
1.3083984375
1.2673095703125
1.2560302734375
1.2528076171875
1.2697265624999998
1.287451171875
1.2955078125
1.31162109375
1.332568359375
1.3478759765625
1.364794921875
1.380908203125
1.3067871093749999
1.0836181640625
1.0086914062499999
0.9885498046875
0.9901611328125
1.0191650390625
1.074755859375
1.3180664062499998
1.4864501953125
1.6121337890624998
1.7096191406249999
1.754736328125
1.7853515624999998
1.8022705078124999
1.791796875
1.7684326171875
1.754736328125
1.719287109375
1.7039794921875
1.690283203125
1.6443603515624998
1.7853515624999998
2.02060546875
2.0906982421875
2.1116455078125
2.1052001953125
2.0818359374999997
1.9787109374999998
1.6927001953124998
1.4606689453125
1.3212890625
1.2697265624999998
1.2503906249999999
1.2479736328125
1.2624755859374999
1.271337890625
1.2914794921875
1.3156494140625
1.3309570312499999
1.3510986328124999
1.3672119140624999
1.380908203125
1.397021484375
1.0973144531249999
1.0127197265624999
0.9933837890624999
0.9812988281249999
1.0127197265624999
1.0739501953125
1.2350830078125
1.4864501953125
1.6048828124999999
1.69189453125
1.7345947265625
1.770849609375
1.7982421874999999
1.7958251953125
1.764404296875
1.7571533203124998
1.72412109375
1.7152587890625
1.6886718749999998
1.67578125
1.670947265625
1.9988525390624998
2.0794189453125
2.0979492187499997
2.1068115234375
2.077001953125
2.031884765625
1.72412109375
1.47275390625
1.3543212890624998
1.2914794921875
1.2584472656249999
1.2511962890625
1.2560302734375
1.281005859375
1.2802001953125
1.3075927734375
1.3309570312499999
1.3478759765625
1.3656005859375
1.36962890625
1.3986328124999998
1.184326171875
1.036083984375
0.990966796875
0.9949951171875
0.9901611328125
1.0578369140625
1.2093017578125
1.4034667968749999
1.55009765625
1.6846435546874998
1.7450683593749998
1.7619873046874999
1.7958251953125
1.7926025390625
1.7772949218749998
1.751513671875
1.738623046875
1.716064453125
1.6991455078125
1.670947265625
1.6564453124999998
1.899755859375
2.083447265625
2.0987548828125
2.1205078125
2.0810302734375
2.0294677734374997
1.8755859375
1.590380859375
1.3712402343749999
1.2995361328125
1.2624755859374999
1.2439453125
1.2503906249999999
1.26328125
1.2802001953125
1.3011474609375
1.319677734375
1.3414306640625
1.3543212890624998
1.3768798828125
1.4147460937499998
1.2052734375
1.0352783203125
1.0014404296875
0.9853271484374999
0.9949951171875
1.0256103515625
1.142431640625
1.3897705078125
1.53720703125
1.6524169921874998
1.7418457031249999
1.7684326171875
1.7901855468749999
1.8022705078124999
1.7797119140625
1.76279296875
1.735400390625
1.7152587890625
1.706396484375
1.6862548828125
1.6403320312499998
1.8796142578125
2.0600830078125
2.0971435546875
2.1132568359375
2.1035888671875
2.0625
1.8908935546874999
1.5992431640625
1.4074951171874999
1.3100097656249998
1.2640869140625
1.252001953125
1.252001953125
1.26005859375
1.2753662109375
1.2914794921875
1.3148437499999999
1.327734375
1.3591552734374999
1.3712402343749999
1.4074951171874999
1.3100097656249998
1.0868408203125
1.00546875
0.984521484375
0.978076171875
1.03125
1.1279296875
1.3059814453124998
1.4816162109375
1.635498046875
1.7176757812499999
1.7426513671875
1.78857421875
1.7982421874999999
1.786962890625
1.7684326171875
1.7450683593749998
1.732177734375
1.7072021484375
1.683837890625
1.6612792968749999
1.7595703125
2.04638671875
2.0971435546875
2.1076171875
2.0979492187499997
2.05927734375
1.9875732421874999
1.719287109375
1.4276367187499999
1.319677734375
1.2858398437499998
1.24716796875
1.2584472656249999
1.264892578125
1.2745605468749999
1.2906738281249999
1.3108154296874999
1.33740234375
1.34384765625
1.364794921875
1.3857421875
1.3341796874999998
1.1110107421875
1.023193359375
0.9893554687499999
0.9796874999999999
1.0062744140625
1.06025390625
1.2777832031249998
1.4703369140625
1.6048828124999999
1.7080078125
1.7523193359375
1.77890625
1.7934082031249998
1.780517578125
1.7716552734375
1.751513671875
1.722509765625
1.7096191406249999
1.67900390625
1.6540283203125
1.7458740234374999
1.9867675781249998
2.0898925781249997
2.1076171875
2.11083984375
2.0826416015625
2.006103515625
1.7450683593749998
1.4953124999999998
1.332568359375
1.2737548828124998
1.2528076171875
1.2528076171875
1.2584472656249999
1.27294921875
1.2802001953125
1.3148437499999999
1.3301513671874998
1.3446533203125
1.364794921875
1.3792968749999999
1.409912109375
1.190771484375
1.03125
1.0014404296875
0.98291015625
1.0006347656249999
1.0513916015625
1.206884765625
1.3752685546874999
1.5863525390625
1.6725585937499998
1.735400390625
1.7740722656249999
1.7909912109375
1.7958251953125
1.7716552734375
1.7595703125
1.73056640625
1.7055908203124999
1.69189453125
1.6798095703125
1.65
1.972265625
2.0810302734375
2.096337890625
2.1060058593749997
2.086669921875
2.0423583984375
1.8812255859375
1.5243164062499999
1.368017578125
1.2955078125
1.2576416015624998
1.2544189453124999
1.2463623046874999
1.27294921875
1.2858398437499998
1.2987304687499999
1.3180664062499998
1.34384765625
1.3527099609375
1.3744628906249998
1.416357421875
1.2205810546875
1.0465576171875
0.9998291015624999
0.9796874999999999
0.994189453125
1.019970703125
1.1778808593749999
1.3736572265625
1.5364013671874999
1.670947265625
1.7313720703125
1.7700439453124999
1.78857421875
1.791796875
1.7716552734375
1.7660156249999999
1.7313720703125
1.7208984374999998
1.6951171875
1.6765869140624998
1.638720703125
1.8618896484374998
2.0488037109375
2.0987548828125
2.1068115234375
2.102783203125
2.0359130859375
1.9134521484375
1.63388671875
1.37607421875
1.3011474609375
1.27294921875
1.252001953125
1.252001953125
1.2697265624999998
1.2745605468749999
1.2947021484374999
1.3180664062499998
1.3333740234375
1.3599609375
1.3720458984375
1.3954101562499999
1.3285400390625
1.055419921875
1.0062744140625
0.994189453125
0.984521484375
1.019970703125
1.119873046875
1.3591552734374999
1.525927734375
1.638720703125
1.7088134765624998
1.7579589843749999
1.791796875
1.803076171875
1.7748779296875
1.7668212890625
1.7442626953125
1.72412109375
1.699951171875
1.6846435546874998
1.6532226562499999
1.8264404296874999
2.0455810546874997
2.0858642578124997
2.11083984375
2.102783203125
2.0625
2.0012695312499997
1.6588623046875
1.445361328125
1.3261230468749998
1.2721435546875
1.2576416015624998
1.2528076171875
1.2536132812499998
1.27939453125
1.2930908203125
1.31162109375
1.335791015625
1.3559326171875
1.3607666015625
1.3873535156249999
1.3462646484374998
1.1110107421875
1.013525390625
0.9893554687499999
0.978076171875
1.0086914062499999
1.0973144531249999
1.2721435546875
1.461474609375
1.6371093749999999
1.7015624999999999
1.7426513671875
1.77890625
1.8022705078124999
1.77568359375
1.7740722656249999
1.748291015625
1.7289550781249998
1.714453125
1.6798095703125
1.667724609375
1.7128417968749998
1.9787109374999998
2.083447265625
2.1116455078125
2.115673828125
2.075390625
2.0069091796875
1.77890625
1.4469726562499998
1.3317626953125
1.284228515625
1.2584472656249999
1.2592529296875
1.2503906249999999
1.2697265624999998
1.2858398437499998
1.3083984375
1.3204833984375
1.3478759765625
1.3607666015625
1.3833251953124999
1.413134765625
1.1303466796875
1.0223876953125
1.0078857421875
0.98291015625
0.9998291015624999
1.039306640625
1.200439453125
1.4477783203124999
1.5750732421875
1.6636962890625
1.7587646484375
1.7764892578125
1.786962890625
1.7877685546875
1.7660156249999999
1.75634765625
1.7329833984374998
1.71123046875
1.6959228515625
1.6781982421875
1.69189453125
1.9569580078125
2.070556640625
2.1060058593749997
2.1060058593749997
2.0923095703125
2.0439697265625
1.7990478515625
1.533984375
1.3817138671875
1.287451171875
1.255224609375
1.2536132812499998
1.248779296875
1.2592529296875
1.2890625
1.2987304687499999
1.3156494140625
1.3349853515624999
1.3607666015625
1.37607421875
1.41796875
1.2374999999999998
1.0288330078124999
1.0030517578125
0.9821044921875
0.9869384765625
1.044140625
1.1786865234375
1.3728515625
1.5791015625
1.6765869140624998
1.72734375
1.7660156249999999
1.7845458984375
1.7813232421874998
1.7716552734375
1.7587646484375
1.74345703125
1.7281494140625
1.699951171875
1.6806152343749998
1.641943359375
1.85625
2.07216796875
2.1003662109375
2.1164794921875
2.0898925781249997
2.0504150390625
1.931982421875
1.546875
1.3881591796875
1.3100097656249998
1.264892578125
1.2568359375
1.2479736328125
1.264892578125
1.276171875
1.3059814453124998
1.3172607421875
1.335791015625
1.3559326171875
1.368017578125
1.3962158203125
1.2568359375
1.0691162109374999
1.00224609375
0.9772705078124999
0.9853271484374999
1.0248046874999999
1.0739501953125
1.3478759765625
1.5170654296875
1.6306640625
1.7208984374999998
1.7507080078125
1.7893798828124998
1.79501953125
1.7853515624999998
1.7668212890625
1.748291015625
1.716064453125
1.6943115234375
1.687060546875
1.6322753906249998
1.82080078125
2.0302734375
2.08505859375
2.11728515625
2.1068115234375
2.0697509765624997
1.941650390625
1.658056640625
1.4518066406249999
1.30517578125
1.2689208984375
1.2536132812499998
1.2495849609374998
1.2463623046874999
1.268115234375
1.27294921875
1.3108154296874999
1.3382080078124998
1.3575439453125
1.3736572265625
1.4026611328124998
1.3583496093749998
1.123095703125
1.007080078125
0.9812988281249999
0.9812988281249999
1.0191650390625
1.087646484375
1.271337890625
1.5057861328125
1.6234130859375
1.6959228515625
1.751513671875
1.77890625
1.7974365234374998
1.7877685546875
1.7555419921875
1.7394287109375
1.7120361328125
1.7096191406249999
1.6878662109375
1.6733642578124999
1.699951171875
2.0254394531249997
2.0898925781249997
2.11728515625
2.0947265625
2.0818359374999997
2.02705078125
1.6967285156249998
1.4735595703125
1.3398193359375
1.2777832031249998
1.2423339843749999
1.239111328125
1.2568359375
1.271337890625
1.284228515625
1.30517578125
1.3180664062499998
1.351904296875
1.3559326171875
1.3728515625
1.380908203125
1.1432373046875
1.0401123046875
0.9958007812499999
0.992578125
0.9982177734375
1.0401123046875
1.2463623046874999
1.4244140625
1.5799072265624998
1.6951171875
1.7450683593749998
1.7772949218749998
1.786962890625
1.7716552734375
1.7772949218749998
1.76279296875
1.7249267578124998
1.7039794921875
1.716064453125
1.6798095703125
1.6886718749999998
1.9408447265625
2.0729736328125
2.1116455078125
2.118896484375
2.0874755859375
2.023828125
1.8248291015625
1.5428466796875
1.348681640625
1.2802001953125
1.252001953125
1.26328125
1.2576416015624998
1.26328125
1.2858398437499998
1.30517578125
1.32451171875
1.345458984375
1.361572265625
1.3728515625
1.4107177734374998
1.2455566406249998
1.02158203125
0.9982177734375
0.9877441406249999
0.9933837890624999
1.0409179687499999
1.1609619140625
1.3446533203125
1.5686279296874999
1.6620849609375
1.72734375
1.7724609375
1.796630859375
1.791796875
1.7732666015624998
1.7611816406249998
1.7370117187499998
1.722509765625
1.6991455078125
1.683837890625
1.638720703125
1.920703125
2.067333984375
2.0979492187499997
2.1100341796874997
2.0923095703125
2.0496093749999997
1.944873046875
1.56943359375
1.3954101562499999
1.3019531249999998
1.2656982421874998
1.2560302734375
1.2495849609374998
1.2584472656249999
1.27294921875
1.29228515625
1.3083984375
1.340625
1.3478759765625
1.36962890625
1.4074951171874999
1.2705322265624999
1.068310546875
1.0046630859374999
0.9901611328125
0.9901611328125
1.019970703125
1.1512939453125
1.3390136718749999
1.496923828125
1.64677734375
1.7176757812499999
1.7579589843749999
1.8006591796875
1.803076171875
1.7901855468749999
1.7692382812499998
1.732177734375
1.7208984374999998
1.6959228515625
1.6733642578124999
1.6403320312499998
1.8006591796875
2.0504150390625
2.08828125
2.109228515625
2.1205078125
2.07861328125
1.9891845703125
1.6862548828125
1.400244140625
1.3043701171875
1.271337890625
1.2479736328125
1.239111328125
1.2334716796875
1.2374999999999998
1.2882568359375
1.31162109375
1.332568359375
1.361572265625
1.3752685546874999
1.3962158203125
1.37607421875
1.077978515625
1.0143310546875
0.994189453125
0.9917724609374999
1.0239990234375
1.094091796875
1.2568359375
1.4920898437499999
1.61455078125
1.6951171875
1.7410400390624998
1.786962890625
1.7829345703125
1.7764892578125
1.764404296875
1.75634765625
1.7329833984374998
1.7120361328125
1.690283203125
1.6693359374999999
1.7587646484375
2.0085205078125
2.0906982421875
2.1076171875
2.10439453125
2.070556640625
2.02705078125
1.7208984374999998
1.4759765624999999
1.345458984375
1.2705322265624999
1.2584472656249999
1.2536132812499998
1.26328125
1.2802001953125
1.2834228515625
1.2938964843749998
1.32451171875
1.3462646484374998
1.364794921875
1.3905761718749998
1.3921875
1.1577392578124999
1.0119140625
0.9901611328125
0.9933837890624999
1.0078857421875
1.069921875
1.24072265625
1.4252197265625
1.6137451171875
1.67900390625
1.7394287109375
1.7668212890625
1.7934082031249998
1.7845458984375
1.7611816406249998
1.732177734375
1.71123046875
1.706396484375
1.6967285156249998
1.6806152343749998
1.6653076171874999
1.92392578125
2.0729736328125
2.1076171875
2.126953125
2.086669921875
2.035107421875
1.8489990234375
1.493701171875
1.364794921875
1.2866455078124999
1.2576416015624998
1.2383056640624999
1.252001953125
1.268115234375
1.2914794921875
1.303564453125
1.3301513671874998
1.3398193359375
1.3543212890624998
1.3728515625
1.4252197265625
1.206884765625
1.0578369140625
1.010302734375
0.9885498046875
0.9933837890624999
1.036083984375
1.200439453125
1.3792968749999999
1.545263671875
1.6524169921874998
1.7297607421874999
1.7611816406249998
1.7893798828124998
1.7958251953125
1.783740234375
1.7652099609374998
1.7345947265625
1.716064453125
1.7015624999999999
1.6854492187499999
1.64677734375
1.8989501953124999
2.0625
2.096337890625
2.102783203125
2.0906982421875
2.0415527343749997
1.883642578125
1.5927978515624999
1.4107177734374998
1.3043701171875
1.2528076171875
1.255224609375
1.27294921875
1.2737548828124998
1.2705322265624999
1.2890625
1.3188720703124999
1.3470703124999999
1.36962890625
1.3599609375
1.4026611328124998
1.27294921875
1.0546142578125
1.0086914062499999
0.9917724609374999
0.9933837890624999
1.0320556640625
1.14404296875
1.3398193359375
1.5662109375
1.6733642578124999
1.7289550781249998
1.7587646484375
1.7797119140625
1.764404296875
1.7370117187499998
1.732177734375
1.7329833984374998
1.7337890624999999
1.706396484375
1.690283203125
1.635498046875
1.8763916015625
2.0439697265625
2.086669921875
2.1180908203124997
2.1100341796874997
2.0657226562499997
1.9875732421874999
1.6290527343749999
1.4244140625
1.3261230468749998
1.26328125
1.2511962890625
1.24716796875
1.252001953125
1.2656982421874998
1.27939453125
1.2963134765625
1.34384765625
1.3446533203125
1.3688232421875
1.409912109375
1.3180664062499998
1.103759765625
1.026416015625
0.98291015625
0.9740478515625
1.0239990234375
1.1255126953124999
1.297119140625
1.4687255859375
1.6266357421875
1.7233154296875
1.7668212890625
1.7845458984375
1.783740234375
1.7692382812499998
1.7660156249999999
1.7587646484375
1.7442626953125
1.719287109375
1.6822265625
1.641943359375
1.7458740234374999
1.9859619140625
2.07216796875
2.112451171875
2.1180908203124997
2.0818359374999997
2.02060546875
1.7660156249999999
1.4518066406249999
1.313232421875
1.2584472656249999
1.2415283203124998
1.229443359375
1.2374999999999998
1.2560302734375
1.29228515625
1.3204833984375
1.3422363281249998
1.340625
1.3639892578125
1.384130859375
1.3994384765624999
1.0981201171875
1.01513671875
1.0167480468749999
0.9998291015624999
0.9958007812499999
1.0465576171875
1.2745605468749999
1.43408203125
1.5807128906249999
1.6894775390624999
1.7603759765625
1.78857421875
1.8022705078124999
1.796630859375
1.7595703125
1.7474853515625
1.732177734375
1.7128417968749998
1.690283203125
1.6725585937499998
1.72734375
1.973876953125
2.077001953125
2.099560546875
2.1019775390624997
2.080224609375
2.02060546875
1.77568359375
1.5106201171875
1.361572265625
1.281005859375
1.268115234375
1.2624755859374999
1.2705322265624999
1.276171875
1.2914794921875
1.3019531249999998
1.3188720703124999
1.3285400390625
1.335791015625
1.3801025390625
1.4195800781249999
1.1931884765625
1.0086914062499999
0.9958007812499999
0.9812988281249999
1.003857421875
1.0578369140625
1.222998046875
1.4187744140624998
1.5839355468749998
1.6556396484375
1.7088134765624998
1.7555419921875
1.786962890625
1.7861572265624999
1.7797119140625
1.7781005859374999
1.7611816406249998
1.7531249999999998
1.7039794921875
1.69189453125
1.64677734375
1.931982421875
2.0415527343749997
2.0665283203125
2.0987548828125
2.075390625
2.0133544921874997
1.8868652343749999
1.53076171875
1.3833251953124999
1.313232421875
1.271337890625
1.26005859375
1.255224609375
1.2721435546875
1.2995361328125
1.32451171875
1.3212890625
1.345458984375
1.3583496093749998
1.380908203125
1.3986328124999998
1.2463623046874999
1.0578369140625
0.9958007812499999
1.00546875
1.0272216796875
1.0239990234375
1.1432373046875
1.3341796874999998
1.5251220703125
1.6161621093749998
1.6935058593749999
1.7587646484375
1.8046875
1.7958251953125
1.7829345703125
1.7692382812499998
1.7426513671875
1.7176757812499999
1.7080078125
1.6927001953124998
1.6564453124999998
1.8739746093749998
2.0584716796875
2.1019775390624997
2.1221191406249997
2.0906982421875
2.0375244140624997
1.9223144531249998
1.6282470703124998
1.416357421875
1.3019531249999998
1.2624755859374999
1.2640869140625
1.2479736328125
1.2511962890625
1.276171875
1.3059814453124998
1.3220947265624998
1.3172607421875
1.3470703124999999
1.3921875
1.4284423828125
1.335791015625
1.0546142578125
1.0320556640625
1.0062744140625
0.990966796875
1.01513671875
1.0884521484375
1.2737548828124998
1.5090087890625
1.6322753906249998
1.7120361328125
1.76279296875
1.7934082031249998
1.8014648437499998
1.791796875
1.7692382812499998
1.7635986328125
1.751513671875
1.7233154296875
1.6798095703125
1.6363037109374998
1.791796875
2.00771484375
2.044775390625
2.1019775390624997
2.1060058593749997
2.099560546875
2.0568603515625
1.67900390625
1.4373046875
1.313232421875
1.2447509765625
1.2608642578125
1.2673095703125
1.2536132812499998
1.271337890625
1.2777832031249998
1.2914794921875
1.3390136718749999
1.3599609375
1.380908203125
1.3905761718749998
1.3656005859375
1.1126220703125
1.0175537109375
1.010302734375
1.0014404296875
1.0030517578125
1.0723388671875
1.26328125
1.4590576171874998
1.542041015625
1.7039794921875
1.7466796875
1.7797119140625
1.7853515624999998
1.77568359375
1.7853515624999998
1.7531249999999998
1.7257324218749999
1.7104248046875
1.6814208984374999
1.667724609375
1.690283203125
1.9875732421874999
2.0955322265625
2.1100341796874997
2.1164794921875
2.064111328125
2.0391357421875
1.7772949218749998
1.5202880859374999
1.3220947265624998
1.27939453125
1.2568359375
1.2455566406249998
1.248779296875
1.2656982421874998
1.2834228515625
1.3092041015625
1.3229003906249999
1.335791015625
1.364794921875
1.3744628906249998
1.4542236328125
1.1174560546874999
1.0223876953125
1.00546875
0.9603515625
0.9692138671874999
0.9990234375
1.1666015625
1.4510009765624998
1.6081054687499998
1.73056640625
1.7595703125
1.7635986328125
1.7797119140625
1.7619873046874999
1.72734375
1.7257324218749999
1.7442626953125
1.716064453125
1.7007568359374998
1.6854492187499999
1.6427490234375
1.9658203125
2.0890869140625
2.1197021484375
2.12373046875
2.0979492187499997
2.047998046875
1.8256347656249998
1.5404296874999999
1.351904296875
1.235888671875
1.24716796875
1.2689208984375
1.281005859375
1.2882568359375
1.2995361328125
1.2914794921875
1.3172607421875
1.3180664062499998
1.3607666015625
1.3712402343749999
1.4655029296875
1.2310546875
1.0207763671874999
0.9990234375
0.9861328125
0.9885498046875
1.0094970703125
1.16337890625
1.3510986328124999
1.5831298828125
1.6701416015625
1.73056640625
1.8506103515624999
1.7958251953125
1.7893798828124998
1.7748779296875
1.7635986328125
1.7474853515625
1.7313720703125
1.7023681640625
1.683837890625
1.5911865234375
1.8498046874999998
2.0842529296875
2.11083984375
2.11728515625
2.0971435546875
2.083447265625
1.9940185546875
1.5637939453124998
1.384130859375
1.2955078125
1.235888671875
1.2608642578125
1.2624755859374999
1.248779296875
1.264892578125
1.276171875
1.2785888671874999
1.3269287109374999
1.3712402343749999
1.36962890625
1.3994384765624999
1.2640869140625
1.0465576171875
1.02158203125
0.9877441406249999
0.9788818359375
1.0086914062499999
1.1239013671875
1.3317626953125
1.5275390624999998
1.6346923828125
1.7265380859375
1.7764892578125
1.7934082031249998
1.80791015625
1.767626953125
1.7579589843749999
1.7531249999999998
1.735400390625
1.7088134765624998
1.6959228515625
1.6201904296874998
1.8135498046874998
2.0246337890625
2.07216796875
2.11083984375
2.1100341796874997
2.0552490234375
2.0012695312499997
1.6951171875
1.4445556640625
1.300341796875
1.2673095703125
1.2584472656249999
1.232666015625
1.255224609375
1.2802001953125
1.284228515625
1.300341796875
1.3269287109374999
1.3365966796875
1.3720458984375
1.40185546875
1.40830078125
1.077978515625
1.0127197265624999
0.968408203125
0.9635742187499999
0.9966064453125
1.052197265625
1.2447509765625
1.50498046875
1.6185791015625
1.6959228515625
1.7507080078125
1.7821289062499999
1.8022705078124999
1.7909912109375
1.7660156249999999
1.7539306640624999
1.72412109375
1.7088134765624998
1.6878662109375
1.667724609375
1.66611328125
2.0359130859375
2.0971435546875
2.101171875
2.1132568359375
2.0818359374999997
2.0584716796875
1.7088134765624998
1.4598632812499999
1.3510986328124999
1.2777832031249998
1.255224609375
1.2576416015624998
1.24716796875
1.2568359375
1.2826171874999999
1.3075927734375
1.332568359375
1.340625
1.348681640625
1.3752685546874999
1.42119140625
1.1384033203125
1.0239990234375
0.9877441406249999
0.978076171875
0.9982177734375
1.0433349609375
1.22138671875
1.42119140625
1.5734619140625
1.6935058593749999
1.738623046875
1.77568359375
1.8095214843749998
1.780517578125
1.7724609375
1.740234375
1.7096191406249999
1.7200927734375
1.7080078125
1.6959228515625
1.6403320312499998
1.944873046875
2.08505859375
2.1100341796874997
2.1084228515625
2.083447265625
2.047998046875
1.8699462890624998
1.5517089843749998
1.348681640625
1.2866455078124999
1.27294921875
1.2286376953125
1.219775390625
1.2721435546875
1.2898681640624998
1.3188720703124999
1.313232421875
1.3510986328124999
1.364794921875
1.3792968749999999
1.46630859375
1.1545166015625
1.0449462890624999
1.0030517578125
0.9933837890624999
0.9651855468749999
0.9796874999999999
1.1158447265625
1.4058837890625
1.5847412109374999
1.6693359374999999
1.7378173828124999
1.7603759765625
1.7958251953125
1.7974365234374998
1.7764892578125
1.78857421875
1.7668212890625
1.72412109375
1.6806152343749998
1.6669189453125
1.5654052734375
1.9279541015625
2.0842529296875
2.1140624999999997
2.1205078125
2.0971435546875
2.0552490234375
1.893310546875
1.5758789062499998
1.4066894531249998
1.3349853515624999
1.2673095703125
1.2568359375
1.2463623046874999
1.2447509765625
1.2866455078124999
1.2947021484374999
1.303564453125
1.3333740234375
1.353515625
1.368017578125
1.4445556640625
1.26005859375
1.0634765625
1.0256103515625
0.97646484375
0.9724365234375
1.00224609375
1.1255126953124999
1.340625
1.5364013671874999
1.6685302734374998
1.7096191406249999
1.7490966796874998
1.767626953125
1.7845458984375
1.791796875
1.7571533203124998
1.7297607421874999
1.7265380859375
1.7007568359374998
1.6733642578124999
1.6008544921874999
1.7926025390625
2.07216796875
2.1116455078125
2.126953125
2.0947265625
2.0600830078125
2.0020751953125
1.6967285156249998
1.409912109375
1.313232421875
1.2769775390625
1.2584472656249999
1.248779296875
1.2536132812499998
1.2721435546875
1.287451171875
1.31162109375
1.332568359375
1.3446533203125
1.35673828125
1.3825195312499998
1.3043701171875
1.0642822265625
1.01513671875
0.9796874999999999
0.9724365234375
1.010302734375
1.0650878906249999
1.3043701171875
1.4864501953125
1.6008544921874999
1.7208984374999998
1.7426513671875
1.7772949218749998
1.812744140625
1.7958251953125
1.767626953125
1.8062988281249999
1.7523193359375
1.7120361328125
1.6725585937499998
1.6072998046875
1.7410400390624998
1.9996582031249999
2.077001953125
2.128564453125
2.1277587890625
2.0874755859375
2.03994140625
1.7410400390624998
1.4800048828124999
1.3180664062499998
1.2576416015624998
1.24072265625
1.2270263671875
1.2528076171875
1.2802001953125
1.2777832031249998
1.30517578125
1.3212890625
1.3414306640625
1.3623779296874998
1.3873535156249999
1.4236083984374999
1.1271240234375
1.0167480468749999
1.00224609375
0.9821044921875
0.9877441406249999
1.045751953125
1.2189697265625
1.4800048828124999
1.6169677734374999
1.6935058593749999
1.7450683593749998
1.77568359375
1.7942138671874999
1.76279296875
1.7781005859374999
1.77890625
1.748291015625
1.7249267578124998
1.6725585937499998
1.6524169921874998
1.6048828124999999
2.0052978515624997
2.07861328125
2.0818359374999997
2.101171875
2.0818359374999997
2.0689453125
1.8739746093749998
1.5122314453124999
1.3664062499999998
1.3043701171875
1.2592529296875
1.2350830078125
1.2318603515625
1.268115234375
1.2858398437499998
1.3075927734375
1.3333740234375
1.3494873046875
1.361572265625
1.3801025390625
1.4397216796874999
1.1674072265625
1.0368896484374999
0.9877441406249999
0.9635742187499999
0.97001953125
1.03125
1.2076904296875
1.3929931640625
1.5799072265624998
1.6991455078125
1.7249267578124998
1.7555419921875
1.7974365234374998
1.7652099609374998
1.770849609375
1.7652099609374998
1.7450683593749998
1.7176757812499999
1.706396484375
1.6588623046875
1.6242187499999998
1.920703125
2.083447265625
2.102783203125
2.0939208984374997
2.075390625
2.0584716796875
1.9182861328124998
1.6040771484374998
1.3575439453125
1.281005859375
1.2616699218749998
1.2560302734375
1.239111328125
1.2753662109375
1.281005859375
1.2987304687499999
1.316455078125
1.3446533203125
1.368017578125
1.377685546875
1.4501953125
1.2938964843749998
1.0352783203125
0.9877441406249999
0.9732421874999999
0.984521484375
1.0368896484374999
1.1416259765624999
1.3027587890624999
1.529150390625
1.6435546875
1.7257324218749999
1.7660156249999999
1.7934082031249998
1.786962890625
1.7764892578125
1.7490966796874998
1.7442626953125
1.7329833984374998
1.7047851562499998
1.67578125
1.5984375
1.8820312499999998
2.064111328125
2.093115234375
2.11083984375
2.1060058593749997
2.0649169921875
2.018994140625
1.6137451171875
1.4155517578124999
1.332568359375
1.27939453125
1.2616699218749998
1.2568359375
1.264892578125
1.264892578125
1.2802001953125
1.300341796875
1.3237060546875
1.3583496093749998
1.3744628906249998
1.4364990234375
1.32451171875
1.08603515625
1.0046630859374999
0.9869384765625
0.9796874999999999
1.0143310546875
1.132763671875
1.2979248046874998
1.4791992187499998
1.6290527343749999
1.6830322265625
1.7337890624999999
1.8014648437499998
1.786962890625
1.780517578125
1.754736328125
1.7450683593749998
1.7313720703125
1.71123046875
1.703173828125
1.6411376953124999
1.754736328125
2.02060546875
2.0826416015625
2.115673828125
2.102783203125
2.0689453125
2.022216796875
1.7370117187499998
1.4389160156249998
1.3317626953125
1.276171875
1.2463623046874999
1.232666015625
1.24716796875
1.2656982421874998
1.297119140625
1.3188720703124999
1.327734375
1.3494873046875
1.351904296875
1.3825195312499998
1.4308593749999998
1.0868408203125
1.01513671875
0.994189453125
0.9756591796874999
0.9917724609374999
1.0417236328125
1.2882568359375
1.458251953125
1.5839355468749998
1.6588623046875
1.75634765625
1.8103271484374999
1.8183837890624999
1.8062988281249999
1.7974365234374998
1.7507080078125
1.7152587890625
1.6991455078125
1.687060546875
1.6612792968749999
1.716064453125
2.0004638671875
2.0818359374999997
2.1084228515625
2.1084228515625
2.0947265625
2.0439697265625
1.7781005859374999
1.5009521484375
1.36962890625
1.2834228515625
1.2560302734375
1.248779296875
1.24716796875
1.26328125
1.2834228515625
1.3156494140625
1.32451171875
1.3470703124999999
1.3575439453125
1.3792968749999999
1.4550292968749998
1.184326171875
1.0086914062499999
0.9917724609374999
0.9853271484374999
0.9877441406249999
1.0256103515625
1.18271484375
1.3873535156249999
1.590380859375
1.6854492187499999
1.7313720703125
1.799853515625
1.803076171875
1.803076171875
1.767626953125
1.7410400390624998
1.7313720703125
1.722509765625
1.6822265625
1.67578125
1.59521484375
1.972265625
2.0842529296875
2.1205078125
2.1301757812499997
2.0939208984374997
2.05927734375
1.9150634765624999
1.522705078125
1.3551269531249999
1.2906738281249999
1.2656982421874998
1.2616699218749998
1.2536132812499998
1.2665039062499999
1.2785888671874999
1.27939453125
1.313232421875
1.3575439453125
1.353515625
1.3744628906249998
1.4413330078125
1.1931884765625
1.0336669921875
1.023193359375
0.9732421874999999
0.9901611328125
1.0159423828125
1.1617675781249999
1.3712402343749999
1.5412353515625
1.6725585937499998
1.7249267578124998
1.764404296875
1.799853515625
1.7934082031249998
1.7813232421874998
1.780517578125
1.7394287109375
1.7370117187499998
1.714453125
1.6773925781249999
1.603271484375
1.8699462890624998
2.0633056640625
2.1019775390624997
2.101171875
2.099560546875
2.054443359375
1.9384277343749998
1.6169677734374999
1.4316650390624999
1.2979248046874998
1.2689208984375
1.2495849609374998
1.2431396484375
1.26005859375
1.27294921875
1.3019531249999998
1.31162109375
1.3398193359375
1.340625
1.36962890625
1.4268310546874998
1.3212890625
1.0248046874999999
0.9869384765625
0.9982177734375
0.992578125
1.029638671875
1.10859375
1.3043701171875
1.5267333984375
1.6242187499999998
1.69833984375
1.7603759765625
1.7926025390625
1.7982421874999999
1.7797119140625
1.7668212890625
1.748291015625
1.7289550781249998
1.7088134765624998
1.690283203125
1.62744140625
1.8175781249999998
2.035107421875
2.096337890625
2.1309814453125
2.135009765625
2.0778076171874997
2.0391357421875
1.65
1.4284423828125
1.3204833984375
1.255224609375
1.2536132812499998
1.239111328125
1.2503906249999999
1.2753662109375
1.2963134765625
1.30517578125
1.3470703124999999
1.3470703124999999
1.3631835937499999
1.3954101562499999
1.368017578125
1.0916748046875
1.0086914062499999
0.9651855468749999
0.9676025390624999
0.994189453125
1.0803955078125
1.268115234375
1.4759765624999999
1.6201904296874998
1.7039794921875
1.7458740234374999
1.783740234375
1.8022705078124999
1.8014648437499998
1.7829345703125
1.7499023437499999
1.7297607421874999
1.699951171875
1.69189453125
1.6572509765624999
1.6927001953124998
1.9996582031249999
2.102783203125
2.1205078125
2.1164794921875
2.080224609375
2.0568603515625
1.7893798828124998
1.458251953125
1.3365966796875
1.27939453125
1.2503906249999999
1.2536132812499998
1.2705322265624999
1.5557373046874998
1.7990478515625
1.8788085937499999
1.880419921875
1.7813232421874998
1.7378173828124999
1.6201904296874998
2.576513671875
2.5797363281249996
2.204296875
1.7555419921875
1.1778808593749999
0.6187499999999999
0.019335937499999997
0.023364257812499997
0.020947265625
0.33273925781249997
0.7395996093749999
1.3704345703124998
1.783740234375
2.1382324218749997
2.4846679687499997
2.599072265625
2.591015625
2.4774169921875
2.3066162109375
2.0737792968749997
1.8119384765625
0.0958740234375
0.022558593749999998
0.15227050781249998
0.5132080078125
1.094091796875
1.7257324218749999
2.73603515625
3.0228515624999996
3.0236572265625
2.850439453125
2.255859375
1.7692382812499998
1.353515625
0.79921875
0.6550048828124999
0.34562988281249996
0.24492187499999998
0.42619628906249996
0.5736328125
0.7951904296875
1.0868408203125
2.3050048828125
2.808544921875
2.9398681640624997
2.91650390625
2.66513671875
2.167236328125
1.03447265625
0.16274414062499998
0.0217529296875
0.0217529296875
0.0201416015625
0.2860107421875
0.5567138671874999
1.1367919921875
1.53720703125
1.9432617187499999
2.4234375
2.6353271484375
2.7183105468749997
2.7392578125
2.6949462890625
1.522705078125
0.7863281249999999
0.684814453125
0.5712158203125
0.7323486328125
1.187548828125
1.8328857421875
3.0220458984375
3.0268798828124996
3.0244628906249997
2.9583984374999996
2.69736328125
2.2856689453125
1.8224121093749999
1.47275390625
0.88623046875
0.6332519531249999
0.46970214843749997
0.36577148437499996
0.3585205078125
0.41813964843749996
0.9514892578124999
2.209130859375
2.3235351562499997
2.479833984375
2.4524414062499997
2.22041015625
1.699951171875
0.7871337890625
0.020947265625
0.0217529296875
0.015307617187499999
0.07734374999999999
0.1248779296875
0.45358886718749997
0.8113037109375
1.3462646484374998
1.7926025390625
2.1100341796874997
2.4822509765625
2.6514404296875
2.7803466796875
1.7740722656249999
1.1061767578125
0.9796874999999999
0.8056640625
0.8104980468749999
0.9966064453125
1.40830078125
3.011572265625
3.0244628906249997
3.0268798828124996
3.0244628906249997
2.9173095703125
2.70703125
2.3855712890625
1.9432617187499999
1.59521484375
1.2310546875
0.9112060546874999
0.71865234375
0.6195556640625
0.5099853515625
0.5824951171875
1.9827392578124998
2.3009765625
2.5080322265625
2.5837646484374996
2.39765625
2.0689453125
0.9007324218749999
0.14421386718749998
0.0217529296875
0.0217529296875
0.02578125
0.054785156249999994
0.2102783203125
0.605859375
0.9821044921875
1.2560302734375
1.716064453125
2.0455810546874997
2.27197265625
2.5096435546875
2.5048095703124997
0.95068359375
0.8185546874999999
0.6123046875
0.6227783203124999
0.7661865234374999
1.248779296875
2.5209228515624997
3.0244628906249997
3.0236572265625
3.0228515624999996
3.0220458984375
2.776318359375
2.4693603515625
2.164013671875
2.0012695312499997
1.4542236328125
1.19560546875
0.9869384765625
0.8274169921875
0.7412109375
0.6469482421874999
1.7587646484375
2.2566650390625
2.450830078125
2.5555664062499996
2.4604980468749997
2.1358154296875
1.2568359375
0.5091796875
0.017724609375
0.020947265625
0.0249755859375
0.0169189453125
0.09023437499999999
0.31340332031249996
0.7557128906249999
1.0973144531249999
1.416357421875
1.791796875
2.07216796875
2.231689453125
2.3887939453125
0.9345703125
0.7476562499999999
0.6114990234375
0.5551025390625
0.6856201171874999
1.052197265625
1.8296630859374998
3.018017578125
3.02607421875
3.0188232421874996
3.0220458984375
2.9237548828124997
2.7384521484374997
2.518505859375
2.3162841796875
1.9392333984374999
1.6588623046875
1.364794921875
1.164990234375
0.9885498046875
0.837890625
1.7426513671875
2.26552734375
2.383154296875
2.5168945312499997
2.502392578125
2.2840576171875
1.416357421875
0.53818359375
0.019335937499999997
0.0201416015625
0.0201416015625
0.022558593749999998
0.0217529296875
0.2199462890625
0.38510742187499997
0.6413085937499999
1.026416015625
1.3365966796875
1.7217041015624999
1.9311767578124999
2.212353515625
1.3027587890624999
0.7210693359375
0.668701171875
0.555908203125
0.6332519531249999
1.010302734375
1.5533203125
3.0228515624999996
3.0236572265625
3.0236572265625
3.0252685546875
3.0228515624999996
2.9656494140625
2.7521484375
2.5813476562499997
2.263916015625
2.0826416015625
1.8232177734375
1.577490234375
1.2423339843749999
1.0570312499999999
1.1295410156249999
2.334814453125
2.4500244140625
2.544287109375
2.4596923828125
2.2107421874999997
1.7829345703125
0.8604492187499999
0.019335937499999997
0.020947265625
0.020947265625
0.024169921875
0.0217529296875
0.116015625
0.269091796875
0.533349609375
0.84111328125
1.069921875
1.4074951171874999
1.5863525390625
1.7974365234374998
1.8296630859374998
0.49951171875
0.5196533203125
0.4447265625
0.5865234375
0.7669921875
1.2383056640624999
2.882666015625
3.0252685546875
3.0236572265625
3.0228515624999996
3.0236572265625
3.021240234375
2.9221435546874996
2.6683593749999996
2.4065185546875
2.2324951171875
1.928759765625
1.6951171875
1.47275390625
1.2310546875
0.9869384765625
2.2623046875
2.518505859375
2.6103515625
2.6594970703125
2.463720703125
1.9400390625
0.97646484375
0.0829833984375
0.022558593749999998
0.020947265625
0.019335937499999997
0.0217529296875
0.0169189453125
0.15146484375
0.39396972656249996
0.6501708984375
1.055419921875
1.3478759765625
1.6040771484374998
1.912646484375
2.0246337890625
0.5244873046874999
0.44230957031249996
0.28439941406249997
0.278759765625
0.46970214843749997
1.026416015625
2.2268554687499997
3.0228515624999996
3.021240234375
3.0244628906249997
3.018017578125
3.0220458984375
2.9455078125
2.8391601562499997
2.8174072265624996
2.3718749999999997
2.1221191406249997
1.8578613281249998
1.577490234375
1.37607421875
1.1964111328125
2.2026855468749997
2.69736328125
2.808544921875
2.8681640625
2.7505371093749997
2.405712890625
1.53720703125
0.36899414062499997
0.0249755859375
0.020947265625
0.0201416015625
0.0217529296875
0.0201416015625
0.049145507812499996
0.175634765625
0.44956054687499997
0.7065673828125
0.8741455078125
1.184326171875
1.4606689453125
1.7072021484375
0.2553955078125
0.12810058593749998
0.057202148437499996
0.033032226562499996
0.28439941406249997
0.6356689453125
1.329345703125
3.02607421875
3.0228515624999996
3.0244628906249997
3.0252685546875
3.029296875
3.0236572265625
2.9455078125
2.81982421875
2.6063232421875
2.454052734375
2.1615966796875
1.91748046875
1.7015624999999999
1.4630859374999998
2.3452880859375
2.8012939453124996
2.9011962890625
2.9946533203124996
2.818212890625
2.5982666015625
1.7039794921875
0.7379882812499999
0.017724609375
0.020947265625
0.020947265625
0.0249755859375
0.0217529296875
0.013696289062499999
0.1732177734375
0.24331054687499998
0.59619140625
0.7959960937499999
1.0401123046875
1.20849609375
1.393798828125
0.48662109374999996
0.018530273437499998
0.017724609375
0.0217529296875
0.19013671875
0.4890380859375
1.229443359375
2.785986328125
3.0244628906249997
3.0220458984375
3.0244628906249997
3.027685546875
3.0220458984375
2.9720947265624997
2.9559814453124997
2.784375
2.53623046875
2.2985595703125
2.0633056640625
1.7958251953125
1.638720703125
1.651611328125
2.969677734375
2.9479248046874997
3.01318359375
3.01318359375
2.6723876953124996
2.205908203125
1.229443359375
0.0169189453125
0.015307617187499999
0.020947265625
0.020947265625
0.020947265625
0.020947265625
0.024169921875
0.12246093749999999
0.375439453125
0.554296875
0.8056640625
1.0505859375
1.171435546875
1.3382080078124998
0.0201416015625
0.020947265625
0.0201416015625
0.1506591796875
0.3907470703125
0.8580322265625
2.093115234375
3.0228515624999996
3.0236572265625
3.0228515624999996
3.0268798828124996
3.0228515624999996
3.0228515624999996
2.9801513671874997
2.8109619140624997
2.6780273437499997
2.462109375
2.1624023437499997
1.9408447265625
1.7748779296875
1.5887695312499999
2.874609375
3.0228515624999996
3.0236572265625
3.0236572265625
2.882666015625
2.5313964843749996
1.4284423828125
0.5220703125
0.018530273437499998
0.020947265625
0.020947265625
0.022558593749999998
0.020947265625
0.019335937499999997
0.020947265625
0.15629882812499998
0.48017578125
0.6348632812499999
0.8467529296874999
1.010302734375
1.2463623046874999
0.020947265625
0.020947265625
0.022558593749999998
0.020947265625
0.2384765625
0.6211669921874999
1.9682373046875
3.0228515624999996
3.0220458984375
3.018017578125
3.0236572265625
3.0252685546875
3.0228515624999996
3.0123779296874997
3.02607421875
2.7408691406249996
2.534619140625
2.3654296875
2.209130859375
2.0109375
1.8667236328124999
2.7078369140625
3.0228515624999996
3.0244628906249997
3.01962890625
2.9237548828124997
2.5418701171875
1.7015624999999999
0.8403076171874999
0.020947265625
0.020947265625
0.024169921875
0.0217529296875
0.027392578124999997
0.023364257812499997
0.020947265625
0.107958984375
0.193359375
0.3746337890625
0.6050537109374999
0.878173828125
1.0650878906249999
0.130517578125
0.0201416015625
0.023364257812499997
0.01611328125
0.2038330078125
0.5712158203125
1.21494140625
2.8456054687499996
3.0220458984375
3.02607421875
3.0204345703124997
3.0043212890624997
3.021240234375
3.027685546875
3.021240234375
2.8222412109375
2.711865234375
2.582958984375
2.3718749999999997
2.160791015625
1.9263427734374998
1.8796142578125
3.0204345703124997
3.0228515624999996
3.0236572265625
2.9720947265624997
2.7158935546875
2.2614990234375
0.9369873046874999
0.120849609375
0.020947265625
0.0201416015625
0.0201416015625
0.019335937499999997
0.0217529296875
0.0217529296875
0.023364257812499997
0.1998046875
0.32951660156249996
0.5986083984375
0.8354736328125
1.0288330078124999
0.14501953125
0.023364257812499997
0.0201416015625
0.017724609375
0.09426269531249999
0.3762451171875
0.82177734375
2.666748046875
3.0228515624999996
3.0236572265625
3.02607421875
3.01962890625
3.0236572265625
3.0228515624999996
3.0228515624999996
2.9253662109375
2.8109619140624997
2.5555664062499996
2.3968505859375
2.199462890625
1.835302734375
1.50498046875
2.6997802734375
2.8174072265624996
2.9011962890625
2.8858886718749996
2.66513671875
2.14306640625
1.2536132812499998
0.330322265625
0.0201416015625
0.02578125
0.0201416015625
0.022558593749999998
0.0217529296875
0.018530273437499998
0.1087646484375
0.1554931640625
0.378662109375
0.5857177734375
0.775048828125
1.0642822265625
1.200439453125
0.0201416015625
0.022558593749999998
0.020947265625
0.1426025390625
0.301318359375
0.8693115234375
2.0085205078125
3.021240234375
3.0228515624999996
3.0220458984375
3.02607421875
3.0252685546875
3.018017578125
3.0244628906249997
3.0236572265625
2.7593994140625
2.6756103515625
2.528173828125
2.341259765625
2.1164794921875
1.9859619140625
2.9108642578125
3.0244628906249997
3.0236572265625
3.0228515624999996
2.882666015625
2.5821533203125
1.6975341796874999
0.825
0.0169189453125
0.0201416015625
0.020947265625
0.022558593749999998
0.0201416015625
0.0217529296875
0.0322265625
0.1377685546875
0.2650634765625
0.4278076171875
0.7242919921875
0.968408203125
1.1545166015625
0.2537841796875
0.020947265625
0.0201416015625
0.020947265625
0.08701171875
0.35771484374999996
1.04736328125
2.682861328125
3.0204345703124997
3.0220458984375
3.0244628906249997
3.0268798828124996
3.0228515624999996
3.0220458984375
2.9946533203124996
2.785986328125
2.6764160156249996
2.518505859375
2.31708984375
2.1052001953125
1.9714599609374999
2.7223388671874997
3.0220458984375
3.0236572265625
3.0252685546875
2.9688720703125
2.6981689453124997
2.2751953124999997
0.9482666015625
0.088623046875
0.020947265625
0.020947265625
0.0201416015625
0.023364257812499997
0.022558593749999998
0.0169189453125
0.0346435546875
0.19658203124999998
0.3230712890625
0.488232421875
0.7065673828125
0.8596435546875
0.0217529296875
0.0201416015625
0.02578125
0.01611328125
0.14018554687499998
0.330322265625
0.8104980468749999
2.5950439453125
3.0220458984375
3.021240234375
3.0244628906249997
3.0204345703124997
3.0228515624999996
3.0228515624999996
3.021240234375
3.0043212890624997
2.8850830078125
2.695751953125
2.550732421875
2.3823486328125
2.0874755859375
2.04638671875
3.0220458984375
3.0252685546875
3.0252685546875
2.9970703125
2.7851806640624996
2.2131591796875
1.1964111328125
0.301318359375
0.017724609375
0.018530273437499998
0.0201416015625
0.0249755859375
0.0201416015625
0.0217529296875
0.0217529296875
0.1426025390625
0.31259765624999997
0.49387207031249997
0.652587890625
0.9112060546874999
0.9974121093749999
0.0201416015625
0.0281982421875
0.023364257812499997
0.019335937499999997
0.14824218749999998
0.710595703125
2.0133544921874997
3.027685546875
3.0204345703124997
3.0236572265625
3.0244628906249997
3.02607421875
3.0188232421874996
3.0228515624999996
3.02607421875
2.763427734375
2.6385498046875
2.4556640625
2.2453857421875
2.13662109375
1.9440673828125
3.0252685546875
3.0220458984375
3.01962890625
3.0204345703124997
2.8850830078125
2.5716796874999996
1.6814208984374999
0.5422119140625
0.018530273437499998
0.019335937499999997
0.0217529296875
0.0217529296875
0.020947265625
0.019335937499999997
0.0201416015625
0.08942871093749999
0.27634277343749997
0.3923583984375
0.6380859375
0.800830078125
1.0094970703125
0.0201416015625
0.018530273437499998
0.0217529296875
0.0217529296875
0.16838378906249998
0.4809814453125
1.0948974609375
2.931005859375
3.0228515624999996
3.0268798828124996
3.0236572265625
3.0252685546875
3.0228515624999996
3.027685546875
3.0236572265625
2.889111328125
2.7787353515624997
2.5958496093749996
2.4903076171875
2.31064453125
2.047998046875
2.8609130859375
3.0252685546875
3.0236572265625
3.027685546875
2.9463134765624996
2.73603515625
1.770849609375
0.9853271484374999
0.1007080078125
0.024169921875
0.020947265625
0.0169189453125
0.0201416015625
0.0169189453125
0.024169921875
0.020947265625
0.21269531249999998
0.33354492187499996
0.5019287109375
0.7097900390624999
0.9402099609375
0.045117187499999996
0.019335937499999997
0.022558593749999998
0.020947265625
0.2022216796875
0.4278076171875
1.010302734375
2.679638671875
3.021240234375
3.0220458984375
3.0236572265625
3.0236572265625
3.027685546875
3.01962890625
3.0220458984375
3.018017578125
2.7827636718749997
2.6764160156249996
2.4983642578125
2.2236328125
1.9835449218749999
2.0044921875
3.0244628906249997
3.0228515624999996
3.0236572265625
3.0236572265625
2.7102539062499997
2.31064453125
1.3148437499999999
0.1345458984375
0.020947265625
0.0249755859375
0.020947265625
0.0201416015625
0.020947265625
0.015307617187499999
0.03544921875
0.1393798828125
0.270703125
0.4406982421875
0.668701171875
0.897509765625
0.926513671875
0.015307617187499999
0.0201416015625
0.020947265625
0.0201416015625
0.3117919921875
0.7291259765625
1.9553466796874999
3.02607421875
3.0220458984375
3.0228515624999996
3.0228515624999996
3.0244628906249997
3.0204345703124997
3.0188232421874996
2.8979736328124996
2.8061279296875
2.6514404296875
2.43955078125
2.26875
2.1148681640625
1.957763671875
3.0236572265625
3.021240234375
3.0228515624999996
3.0284912109374997
2.9237548828124997
2.5467041015625
1.4147460937499998
0.46083984375
0.0201416015625
0.0217529296875
0.0217529296875
0.014501953125
0.024169921875
0.0249755859375
0.0201416015625
0.095068359375
0.246533203125
0.4632568359375
0.6791748046874999
0.8805908203124999
1.1239013671875
0.020947265625
0.0249755859375
0.018530273437499998
0.019335937499999997
0.09748535156249999
0.3955810546875
1.7088134765624998
2.900390625
3.0204345703124997
3.01962890625
3.01962890625
3.021240234375
3.021240234375
3.0228515624999996
3.0220458984375
2.8754150390624997
2.7448974609374996
2.6240478515624996
2.4749999999999996
2.26875
2.0906982421875
2.9463134765624996
3.0220458984375
3.01962890625
3.0228515624999996
2.9076416015624997
2.5273681640624996
1.7072021484375
0.8596435546875
0.0362548828125
0.0169189453125
0.0169189453125
0.01611328125
0.014501953125
0.0201416015625
0.0169189453125
0.059619140625
0.2360595703125
0.39316406249999997
0.5502685546875
0.7541015624999999
0.91201171875
0.019335937499999997
0.0217529296875
0.020947265625
0.020947265625
0.12810058593749998
0.43505859375
1.0513916015625
2.6159912109374996
3.01962890625
3.0252685546875
3.0268798828124996
3.0228515624999996
3.0252685546875
3.0252685546875
3.0284912109374997
2.8560791015625
2.785986328125
2.6611083984375
2.5209228515624997
2.3082275390625
2.14951171875
2.2308837890624997
3.0228515624999996
3.0236572265625
3.0244628906249997
2.9978759765625
2.7755126953125
2.3638183593749997
1.3873535156249999
0.15629882812499998
0.0201416015625
0.023364257812499997
0.0249755859375
0.0201416015625
0.022558593749999998
0.023364257812499997
0.020947265625
0.17724609375
0.29326171875
0.5260986328125
0.733154296875
0.8531982421875
0.7621582031249999
0.023364257812499997
0.0201416015625
0.0201416015625
0.091845703125
0.3069580078125
0.8129150390625
2.00771484375
3.021240234375
3.0236572265625
3.0228515624999996
3.0228515624999996
3.0228515624999996
3.01962890625
3.0188232421874996
2.914892578125
2.8037109375
2.6748046875
2.4749999999999996
2.2905029296875
2.0713623046875
1.8659179687499998
3.0268798828124996
3.0228515624999996
3.0244628906249997
3.01962890625
2.850439453125
2.5652343749999997
1.4364990234375
0.53818359375
0.01611328125
0.015307617187499999
0.0201416015625
0.022558593749999998
0.01611328125
0.020947265625
0.0201416015625
0.020947265625
0.15871582031249998
0.26748046875
0.459228515625
0.6727294921875
0.90234375
0.020947265625
0.0217529296875
0.026586914062499998
0.037060546874999996
0.23203125
0.7500732421874999
1.9360107421875
3.01962890625
3.0236572265625
3.0228515624999996
3.0188232421874996
3.029296875
3.0236572265625
3.0228515624999996
3.0244628906249997
2.882666015625
2.715087890625
2.5289794921874997
2.367041015625
2.0496093749999997
1.8385253906249999
1.5734619140625
0.7541015624999999
0.11843261718749999
0.019335937499999997
0.020947265625
0.022558593749999998
0.020947265625
0.022558593749999998
0.017724609375
0.020947265625
0.020947265625
0.18046874999999998
0.4390869140625
0.7565185546875
1.21494140625
1.6765869140624998
2.031884765625
2.3404541015625
2.5813476562499997
2.89072265625
3.0220458984375
1.9231201171874999
1.1939941406249999
0.9966064453125
0.9079833984375
1.05380859375
1.3478759765625
1.9537353515625
3.0252685546875
3.0188232421874996
3.0228515624999996
3.0228515624999996
2.8447998046875
2.6691650390625
2.3984619140625
1.998046875
1.5992431640625
1.3631835937499999
1.123095703125
0.8902587890625
0.8282226562499999
1.3494873046875
2.5757080078124996
3.0236572265625
3.0284912109374997
2.9785400390624996
2.7142822265624997
2.2856689453125
1.5605712890624999
0.043505859375
0.024169921875
0.0217529296875
0.017724609375
0.033837890625
0.146630859375
0.399609375
0.8032470703125
1.1512939453125
1.554931640625
1.8900878906249998
2.0496093749999997
2.1922119140625
2.28486328125
1.2310546875
0.5551025390625
0.49790039062499997
0.4962890625
0.7694091796875
1.1754638671875
2.0439697265625
3.0228515624999996
3.0236572265625
3.027685546875
2.900390625
2.5797363281249996
2.230078125
1.638720703125
1.3156494140625
1.0731445312499999
0.8064697265624999
0.6775634765624999
0.5687988281249999
0.5357666015625
0.5712158203125
0.839501953125
2.1696533203125
2.4854736328125
2.5305908203125
2.4500244140625
2.0761962890625
1.5001464843749999
0.5091796875
0.017724609375
0.0217529296875
0.020947265625
0.2135009765625
0.5534912109375
1.0352783203125
1.525927734375
2.0633056640625
2.4258544921875
2.6441894531249996
2.856884765625
2.8931396484375
2.7964599609375
2.5450927734374997
0.8572265625
0.65419921875
0.6098876953125
0.9031494140624999
1.255224609375
1.85302734375
3.01318359375
3.021240234375
3.0244628906249997
2.900390625
2.4298828125
2.0117431640625
1.6121337890624998
1.0167480468749999
0.6324462890625
0.42216796874999996
0.29648437499999997
0.2457275390625
0.36174316406249996
0.53818359375
0.82177734375
2.276806640625
2.616796875
2.7078369140625
2.6014892578124997
2.3307861328125
1.7249267578124998
0.4793701171875
0.020947265625
0.020947265625
0.02578125
0.31904296875
0.8000244140624999
1.22783203125
1.85625
2.222021484375
2.534619140625
2.7505371093749997
2.7021972656249997
2.6441894531249996
2.51044921875
2.1954345703125
0.5365722656249999
0.32548828124999996
0.33273925781249997
0.688037109375
1.11181640625
1.9529296875
3.0228515624999996
3.0236572265625
3.0268798828124996
2.7779296875
2.273583984375
1.7418457031249999
1.11181640625
0.7234863281249999
0.514013671875
0.2199462890625
0.201416015625
0.3472412109375
0.6493652343749999
1.0610595703124999
1.3261230468749998
2.52978515625
3.021240234375
3.0010986328125
2.7102539062499997
2.0165771484375
1.268115234375
0.1119873046875
0.020947265625
0.022558593749999998
0.11923828125
0.6034423828125
1.0111083984375
1.5960205078124998
2.1205078125
2.5201171875
2.7787353515624997
2.8238525390625
2.70703125
2.447607421875
2.1889892578125
1.8683349609375
0.6034423828125
2.173681640625
2.244580078125
2.0326904296875
2.0625
2.0552490234375
2.0246337890625
1.8054931640624998
1.4961181640624999
1.319677734375
1.2423339843749999
1.1964111328125
1.1980224609374999
1.1980224609374999
1.2189697265625
1.2286376953125
1.2608642578125
1.284228515625
1.3156494140625
1.32451171875
1.3390136718749999
1.4397216796874999
1.2109130859375
1.007080078125
0.95390625
0.9410156249999999
0.9490722656249999
0.9740478515625
1.13115234375
1.329345703125
1.5122314453124999
1.674169921875
1.716064453125
1.7603759765625
1.803076171875
1.8014648437499998
1.7813232421874998
1.7781005859374999
1.751513671875
1.714453125
1.69189453125
1.67578125
1.5984375
1.8409423828125
2.1180908203124997
2.1293701171875
2.1535400390625
2.13662109375
2.07216796875
1.9762939453125
1.6508056640625
1.3865478515624998
1.2890625
1.2576416015624998
1.2383056640624999
1.2286376953125
1.24716796875
1.2665039062499999
1.2826171874999999
1.3011474609375
1.3148437499999999
1.3583496093749998
1.3801025390625
1.384130859375
1.3559326171875
1.03125
0.984521484375
0.9635742187499999
0.9571289062499999
0.9901611328125
1.0634765625
1.24716796875
1.506591796875
1.63388671875
1.71123046875
1.7635986328125
1.8046875
1.8062988281249999
1.79501953125
1.7764892578125
1.7619873046874999
1.7362060546875
1.7128417968749998
1.6854492187499999
1.6773925781249999
1.8143554687499999
2.067333984375
2.1180908203124997
2.1470947265625
2.125341796875
2.10439453125
2.054443359375
1.6959228515625
1.4389160156249998
1.3269287109374999
1.2544189453124999
1.2342773437499999
1.2342773437499999
1.248779296875
1.2608642578125
1.27294921875
1.2906738281249999
1.3269287109374999
1.3382080078124998
1.3631835937499999
1.380908203125
1.384130859375
1.1061767578125
1.0078857421875
0.9643798828125
0.9571289062499999
0.9740478515625
1.06025390625
1.2455566406249998
1.4252197265625
1.6242187499999998
1.703173828125
1.751513671875
1.77568359375
1.8046875
1.7974365234374998
1.7797119140625
1.7684326171875
1.7450683593749998
1.7233154296875
1.6991455078125
1.6806152343749998
1.6814208984374999
1.9875732421874999
2.1140624999999997
2.1301757812499997
2.135009765625
2.1060058593749997
2.05927734375
1.835302734375
1.5460693359375
1.33740234375
1.276171875
1.2439453125
1.22783203125
1.2415283203124998
1.2544189453124999
1.2777832031249998
1.297119140625
1.3083984375
1.3237060546875
1.3430419921874999
1.3688232421875
1.4252197265625
1.1351806640625
0.992578125
0.968408203125
0.9563232421875
0.9651855468749999
1.0086914062499999
1.148876953125
1.4147460937499998
1.5662109375
1.683837890625
1.7499023437499999
1.7748779296875
1.8151611328125
1.8119384765625
1.7853515624999998
1.7660156249999999
1.74345703125
1.7200927734375
1.6991455078125
1.6910888671875
1.67578125
1.9400390625
2.0987548828125
2.1333984375
2.14306640625
2.1180908203124997
2.0810302734375
1.8796142578125
1.561376953125
1.3913818359374999
1.27294921875
1.2479736328125
1.2262207031249999
1.2383056640624999
1.2439453125
1.2584472656249999
1.2785888671874999
1.3140380859374998
1.3341796874999998
1.3390136718749999
1.3623779296874998
1.42119140625
1.2576416015624998
1.0119140625
0.9724365234375
0.9482666015625
0.9498779296875
0.9998291015624999
1.1239013671875
1.3285400390625
1.5573486328125
1.6765869140624998
1.72412109375
1.764404296875
1.8151611328125
1.8111328125
1.791796875
1.7692382812499998
1.7442626953125
1.7176757812499999
1.7023681640625
1.6854492187499999
1.638720703125
1.843359375
2.093115234375
2.1245361328125
2.1519287109375
2.1245361328125
2.08505859375
1.98837890625
1.5944091796875
1.40185546875
1.2987304687499999
1.2640869140625
1.2447509765625
1.2383056640624999
1.2374999999999998
1.2689208984375
1.2850341796875
1.2938964843749998
1.3253173828125
1.348681640625
1.3551269531249999
1.364794921875
1.2737548828124998
1.045751953125
0.9804931640625
0.9603515625
0.9490722656249999
0.984521484375
1.044140625
1.3075927734375
1.4953124999999998
1.6282470703124998
1.7257324218749999
1.770849609375
1.7974365234374998
1.8062988281249999
1.7926025390625
1.7829345703125
1.76279296875
1.7345947265625
1.7168701171874998
1.6830322265625
1.6556396484375
1.7829345703125
2.044775390625
2.13662109375
2.15595703125
2.1374267578125
2.1084228515625
2.0117431640625
1.7249267578124998
1.4655029296875
1.3108154296874999
1.2624755859374999
1.2342773437499999
1.2455566406249998
1.239111328125
1.2560302734375
1.2705322265624999
1.2979248046874998
1.3180664062499998
1.3349853515624999
1.3543212890624998
1.3623779296874998
1.3833251953124999
1.0626708984375
0.9933837890624999
0.9603515625
0.9450439453124999
0.9740478515625
1.039306640625
1.206884765625
1.4880615234374999
1.6234130859375
1.699951171875
1.7571533203124998
1.796630859375
1.812744140625
1.8014648437499998
1.783740234375
1.751513671875
1.7474853515625
1.7128417968749998
1.7007568359374998
1.67900390625
1.6701416015625
2.0214111328124997
2.1164794921875
2.1382324218749997
2.1406494140625
2.1076171875
2.064111328125
1.7523193359375
1.4840332031249999
1.348681640625
1.2753662109375
1.239111328125
1.2366943359375
1.2350830078125
1.2455566406249998
1.2721435546875
1.2890625
1.3124267578125
1.3309570312499999
1.3583496093749998
1.3664062499999998
1.3986328124999998
1.16337890625
1.0006347656249999
0.9643798828125
0.9651855468749999
0.9595458984374999
1.0256103515625
1.2044677734375
1.3921875
1.5645996093749999
1.6943115234375
1.7426513671875
1.7772949218749998
1.8167724609375
1.8095214843749998
1.796630859375
1.764404296875
1.75634765625
1.7208984374999998
1.7088134765624998
1.6798095703125
1.6612792968749999
1.925537109375
2.1132568359375
2.1261474609374997
2.13662109375
2.11083984375
2.0625
1.909423828125
1.59521484375
1.3502929687499998
1.2858398437499998
1.2528076171875
1.2342773437499999
1.2439453125
1.248779296875
1.2584472656249999
1.2898681640624998
1.3100097656249998
1.3269287109374999
1.3414306640625
1.3623779296874998
1.4107177734374998
1.1819091796874999
0.9998291015624999
0.9716308593749999
0.9498779296875
0.9659912109375
0.9998291015624999
1.1158447265625
1.3857421875
1.5541259765625
1.662890625
1.7466796875
1.7877685546875
1.8006591796875
1.8046875
1.7845458984375
1.77568359375
1.7523193359375
1.73056640625
1.7152587890625
1.690283203125
1.6443603515624998
1.8820312499999998
2.0842529296875
2.125341796875
2.141455078125
2.125341796875
2.08505859375
1.941650390625
1.6218017578125
1.4139404296875
1.3067871093749999
1.2536132812499998
1.2318603515625
1.232666015625
1.2528076171875
1.2568359375
1.2769775390625
1.3027587890624999
1.3220947265624998
1.3341796874999998
1.3599609375
1.40185546875
1.2987304687499999
1.06025390625
0.978076171875
0.9547119140625
0.9595458984374999
0.9901611328125
1.094091796875
1.2866455078124999
1.4848388671875
1.6451660156249999
1.72734375
1.764404296875
1.803076171875
1.8087158203125
1.8046875
1.7764892578125
1.7555419921875
1.7289550781249998
1.7184814453125
1.683837890625
1.667724609375
1.7595703125
2.075390625
2.1245361328125
2.1519287109375
2.135009765625
2.096337890625
2.023828125
1.7555419921875
1.429248046875
1.3083984375
1.26005859375
1.2254150390625
1.2318603515625
1.235888671875
1.2560302734375
1.2802001953125
1.3011474609375
1.31162109375
1.3382080078124998
1.3607666015625
1.37607421875
1.3301513671874998
1.0731445312499999
0.9933837890624999
0.9571289062499999
0.945849609375
0.968408203125
1.018359375
1.2697265624999998
1.4703369140625
1.6153564453125
1.7233154296875
1.7579589843749999
1.7829345703125
1.8143554687499999
1.8038818359375
1.786962890625
1.7652099609374998
1.7442626953125
1.719287109375
1.7088134765624998
1.67578125
1.7265380859375
2.0133544921874997
2.1084228515625
2.14951171875
2.14951171875
2.118896484375
2.038330078125
1.796630859375
1.5041748046874999
1.316455078125
1.26328125
1.2334716796875
1.2342773437499999
1.2439453125
1.2423339843749999
1.2656982421874998
1.29228515625
1.3108154296874999
1.34384765625
1.3527099609375
1.3720458984375
1.4195800781249999
1.1738525390624999
0.9933837890624999
0.9659912109375
0.9571289062499999
0.961962890625
1.0256103515625
1.171435546875
1.3825195312499998
1.5984375
1.683837890625
1.7507080078125
1.791796875
1.8143554687499999
1.8095214843749998
1.7877685546875
1.76279296875
1.748291015625
1.7337890624999999
1.7055908203124999
1.6886718749999998
1.6483886718749998
1.9875732421874999
2.1140624999999997
2.1325927734375
2.1438720703125
2.1245361328125
2.0649169921875
1.9311767578124999
1.5275390624999998
1.364794921875
1.2834228515625
1.2374999999999998
1.239111328125
1.2399169921875
1.2455566406249998
1.268115234375
1.2802001953125
1.3043701171875
1.3333740234375
1.3430419921874999
1.3664062499999998
1.4195800781249999
1.1996337890625
1.0191650390625
0.968408203125
0.95390625
0.95390625
1.0030517578125
1.1657958984374999
1.3599609375
1.5355957031249998
1.6814208984374999
1.7474853515625
1.7724609375
1.8071044921875
1.8143554687499999
1.7926025390625
1.7700439453124999
1.7539306640624999
1.72412109375
1.7055908203124999
1.6781982421875
1.65966796875
1.8715576171875
2.09150390625
2.1333984375
2.1503173828124997
2.14306640625
2.067333984375
1.957763671875
1.6483886718749998
1.3688232421875
1.2890625
1.2503906249999999
1.2431396484375
1.2350830078125
1.2447509765625
1.2528076171875
1.2834228515625
1.3043701171875
1.3237060546875
1.3462646484374998
1.3704345703124998
1.3833251953124999
1.3261230468749998
1.0376953125
0.9756591796874999
0.9627685546875
0.952294921875
0.9861328125
1.0755615234375
1.3341796874999998
1.5194824218749998
1.6443603515624998
1.7184814453125
1.7764892578125
1.7990478515625
1.8167724609375
1.7974365234374998
1.7829345703125
1.7539306640624999
1.73056640625
1.7136474609374999
1.6935058593749999
1.6765869140624998
1.8369140625
2.0649169921875
2.128564453125
2.144677734375
2.1358154296875
2.0971435546875
1.98193359375
1.6693359374999999
1.4364990234375
1.3156494140625
1.255224609375
1.2479736328125
1.2366943359375
1.2455566406249998
1.255224609375
1.271337890625
1.3019531249999998
1.3229003906249999
1.3398193359375
1.348681640625
1.3712402343749999
1.3430419921874999
1.095703125
0.9837158203124999
0.9514892578124999
0.9579345703125
0.9708251953125
1.0634765625
1.2455566406249998
1.4413330078125
1.6411376953124999
1.7120361328125
1.7595703125
1.8054931640624998
1.8119384765625
1.8062988281249999
1.7853515624999998
1.7603759765625
1.732177734375
1.7265380859375
1.69189453125
1.6798095703125
1.7015624999999999
2.0560546875
2.126953125
2.14306640625
2.1470947265625
2.1035888671875
2.0576660156249997
1.819189453125
1.45341796875
1.3229003906249999
1.268115234375
1.2318603515625
1.2383056640624999
1.2350830078125
1.248779296875
1.2777832031249998
1.2890625
1.3229003906249999
1.3349853515624999
1.3478759765625
1.364794921875
1.3784912109374998
1.116650390625
0.9933837890624999
0.9716308593749999
0.9563232421875
0.9651855468749999
1.0086914062499999
1.229443359375
1.4348876953124998
1.5863525390625
1.6806152343749998
1.7579589843749999
1.786962890625
1.8199951171875
1.8038818359375
1.7926025390625
1.7668212890625
1.74345703125
1.7297607421874999
1.7023681640625
1.6878662109375
1.69189453125
1.9666259765624998
2.1068115234375
2.1487060546875
2.1454833984375
2.1205078125
2.0576660156249997
1.851416015625
1.5428466796875
1.3768798828125
1.2656982421874998
1.2383056640624999
1.2286376953125
1.2366943359375
1.2576416015624998
1.2592529296875
1.2947021484374999
1.3100097656249998
1.3285400390625
1.3446533203125
1.3656005859375
1.4244140625
1.2270263671875
0.9893554687499999
0.97646484375
0.95390625
0.952294921875
1.0030517578125
1.1384033203125
1.3462646484374998
1.577490234375
1.6604736328124998
1.7362060546875
1.7821289062499999
1.8199951171875
1.8095214843749998
1.7990478515625
1.7732666015624998
1.7635986328125
1.7410400390624998
1.6959228515625
1.6967285156249998
1.6371093749999999
1.9384277343749998
2.0987548828125
2.118896484375
2.1390380859375
2.125341796875
2.083447265625
1.9714599609374999
1.5654052734375
1.3905761718749998
1.2866455078124999
1.2495849609374998
1.2350830078125
1.229443359375
1.2503906249999999
1.2616699218749998
1.2769775390625
1.3083984375
1.3285400390625
1.3430419921874999
1.3599609375
1.4219970703125
1.2568359375
1.0497802734375
0.9796874999999999
0.9547119140625
0.9571289062499999
0.9796874999999999
1.1190673828125
1.3237060546875
1.5114257812499998
1.6693359374999999
1.7289550781249998
1.7684326171875
1.7982421874999999
1.80791015625
1.803076171875
1.7813232421874998
1.7619873046874999
1.732177734375
1.7208984374999998
1.683837890625
1.6411376953124999
1.8199951171875
2.0576660156249997
2.128564453125
2.1462890624999997
2.135009765625
2.0890869140625
2.002880859375
1.7023681640625
1.400244140625
1.3011474609375
1.2495849609374998
1.235888671875
1.2383056640624999
1.2334716796875
1.2544189453124999
1.284228515625
1.3172607421875
1.3188720703124999
1.3390136718749999
1.3591552734374999
1.3768798828125
1.3712402343749999
1.0570312499999999
0.98291015625
0.9603515625
0.9571289062499999
0.974853515625
1.04736328125
1.2334716796875
1.4953124999999998
1.6290527343749999
1.7080078125
1.767626953125
1.796630859375
1.82724609375
1.80791015625
1.77890625
1.754736328125
1.74345703125
1.7184814453125
1.69189453125
