1.4203857421875
1.71123046875
1.8892822265625
1.964208984375
2.012548828125
2.0214111328124997
2.01416015625
1.9569580078125
1.9343994140624998
1.8812255859375
1.835302734375
1.791796875
1.754736328125
1.722509765625
2.0415527343749997
2.431494140625
2.4766113281249997
2.45888671875
2.410546875
2.3033935546874997
2.0117431640625
1.4445556640625
1.11181640625
0.9990234375
0.978076171875
1.003857421875
1.0320556640625
1.0828125
1.1222900390625
1.155322265625
1.2173583984375
1.2479736328125
1.2737548828124998
1.3075927734375
1.3398193359375
1.2592529296875
0.813720703125
0.6703125
0.6751464843749999
0.69287109375
0.760546875
0.958740234375
1.2834228515625
1.606494140625
1.8731689453125
1.95615234375
1.9996582031249999
2.0197998046875
2.0109375
1.9730712890625
1.93359375
1.8715576171875
1.8312744140625
1.8006591796875
1.75634765625
1.7289550781249998
1.832080078125
2.3388427734375
2.4846679687499997
2.462109375
2.43310546875
2.31064453125
2.1704589843749997
1.7362060546875
1.1529052734375
1.010302734375
0.9804931640625
0.9885498046875
1.0239990234375
1.0610595703124999
1.1045654296875
1.15048828125
1.1939941406249999
1.235888671875
1.2624755859374999
1.2995361328125
1.3285400390625
1.3575439453125
0.833056640625
0.6670898437499999
0.6743408203125
0.6936767578124999
0.7468505859375
0.863671875
1.1480712890625
1.5839355468749998
1.819189453125
1.9303710937499998
1.998046875
2.012548828125
2.02705078125
1.9867675781249998
1.9392333984374999
1.8900878906249998
1.848193359375
1.8022705078124999
1.7692382812499998
1.7394287109375
1.812744140625
2.3195068359374997
2.5048095703124997
2.4685546874999997
2.4355224609375
2.3646240234375
2.24619140625
1.7120361328125
1.2342773437499999
1.0497802734375
0.9812988281249999
0.984521484375
1.013525390625
1.042529296875
1.100537109375
1.135986328125
1.173046875
1.232666015625
1.2673095703125
1.2914794921875
1.3212890625
1.3656005859375
1.0159423828125
0.6985107421875
0.6654785156249999
0.6815917968749999
0.717041015625
0.8024414062499999
1.1174560546874999
1.456640625
1.7418457031249999
1.93681640625
1.98193359375
2.0004638671875
2.02060546875
2.0004638671875
1.9521240234375
1.912646484375
1.8570556640625
1.8183837890624999
1.780517578125
1.7378173828124999
1.706396484375
2.11083984375
2.4854736328125
2.4693603515625
2.4468017578125
2.3879882812499997
2.2437744140625
1.9867675781249998
1.43408203125
1.06025390625
0.98291015625
0.9812988281249999
1.0119140625
1.0376953125
1.0836181640625
1.1150390625
1.1722412109375
1.203662109375
1.2568359375
1.2890625
1.3148437499999999
1.3446533203125
1.0626708984375
0.7081787109375
0.668701171875
0.6775634765624999
0.7154296874999999
0.7959960937499999
0.9853271484374999
1.4244140625
1.7120361328125
1.8892822265625
1.9650146484375
2.012548828125
2.022216796875
2.0149658203125
1.9505126953124998
1.9102294921874998
1.867529296875
1.8296630859374998
1.78857421875
1.7587646484375
1.7249267578124998
2.05927734375
2.4443847656249997
2.47822265625
2.4556640625
2.39765625
2.3017822265625
2.0359130859375
1.4993408203124998
1.135986328125
0.9990234375
0.974853515625
1.0014404296875
1.0256103515625
1.0723388671875
1.1206787109375
1.1537109374999999
1.203662109375
1.2544189453124999
1.281005859375
1.3067871093749999
1.3462646484374998
1.2415283203124998
0.7919677734374999
0.6590332031249999
0.6662841796875
0.6936767578124999
0.752490234375
0.9611572265624999
1.2906738281249999
1.6153564453125
1.8820312499999998
1.972265625
2.0036865234375
2.0117431640625
2.0214111328124997
1.9827392578124998
1.9327880859375
1.8699462890624998
1.832080078125
1.7909912109375
1.7531249999999998
1.72734375
1.8344970703124999
2.328369140625
2.4766113281249997
2.463720703125
2.4274658203125
2.318701171875
2.1632080078125
1.7297607421874999
1.152099609375
1.0119140625
0.978076171875
0.9901611328125
1.0272216796875
1.05380859375
1.0981201171875
1.1529052734375
1.1947998046875
1.2310546875
1.2721435546875
1.2995361328125
1.335791015625
1.353515625
0.8290283203125
0.6638671875
0.6791748046874999
0.69287109375
0.7484619140625
0.863671875
1.152099609375
1.5944091796875
1.8248291015625
1.9327880859375
1.9948242187499998
2.0117431640625
2.0310791015625
1.972265625
1.931982421875
1.8868652343749999
1.843359375
1.8038818359375
1.76279296875
1.7329833984374998
1.8119384765625
2.3050048828125
2.4919189453125
2.466943359375
2.4322998046874997
2.358984375
2.2373291015625
1.7579589843749999
1.2584472656249999
1.0481689453125
0.9716308593749999
0.9837158203124999
1.0223876953125
1.0562255859375
1.1013427734374999
1.1287353515625
1.1802978515625
1.2262207031249999
1.2656982421874998
1.2930908203125
1.32451171875
1.3631835937499999
1.007080078125
0.6896484374999999
0.678369140625
0.6743408203125
0.7218749999999999
0.845947265625
1.1214843749999999
1.4679199218749999
1.735400390625
1.93359375
1.9795166015624999
2.0012695312499997
2.0302734375
1.996435546875
1.95615234375
1.896533203125
1.8578613281249998
1.8087158203125
1.77890625
1.74345703125
1.7176757812499999
2.1197021484375
2.4870849609374996
2.463720703125
2.4516357421875
2.3630126953125
2.2510253906249997
1.9827392578124998
1.43408203125
1.0562255859375
0.9877441406249999
0.9732421874999999
1.0159423828125
1.0328613281249999
1.0787841796875
1.1384033203125
1.1770751953125
1.2157470703125
1.2423339843749999
1.2777832031249998
1.3043701171875
1.3390136718749999
1.0433349609375
0.704150390625
0.6703125
0.6759521484375
0.71865234375
0.797607421875
0.9893554687499999
1.442138671875
1.7265380859375
1.8884765625
1.96904296875
2.0085205078125
2.023828125
2.002880859375
1.94970703125
1.8989501953124999
1.87236328125
1.815966796875
1.7877685546875
1.754736328125
1.7257324218749999
2.0697509765624997
2.44599609375
2.4766113281249997
2.4556640625
2.39765625
2.2993652343749997
2.0359130859375
1.4953124999999998
1.1335693359374999
1.0094970703125
0.97001953125
0.9974121093749999
1.02802734375
1.0763671875
1.110205078125
1.152099609375
1.213330078125
1.2511962890625
1.2697265624999998
1.3108154296874999
1.3446533203125
1.232666015625
0.78955078125
0.6654785156249999
0.6775634765624999
0.68642578125
0.7532958984375
0.968408203125
1.3027587890624999
1.625830078125
1.8828369140624999
1.9634033203124999
1.9972412109375
2.0230224609375
2.0165771484375
1.964208984375
1.9352050781249999
1.8731689453125
1.8280517578125
1.7958251953125
1.75634765625
1.722509765625
1.8465820312499999
2.33642578125
2.486279296875
2.4645263671874997
2.4322998046874997
2.312255859375
2.16884765625
1.7184814453125
1.1480712890625
1.0191650390625
0.9821044921875
0.9901611328125
1.02802734375
1.0562255859375
1.0932861328124999
1.1561279296875
1.1915771484375
1.2262207031249999
1.2640869140625
1.3043701171875
1.3333740234375
1.3446533203125
0.8056640625
0.6598388671875
0.6743408203125
0.6952880859374999
0.7541015624999999
0.8693115234375
1.1593505859375
1.6137451171875
1.82724609375
1.9392333984374999
2.0004638671875
2.015771484375
2.0254394531249997
1.9843505859375
1.9352050781249999
1.883642578125
1.848193359375
1.796630859375
1.76279296875
1.740234375
1.819189453125
2.312255859375
2.479833984375
2.4685546874999997
2.4298828125
2.3477050781249997
2.2349121093749997
1.76279296875
1.2721435546875
1.0497802734375
0.9772705078124999
0.9893554687499999
1.0062744140625
1.0401123046875
1.09892578125
1.1367919921875
1.174658203125
1.224609375
1.2624755859374999
1.287451171875
1.3229003906249999
1.3599609375
0.9877441406249999
0.6904541015625
0.6735351562499999
0.6832031249999999
0.7210693359375
0.8531982421875
1.13115234375
1.477587890625
1.748291015625
1.9352050781249999
1.9787109374999998
2.0044921875
2.0278564453125
1.993212890625
1.941650390625
1.8989501953124999
1.8538330078124998
1.8135498046874998
1.7821289062499999
1.7450683593749998
1.716064453125
2.1261474609374997
2.4749999999999996
2.4725830078124997
2.4500244140625
2.36220703125
2.244580078125
1.98193359375
1.4429443359374998
1.0634765625
0.994189453125
0.9692138671874999
1.018359375
1.036083984375
1.0812011718749999
1.1126220703125
1.17626953125
1.216552734375
1.248779296875
1.2882568359375
1.316455078125
1.34384765625
1.181103515625
0.6936767578124999
0.6711181640624999
0.6807861328125
0.710595703125
0.80888671875
0.9933837890624999
1.34384765625
1.7297607421874999
1.8908935546874999
1.9746826171874998
2.0101318359375
2.0302734375
2.00771484375
1.9505126953124998
1.8973388671875
1.8618896484374998
1.8240234375
1.7853515624999998
1.7579589843749999
1.722509765625
2.086669921875
2.454052734375
2.486279296875
2.454052734375
2.399267578125
2.2953369140624997
2.1325927734375
1.4655029296875
1.1142333984375
0.992578125
0.97646484375
1.0086914062499999
1.029638671875
1.0836181640625
1.1190673828125
1.155322265625
1.1939941406249999
1.2415283203124998
1.2785888671874999
1.3027587890624999
1.3390136718749999
1.21494140625
0.7822998046874999
0.6614501953124999
0.684814453125
0.69287109375
0.7621582031249999
0.9708251953125
1.3148437499999999
1.6427490234375
1.8071044921875
1.96904296875
1.998046875
2.0109375
2.0109375
1.9698486328125
1.925537109375
1.8683349609375
1.8328857421875
1.799853515625
1.7668212890625
1.72412109375
1.864306640625
2.3525390625
2.4749999999999996
2.4556640625
2.4169921875
2.3033935546874997
2.1615966796875
1.714453125
1.22783203125
1.0127197265624999
0.978076171875
0.9861328125
1.0239990234375
1.0578369140625
1.1029541015625
1.158544921875
1.1939941406249999
1.235888671875
1.2584472656249999
1.3043701171875
1.3301513671874998
1.3430419921874999
0.797607421875
0.6662841796875
0.6735351562499999
0.6872314453124999
0.7629638671875
0.8709228515624999
1.174658203125
1.6177734375
1.82724609375
1.9352050781249999
1.9867675781249998
2.012548828125
2.0197998046875
1.9867675781249998
1.931982421875
1.896533203125
1.8498046874999998
1.7958251953125
1.7587646484375
1.7249267578124998
1.72734375
2.3275634765624997
2.4886962890624997
2.4685546874999997
2.4290771484375
2.3517333984374997
2.2244384765625
1.7555419921875
1.2608642578125
1.0465576171875
0.9804931640625
0.9861328125
1.007080078125
1.04736328125
1.1053710937499999
1.1303466796875
1.1722412109375
1.2254150390625
1.268115234375
1.2906738281249999
1.316455078125
1.3551269531249999
0.97001953125
0.6832031249999999
0.6614501953124999
0.6840087890625
0.7234863281249999
0.816943359375
1.1400146484375
1.4888671875
1.7531249999999998
1.928759765625
1.9859619140625
2.015771484375
2.0302734375
1.9940185546875
1.9472900390624999
1.9037841796875
1.8465820312499999
1.8167724609375
1.78857421875
1.740234375
1.7176757812499999
2.1309814453125
2.45888671875
2.462109375
2.4556640625
2.3912109375
2.2437744140625
1.9787109374999998
1.4397216796874999
1.0546142578125
0.992578125
0.9804931640625
1.007080078125
1.02802734375
1.09248046875
1.1190673828125
1.1706298828125
1.2157470703125
1.2495849609374998
1.2769775390625
1.319677734375
1.3510986328124999
1.171435546875
0.6904541015625
0.6638671875
0.678369140625
0.7210693359375
0.8080810546874999
1.0086914062499999
1.3583496093749998
1.7450683593749998
1.8957275390625
1.9706542968749998
2.006103515625
2.0230224609375
2.002880859375
1.9658203125
1.9078125
1.87236328125
1.8264404296874999
1.7901855468749999
1.7531249999999998
1.7217041015624999
2.08828125
2.4500244140625
2.4766113281249997
2.4596923828125
2.3912109375
2.2921142578125
2.1293701171875
1.4735595703125
1.1214843749999999
1.0086914062499999
0.9724365234375
1.0062744140625
1.026416015625
1.0610595703124999
1.11181640625
1.16015625
1.2012451171875
1.2423339843749999
1.276171875
1.300341796875
1.34384765625
1.1996337890625
0.775048828125
0.6695068359374999
0.6823974609375
0.694482421875
0.7581298828124999
0.8846191406249999
1.3253173828125
1.6363037109374998
1.8506103515624999
1.9650146484375
1.9948242187499998
2.0165771484375
2.012548828125
1.9746826171874998
1.92392578125
1.8820312499999998
1.82724609375
1.7926025390625
1.7635986328125
1.72412109375
1.8876708984375
2.36220703125
2.4806396484374997
2.4661376953125
2.4242431640624997
2.3436767578124997
2.1567626953125
1.6798095703125
1.22138671875
1.007080078125
0.978076171875
0.9869384765625
1.0143310546875
1.0570312499999999
1.1013427734374999
1.1375976562499999
1.1915771484375
1.239111328125
1.264892578125
1.3075927734375
1.3317626953125
1.3422363281249998
0.920068359375
0.6662841796875
0.668701171875
0.671923828125
0.75732421875
0.8749511718749999
1.184326171875
1.522705078125
1.8369140625
1.93681640625
1.9875732421874999
2.0109375
2.0294677734374997
1.9875732421874999
1.9303710937499998
1.893310546875
1.848193359375
1.80791015625
1.767626953125
1.7362060546875
1.7337890624999999
2.3323974609375
2.486279296875
2.4677490234375
2.4322998046874997
2.3436767578124997
2.225244140625
1.9198974609375
1.2479736328125
1.029638671875
0.9756591796874999
0.9837158203124999
1.0167480468749999
1.04736328125
1.1053710937499999
1.1384033203125
1.1867431640625
1.2173583984375
1.2592529296875
1.2866455078124999
1.319677734375
1.3478759765625
0.95390625
0.6711181640624999
0.6695068359374999
0.6823974609375
0.7307373046875
0.82177734375
1.155322265625
1.4912841796874998
1.764404296875
1.9327880859375
1.9891845703125
1.998046875
2.0230224609375
1.9988525390624998
1.9400390625
1.896533203125
1.8465820312499999
1.815966796875
1.7829345703125
1.751513671875
1.7208984374999998
2.1615966796875
2.4629150390625
2.47177734375
2.4451904296875
2.38154296875
2.2365234375
1.957763671875
1.413134765625
1.1061767578125
0.978076171875
0.9812988281249999
1.0006347656249999
1.0409179687499999
1.0787841796875
1.1271240234375
1.1641845703125
1.2157470703125
1.239111328125
1.2834228515625
1.319677734375
1.348681640625
1.1617675781249999
0.6912597656249999
0.6703125
0.6759521484375
0.7017333984374999
0.8113037109375
1.0062744140625
1.3551269531249999
1.7474853515625
1.9037841796875
1.972265625
1.996435546875
2.02705078125
2.0052978515624997
1.9617919921875
1.9062011718749998
1.8578613281249998
1.832080078125
1.780517578125
1.7539306640624999
1.719287109375
1.8699462890624998
2.454052734375
2.4806396484374997
2.45888671875
2.389599609375
2.296142578125
2.14306640625
1.4526123046875
1.1158447265625
0.9982177734375
0.9756591796874999
0.994189453125
1.02158203125
1.06025390625
1.1150390625
1.1617675781249999
1.2012451171875
1.2511962890625
1.27294921875
1.3043701171875
1.332568359375
1.19560546875
0.7637695312499999
0.6638671875
0.6807861328125
0.6920654296875
0.7621582031249999
0.9007324218749999
1.3261230468749998
1.6411376953124999
1.8304687499999999
1.964208984375
1.9867675781249998
2.0173828124999997
2.018994140625
1.9730712890625
1.9263427734374998
1.883642578125
1.8312744140625
1.7974365234374998
1.7587646484375
1.7297607421874999
1.8828369140624999
2.3678466796874997
2.4790283203124996
2.4596923828125
2.4169921875
2.3517333984374997
2.151123046875
1.6814208984374999
1.22783203125
1.0078857421875
0.9716308593749999
0.9796874999999999
1.026416015625
1.0650878906249999
1.1013427734374999
1.1400146484375
1.2020507812499999
1.2254150390625
1.2640869140625
1.3067871093749999
1.3341796874999998
1.340625
0.9095947265625
0.66064453125
0.6711181640624999
0.6896484374999999
0.7613525390625
0.8926757812499999
1.19560546875
1.5380126953125
1.8393310546875
1.9489013671875
2.0020751953125
2.0109375
2.00771484375
1.980322265625
1.9223144531249998
1.883642578125
1.8417480468749998
1.8071044921875
1.751513671875
1.719287109375
1.732177734375
2.3436767578124997
2.4967529296874997
2.4709716796875
2.4282714843749997
2.3501220703125
2.230078125
1.8900878906249998
1.2270263671875
1.0376953125
0.9877441406249999
0.9885498046875
1.0159423828125
1.0449462890624999
1.1110107421875
1.132763671875
1.1698242187499999
1.216552734375
1.26005859375
1.300341796875
1.3237060546875
1.3502929687499998
0.958740234375
0.6840087890625
0.6767578125
0.6856201171874999
0.7259033203124999
0.8314453125
1.171435546875
1.5162597656249999
1.7531249999999998
1.9271484374999999
1.973876953125
2.0020751953125
2.023828125
1.9859619140625
1.9529296875
1.9021728515624998
1.84013671875
1.796630859375
1.7660156249999999
1.75634765625
1.7329833984374998
2.157568359375
2.4709716796875
2.4629150390625
2.447607421875
2.3791259765625
2.2268554687499997
1.9537353515625
1.4066894531249998
1.095703125
0.9869384765625
0.9861328125
1.0223876953125
1.055419921875
1.0836181640625
1.1255126953124999
1.1706298828125
1.213330078125
1.2479736328125
1.2802001953125
1.3180664062499998
1.3575439453125
1.1561279296875
0.69287109375
0.6711181640624999
0.6815917968749999
0.6985107421875
0.8201660156249999
1.0376953125
1.377685546875
1.7523193359375
1.896533203125
1.9706542968749998
2.0004638671875
2.0262451171875
1.9972412109375
1.973876953125
1.9150634765624999
1.8755859375
1.8377197265624998
1.7716552734375
1.7442626953125
1.7128417968749998
1.9295654296875
2.4419677734375
2.4604980468749997
2.43955078125
2.3436767578124997
2.2614990234375
2.1140624999999997
1.4558349609374999
1.1239013671875
1.00546875
0.9796874999999999
1.0159423828125
1.044140625
1.08603515625
1.1319580078125
1.1617675781249999
1.1915771484375
1.2310546875
1.2753662109375
1.297119140625
1.335791015625
1.1964111328125
0.7661865234374999
0.668701171875
0.6872314453124999
0.7049560546875
0.7790771484375
0.8991210937499999
1.3390136718749999
1.6411376953124999
1.844970703125
1.9666259765624998
1.989990234375
1.998046875
1.9972412109375
1.9593749999999999
1.9231201171874999
1.88525390625
1.8538330078124998
1.8046875
1.7587646484375
1.7055908203124999
1.880419921875
2.3662353515625
2.4613037109375
2.4548583984375
2.41376953125
2.3396484374999997
2.14306640625
1.6749755859375
1.206884765625
1.0256103515625
0.9998291015624999
1.026416015625
1.0892578124999999
1.1134277343749999
1.13115234375
1.1625732421875
1.203662109375
1.229443359375
1.2503906249999999
1.2447509765625
1.2302490234374999
1.2342773437499999
0.7420166015624999
0.6485595703125
0.7081787109375
0.7146240234375
0.78955078125
0.9007324218749999
1.20849609375
1.554931640625
1.8715576171875
2.0004638671875
2.0334960937499997
2.051220703125
2.0214111328124997
1.9972412109375
1.9537353515625
1.8828369140624999
1.8103271484374999
1.7313720703125
1.6951171875
1.6886718749999998
1.7152587890625
2.31064453125
2.4613037109375
2.450830078125
2.4443847656249997
2.3533447265625
2.209130859375
1.8949218749999999
1.268115234375
1.0594482421875
0.9990234375
1.0119140625
1.0562255859375
1.0828125
1.119873046875
1.1512939453125
1.1923828125
1.22138671875
1.2665039062499999
1.2834228515625
1.2785888671874999
1.3156494140625
0.9232910156249999
0.6695068359374999
0.6670898437499999
0.7017333984374999
0.7565185546875
0.8427246093749999
1.174658203125
1.5243164062499999
1.7797119140625
1.9392333984374999
1.9835449218749999
2.00771484375
2.00771484375
1.9625976562499998
1.9078125
1.8981445312499998
1.861083984375
1.7901855468749999
1.780517578125
1.7740722656249999
1.7362060546875
2.1591796875
2.441162109375
2.431494140625
2.410546875
2.3452880859375
2.1906005859374997
1.9505126953124998
1.4332763671875
1.110205078125
0.9877441406249999
0.984521484375
1.0094970703125
1.0256103515625
1.0771728515624999
1.1287353515625
1.1947998046875
1.2286376953125
1.2608642578125
1.287451171875
1.32451171875
1.3704345703124998
1.1295410156249999
0.6695068359374999
0.6727294921875
0.6590332031249999
0.684814453125
0.816943359375
1.0272216796875
1.380908203125
1.754736328125
1.9029785156249999
1.972265625
2.0069091796875
2.0326904296875
2.0133544921874997
1.973876953125
1.9134521484375
1.8828369140624999
1.8473876953125
1.7893798828124998
1.7660156249999999
1.7168701171874998
1.9263427734374998
2.4468017578125
2.4468017578125
2.441162109375
2.3718749999999997
2.2760009765625
2.112451171875
1.45341796875
1.119873046875
1.0062744140625
0.9812988281249999
1.013525390625
1.0336669921875
1.071533203125
1.119873046875
1.158544921875
1.1939941406249999
1.2374999999999998
1.300341796875
1.3220947265624998
1.3422363281249998
1.18916015625
0.7726318359375
0.64453125
0.6598388671875
0.708984375
0.7806884765625
0.9176513671875
1.3414306640625
1.6371093749999999
1.82724609375
1.948095703125
1.9811279296875
2.0294677734374997
2.0906982421875
2.0625
1.94970703125
1.8506103515624999
1.7619873046874999
1.7047851562499998
1.65
1.658056640625
1.912646484375
2.3960449218749997
2.4741943359375
2.4749999999999996
2.4419677734375
2.3468994140625
2.1567626953125
1.6991455078125
1.2560302734375
1.03125
0.9837158203124999
0.9901611328125
1.0248046874999999
1.087646484375
1.1021484375
1.110205078125
1.1778808593749999
1.232666015625
1.255224609375
1.2938964843749998
1.3551269531249999
1.3591552734374999
0.8958984375
0.6807861328125
0.7065673828125
0.72509765625
0.7774658203125
0.910400390625
1.206884765625
1.5436523437499998
1.8151611328125
1.9150634765624999
1.9972412109375
2.04638671875
2.0326904296875
1.9779052734375
1.9456787109375
1.8739746093749998
1.8361083984375
1.8038818359375
1.7700439453124999
1.732177734375
1.7329833984374998
2.3517333984374997
2.4830566406249996
2.44599609375
2.434716796875
2.3323974609375
2.2179931640625
1.9078125
1.2374999999999998
1.0401123046875
0.984521484375
0.9869384765625
1.010302734375
1.042529296875
1.087646484375
1.135986328125
1.1666015625
1.2157470703125
1.27939453125
1.3083984375
1.3317626953125
1.3752685546874999
0.889453125
0.64453125
0.6372802734374999
0.65419921875
0.71220703125
0.8048583984375
1.0417236328125
1.5355957031249998
1.8046875
1.9360107421875
1.9996582031249999
2.0254394531249997
2.0415527343749997
1.993212890625
1.9521240234375
1.9190917968749999
1.8820312499999998
1.8224121093749999
1.7893798828124998
1.7499023437499999
1.72412109375
2.2083251953125
2.5031982421874996
2.486279296875
2.47177734375
2.40087890625
2.3050048828125
1.9795166015624999
1.400244140625
1.0892578124999999
0.961962890625
0.9289306640624999
0.978076171875
1.03125
1.0787841796875
1.1029541015625
1.1496826171874999
1.203662109375
1.2302490234374999
1.2689208984375
1.3011474609375
1.3414306640625
1.077978515625
0.6646728515625
0.6388916015624999
0.6348632812499999
0.6703125
0.7943847656249999
1.0143310546875
1.3865478515624998
1.7047851562499998
1.9400390625
1.9948242187499998
2.0246337890625
2.0552490234375
2.0262451171875
1.9706542968749998
1.9086181640625
1.8707519531249999
1.835302734375
1.8038818359375
1.754736328125
1.703173828125
1.9972412109375
2.52978515625
2.50400390625
2.4903076171875
2.425048828125
2.3203125
2.1148681640625
1.5380126953125
1.0505859375
0.9555175781249999
0.9402099609375
0.978076171875
1.0078857421875
1.0505859375
1.0973144531249999
1.1416259765624999
1.1899658203124999
1.22783203125
1.2689208984375
1.300341796875
1.3261230468749998
1.139208984375
0.6912597656249999
0.6243896484375
0.6703125
0.6888427734375
0.75732421875
0.887841796875
1.3430419921874999
1.65966796875
1.8908935546874999
1.9835449218749999
2.018994140625
2.0326904296875
2.0423583984375
2.0012695312499997
1.9392333984374999
1.8820312499999998
1.8224121093749999
1.7934082031249998
1.7652099609374998
1.7700439453124999
1.9682373046875
2.418603515625
2.4943359375
2.4500244140625
2.3839599609374997
2.2985595703125
2.1035888671875
1.5919921874999998
1.158544921875
1.0111083984375
1.019970703125
1.0328613281249999
1.0497802734375
1.1158447265625
1.1287353515625
1.155322265625
1.232666015625
1.2503906249999999
1.27294921875
1.3148437499999999
1.3430419921874999
1.3656005859375
1.00546875
0.9071777343749999
0.9385986328125
0.93779296875
0.9893554687499999
1.0948974609375
1.3309570312499999
1.5815185546875
1.7821289062499999
1.8232177734375
1.8522216796875
1.8618896484374998
1.85625
1.8369140625
1.82724609375
1.780517578125
1.74345703125
1.7120361328125
1.674169921875
1.65
1.622607421875
2.0197998046875
2.0343017578125
2.0020751953125
1.989990234375
1.928759765625
1.8739746093749998
1.7080078125
1.3728515625
1.2785888671874999
1.2608642578125
1.2673095703125
1.2777832031249998
1.2938964843749998
1.31162109375
1.33740234375
1.3591552734374999
1.3744628906249998
1.397021484375
1.4091064453125
1.4276367187499999
1.4977294921875
1.219775390625
1.15048828125
1.17626953125
1.187548828125
1.2141357421874999
1.2592529296875
1.4147460937499998
1.5565429687499999
1.6435546875
1.6910888671875
1.716064453125
1.722509765625
1.7096191406249999
1.6991455078125
1.6951171875
1.670947265625
1.638720703125
1.638720703125
1.622607421875
1.6129394531249999
1.5517089843749998
1.8409423828125
1.9231201171874999
1.8820312499999998
1.8755859375
1.8409423828125
1.851416015625
1.6572509765624999
1.3873535156249999
1.3237060546875
1.3059814453124998
1.3059814453124998
1.329345703125
1.3333740234375
1.3559326171875
1.3639892578125
1.3986328124999998
1.4219970703125
1.4308593749999998
1.432470703125
1.4574462890625
1.5033691406249998
1.3825195312499998
1.2826171874999999
1.2906738281249999
1.2181640624999999
1.2052734375
1.255224609375
1.2979248046874998
1.4469726562499998
1.6250244140624999
1.6862548828125
1.6927001953124998
1.706396484375
1.7096191406249999
1.7096191406249999
1.6951171875
1.651611328125
1.6330810546874999
1.6242187499999998
1.6129394531249999
1.5984375
1.5476806640624998
1.6822265625
1.8820312499999998
1.8393310546875
1.8385253906249999
1.8095214843749998
1.7764892578125
1.7378173828124999
1.3978271484375
1.3019531249999998
1.3124267578125
1.3229003906249999
1.3390136718749999
1.3543212890624998
1.36962890625
1.3954101562499999
1.3986328124999998
1.4123291015625
1.44052734375
1.4526123046875
1.458251953125
1.4679199218749999
1.3913818359374999
1.2173583984375
1.2415283203124998
1.26328125
1.2721435546875
1.3019531249999998
1.3382080078124998
1.525927734375
1.6266357421875
1.6701416015625
1.690283203125
1.6798095703125
1.6854492187499999
1.6685302734374998
1.6556396484375
1.6435546875
1.6330810546874999
1.6089111328124999
1.6024658203125
1.590380859375
1.558154296875
1.658056640625
1.8828369140624999
1.8199951171875
1.8175781249999998
1.8046875
1.7853515624999998
1.7466796875
1.5082031249999999
1.3591552734374999
1.3083984375
1.3067871093749999
1.3261230468749998
1.3422363281249998
1.3551269531249999
1.3792968749999999
1.40185546875
1.41796875
1.4276367187499999
1.4469726562499998
1.4703369140625
1.47275390625
1.509814453125
1.2109130859375
1.24072265625
1.2697265624999998
1.2697265624999998
1.2938964843749998
1.3285400390625
1.47275390625
1.6427490234375
1.6830322265625
1.6733642578124999
1.6814208984374999
1.7007568359374998
1.699951171875
1.6685302734374998
1.6910888671875
1.641943359375
1.58232421875
1.5702392578125
1.5654052734375
1.5436523437499998
1.5218994140625
1.8884765625
1.8570556640625
1.819189453125
1.8264404296874999
1.783740234375
1.735400390625
1.5275390624999998
1.3559326171875
1.319677734375
1.31162109375
1.33740234375
1.3510986328124999
1.3688232421875
1.3994384765624999
1.4042724609375
1.4203857421875
1.432470703125
1.4445556640625
1.45341796875
1.464697265625
1.542041015625
1.3124267578125
1.2737548828124998
1.316455078125
1.319677734375
1.3027587890624999
1.313232421875
1.41796875
1.5122314453124999
1.5919921874999998
1.662890625
1.670947265625
1.674169921875
1.674169921875
1.65
1.6564453124999998
1.6346923828125
1.590380859375
1.574267578125
1.5782958984375
1.590380859375
1.5017578125
1.7499023437499999
1.812744140625
1.7990478515625
1.8046875
1.7926025390625
1.7603759765625
1.6935058593749999
1.477587890625
1.3639892578125
1.3430419921874999
1.3309570312499999
1.3470703124999999
1.3865478515624998
1.4066894531249998
1.4219970703125
1.4389160156249998
1.4308593749999998
1.445361328125
1.474365234375
1.4590576171874998
1.4896728515625
1.3075927734375
1.2447509765625
1.300341796875
1.3108154296874999
1.2995361328125
1.340625
1.4300537109375
1.5509033203125
1.6048828124999999
1.638720703125
1.6604736328124998
1.65
1.6645019531249998
1.6266357421875
1.6209960937499999
1.6250244140624999
1.6185791015625
1.6024658203125
1.587158203125
1.5839355468749998
1.5404296874999999
1.7088134765624998
1.78857421875
1.7748779296875
1.7853515624999998
1.7724609375
1.7474853515625
1.703173828125
1.4961181640624999
1.3986328124999998
1.3664062499999998
1.3817138671875
1.3833251953124999
1.3913818359374999
1.4058837890625
1.4091064453125
1.4203857421875
1.432470703125
1.442138671875
1.4493896484375
1.4687255859375
1.5001464843749999
1.4501953125
1.3019531249999998
1.313232421875
1.3108154296874999
1.3140380859374998
1.3478759765625
1.3825195312499998
1.4840332031249999
1.5597656249999998
1.6105224609375
1.635498046875
1.6306640625
1.6483886718749998
1.6379150390625
1.6250244140624999
1.6290527343749999
1.6161621093749998
1.6008544921874999
1.5968261718749999
1.5782958984375
1.5517089843749998
1.5992431640625
1.77568359375
1.7539306640624999
1.7700439453124999
1.7748779296875
1.7442626953125
1.764404296875
1.5758789062499998
1.4139404296875
1.3905761718749998
1.3833251953124999
1.38896484375
1.3954101562499999
1.3881591796875
1.4042724609375
1.4219970703125
1.4356933593749999
1.45341796875
1.4622802734375
1.4679199218749999
1.477587890625
1.46953125
1.3027587890624999
1.3083984375
1.3124267578125
1.2930908203125
1.3237060546875
1.3494873046875
1.4840332031249999
1.5726562499999999
1.6081054687499998
1.6129394531249999
1.6322753906249998
1.6403320312499998
1.6306640625
1.6556396484375
1.6459716796875
1.6169677734374999
1.59521484375
1.577490234375
1.5750732421875
1.571044921875
1.5839355468749998
1.7740722656249999
1.7652099609374998
1.7635986328125
1.7700439453124999
1.75634765625
1.7507080078125
1.5863525390625
1.4364990234375
1.3905761718749998
1.4010498046875
1.3954101562499999
1.3921875
1.4219970703125
1.429248046875
1.4123291015625
1.426025390625
1.4155517578124999
1.4348876953124998
1.456640625
1.4783935546875
1.5525146484374999
1.3494873046875
1.3188720703124999
1.3092041015625
1.3188720703124999
1.335791015625
1.3349853515624999
1.4203857421875
1.5162597656249999
1.5919921874999998
1.61455078125
1.6443603515624998
1.64677734375
1.6653076171874999
1.63388671875
1.6153564453125
1.5992431640625
1.6314697265625
1.6153564453125
1.6048828124999999
1.587158203125
1.4872558593749998
1.7329833984374998
1.75634765625
1.7499023437499999
1.7571533203124998
1.7507080078125
1.735400390625
1.6894775390624999
1.461474609375
1.3978271484375
1.3801025390625
1.3946044921874998
1.4034667968749999
1.3857421875
1.4010498046875
1.40830078125
1.4429443359374998
1.4598632812499999
1.46953125
1.4679199218749999
1.477587890625
1.5509033203125
1.33740234375
1.2890625
1.3398193359375
1.3502929687499998
1.3623779296874998
1.3607666015625
1.4187744140624998
1.4840332031249999
1.558154296875
1.5984375
1.6298583984375
1.6234130859375
1.63388671875
1.6330810546874999
1.6209960937499999
1.6242187499999998
1.6169677734374999
1.6081054687499998
1.590380859375
1.571044921875
1.4767822265625
1.7015624999999999
1.767626953125
1.7531249999999998
1.7668212890625
1.7499023437499999
1.7378173828124999
1.6991455078125
1.509814453125
1.413134765625
1.3873535156249999
1.38896484375
1.3946044921874998
1.4026611328124998
1.4187744140624998
1.4308593749999998
1.4316650390624999
1.4348876953124998
1.4477783203124999
1.458251953125
1.47275390625
1.5114257812499998
1.482421875
2.9205322265625
2.6723876953124996
1.6129394531249999
1.3253173828125
1.3639892578125
1.3720458984375
1.4389160156249998
1.5122314453124999
1.5436523437499998
1.5436523437499998
1.5412353515625
1.5476806640624998
1.5412353515625
1.538818359375
1.5484863281249999
1.5323730468749999
1.5331787109375
1.52109375
1.51787109375
1.4558349609374999
1.6081054687499998
1.7072021484375
1.69189453125
1.7136474609374999
1.6959228515625
1.7080078125
1.7531249999999998
1.4590576171874998
1.3857421875
1.3744628906249998
1.3656005859375
1.368017578125
1.361572265625
1.37607421875
1.3929931640625
1.405078125
1.429248046875
1.4413330078125
1.4477783203124999
1.4477783203124999
1.46630859375
1.46953125
1.2898681640624998
1.3188720703124999
1.3212890625
1.327734375
1.3317626953125
1.3575439453125
1.445361328125
1.53076171875
1.5807128906249999
1.5927978515624999
1.5968261718749999
1.6129394531249999
1.6129394531249999
1.6081054687499998
1.6000488281249998
1.590380859375
1.585546875
1.5815185546875
1.5782958984375
1.542041015625
1.5396240234374998
1.7603759765625
1.72412109375
1.7345947265625
1.7200927734375
1.7297607421874999
1.76279296875
1.5758789062499998
1.4389160156249998
1.3962158203125
1.3720458984375
1.3994384765624999
1.4284423828125
1.4276367187499999
1.4276367187499999
1.4437499999999999
1.445361328125
1.4469726562499998
1.4598632812499999
1.46630859375
1.4711425781249998
1.6121337890624998
1.3253173828125
1.3543212890624998
1.3591552734374999
1.3462646484374998
1.3462646484374998
1.3285400390625
1.432470703125
1.55009765625
1.58232421875
1.5807128906249999
1.585546875
1.59521484375
1.6266357421875
1.6371093749999999
1.622607421875
1.6024658203125
1.587158203125
1.5718505859374998
1.5557373046874998
1.5662109375
1.5194824218749998
1.7748779296875
1.7313720703125
1.7233154296875
1.7571533203124998
1.7442626953125
1.748291015625
1.60166015625
1.4655029296875
1.4348876953124998
1.400244140625
1.397021484375
1.397021484375
1.4066894531249998
1.4364990234375
1.426025390625
1.4147460937499998
1.4219970703125
1.4526123046875
1.477587890625
1.52109375
1.670947265625
1.3881591796875
1.31162109375
1.335791015625
1.3229003906249999
1.34384765625
1.3253173828125
1.429248046875
1.5138427734375
1.5678222656249998
1.60166015625
1.651611328125
1.6153564453125
1.6008544921874999
1.6000488281249998
1.59521484375
1.5670166015625
1.5605712890624999
1.5863525390625
1.5927978515624999
1.5686279296874999
1.41796875
1.7217041015624999
1.73056640625
1.716064453125
1.7458740234374999
1.748291015625
1.7603759765625
1.687060546875
1.477587890625
1.4348876953124998
1.405078125
1.4203857421875
1.4469726562499998
1.4187744140624998
1.4276367187499999
1.4187744140624998
1.429248046875
1.4501953125
1.458251953125
1.4671142578124998
1.464697265625
1.5436523437499998
1.397021484375
1.3285400390625
1.3704345703124998
1.3559326171875
1.3575439453125
1.3543212890624998
1.400244140625
1.5073974609374998
1.56943359375
1.585546875
1.6024658203125
1.5968261718749999
1.6129394531249999
1.611328125
1.5944091796875
1.5984375
1.5911865234375
1.58232421875
1.5815185546875
1.5847412109374999
1.4300537109375
1.6798095703125
1.7450683593749998
1.6935058593749999
1.7208984374999998
1.7128417968749998
1.7136474609374999
1.735400390625
1.5114257812499998
1.445361328125
1.4244140625
1.4195800781249999
1.4195800781249999
1.426025390625
1.4469726562499998
1.4389160156249998
1.4429443359374998
1.445361328125
1.4622802734375
1.4832275390624998
1.46953125
1.5090087890625
1.5090087890625
1.327734375
1.36962890625
1.3664062499999998
1.3599609375
1.37607421875
1.3744628906249998
1.4655029296875
1.56298828125
1.5791015625
1.5944091796875
1.5895751953125
1.60166015625
1.5944091796875
1.6048828124999999
1.6105224609375
1.6024658203125
1.5895751953125
1.5766845703124999
1.5605712890624999
1.5380126953125
1.5323730468749999
1.7410400390624998
1.6910888671875
1.72412109375
1.7233154296875
1.7128417968749998
1.7724609375
1.587158203125
1.44052734375
1.4268310546874998
1.426025390625
1.4300537109375
1.4300537109375
1.4316650390624999
1.4276367187499999
1.4389160156249998
1.4526123046875
1.4655029296875
1.4759765624999999
1.4896728515625
1.482421875
1.538818359375
1.3341796874999998
1.364794921875
1.3728515625
1.3623779296874998
1.3672119140624999
1.33740234375
1.4606689453125
1.5404296874999999
1.5782958984375
1.5944091796875
1.6008544921874999
1.60166015625
1.6137451171875
1.6129394531249999
1.60166015625
1.5662109375
1.5645996093749999
1.5686279296874999
1.5557373046874998
1.5460693359375
1.5194824218749998
1.7861572265624999
1.7345947265625
1.690283203125
1.67900390625
1.6765869140624998
1.770849609375
1.6282470703124998
1.4783935546875
1.4445556640625
1.45341796875
1.448583984375
1.445361328125
1.44052734375
1.4397216796874999
1.429248046875
1.4469726562499998
1.4679199218749999
1.4598632812499999
1.46953125
1.477587890625
1.6314697265625
1.3784912109374998
1.364794921875
1.3817138671875
1.3639892578125
1.37607421875
1.3510986328124999
1.4429443359374998
1.5299560546875
1.5734619140625
1.5839355468749998
1.6008544921874999
1.5847412109374999
1.587158203125
1.5662109375
1.5992431640625
1.6040771484374998
1.5960205078124998
1.593603515625
1.5782958984375
1.5718505859374998
1.4147460937499998
1.7281494140625
1.7047851562499998
1.6991455078125
1.7136474609374999
1.703173828125
1.7080078125
1.7015624999999999
1.4638916015624999
1.44052734375
1.4364990234375
1.4308593749999998
1.4308593749999998
1.4244140625
1.4493896484375
1.442138671875
1.4526123046875
1.4735595703125
1.4993408203124998
1.4993408203124998
1.4912841796874998
1.6072998046875
1.3285400390625
1.2858398437499998
1.405078125
1.4171630859375
1.38896484375
1.37607421875
1.4244140625
1.5009521484375
1.558154296875
1.5799072265624998
1.5887695312499999
1.5839355468749998
1.6040771484374998
1.6129394531249999
1.59521484375
1.585546875
1.5831298828125
1.5807128906249999
1.5645996093749999
1.5565429687499999
1.3929931640625
1.6645019531249998
1.7289550781249998
1.6943115234375
1.714453125
1.7023681640625
1.7096191406249999
1.7362060546875
1.5017578125
1.4397216796874999
1.4389160156249998
1.4284423828125
1.432470703125
1.4300537109375
1.4501953125
1.442138671875
1.4461669921875
1.4598632812499999
1.464697265625
1.4767822265625
1.48564453125
1.542041015625
1.5154541015624998
1.3446533203125
1.3825195312499998
1.3752685546874999
1.3801025390625
1.3954101562499999
1.4123291015625
1.5001464843749999
1.554931640625
1.5766845703124999
1.5686279296874999
1.5726562499999999
1.60166015625
1.6000488281249998
1.5887695312499999
1.590380859375
1.585546875
1.5766845703124999
1.5654052734375
1.5637939453124998
1.5355957031249998
1.6451660156249999
1.738623046875
1.6862548828125
1.71123046875
1.706396484375
1.7104248046875
1.7740722656249999
1.5041748046874999
1.4461669921875
1.429248046875
1.426025390625
1.4356933593749999
1.429248046875
1.4550292968749998
1.4606689453125
1.4558349609374999
1.461474609375
1.4687255859375
1.4671142578124998
1.4735595703125
1.4880615234374999
1.5428466796875
1.3317626953125
1.3728515625
1.37607421875
1.3736572265625
1.3720458984375
1.377685546875
1.4800048828124999
1.5492919921875
1.577490234375
1.5766845703124999
1.5863525390625
1.5944091796875
1.5984375
1.58232421875
1.5927978515624999
1.574267578125
1.577490234375
1.5670166015625
1.571044921875
1.558154296875
1.4872558593749998
1.7499023437499999
1.6943115234375
1.7015624999999999
1.7072021484375
1.7088134765624998
1.770849609375
1.6024658203125
1.4364990234375
1.4308593749999998
1.429248046875
1.4276367187499999
1.4228027343749998
1.43408203125
1.45341796875
1.45341796875
1.4679199218749999
1.4767822265625
1.4791992187499998
1.477587890625
1.4800048828124999
1.658056640625
1.3261230468749998
1.3639892578125
1.3897705078125
1.3897705078125
1.368017578125
1.335791015625
1.43408203125
1.522705078125
1.56943359375
1.590380859375
1.5968261718749999
1.6081054687499998
1.6250244140624999
1.5815185546875
1.5831298828125
1.58232421875
1.5895751953125
1.5758789062499998
1.56943359375
1.5525146484374999
1.4477783203124999
1.7313720703125
1.706396484375
1.716064453125
1.703173828125
1.690283203125
1.6975341796874999
1.6282470703124998
1.4703369140625
1.4437499999999999
1.456640625
1.4429443359374998
1.4397216796874999
1.4228027343749998
1.4219970703125
1.4300537109375
1.442138671875
1.4598632812499999
1.4791992187499998
1.4872558593749998
1.4872558593749998
1.667724609375
1.3736572265625
1.3583496093749998
1.3801025390625
1.36962890625
1.3881591796875
1.3744628906249998
1.4445556640625
1.513037109375
1.5678222656249998
1.577490234375
1.5887695312499999
1.5863525390625
1.6008544921874999
1.6185791015625
1.5927978515624999
1.5887695312499999
1.5807128906249999
1.5533203125
1.5484863281249999
1.5662109375
1.3857421875
1.6846435546874998
1.703173828125
1.654833984375
1.6959228515625
1.7281494140625
1.7297607421874999
1.748291015625
1.4832275390624998
1.4590576171874998
1.4276367187499999
1.4219970703125
1.4187744140624998
1.4252197265625
1.4356933593749999
1.4469726562499998
1.458251953125
1.4655029296875
1.4671142578124998
1.482421875
1.4703369140625
1.5404296874999999
1.3962158203125
1.3365966796875
1.3978271484375
1.37607421875
1.3704345703124998
1.36962890625
1.3897705078125
1.5009521484375
1.5734619140625
1.5758789062499998
1.5968261718749999
1.5919921874999998
1.6121337890624998
1.5984375
1.585546875
1.5799072265624998
1.5686279296874999
1.5839355468749998
1.5750732421875
1.5766845703124999
1.3631835937499999
1.6612792968749999
1.75634765625
1.687060546875
1.71123046875
1.706396484375
1.7055908203124999
1.7571533203124998
1.493701171875
1.4469726562499998
1.4171630859375
1.4123291015625
1.4219970703125
1.4171630859375
1.4518066406249999
1.442138671875
1.4542236328125
1.47275390625
1.4848388671875
1.4759765624999999
1.4719482421874999
1.506591796875
1.5436523437499998
1.313232421875
1.3688232421875
1.380908203125
1.37607421875
1.380908203125
1.3712402343749999
1.477587890625
1.5734619140625
1.5911865234375
1.587158203125
1.5807128906249999
1.61455078125
1.609716796875
1.5968261718749999
1.5863525390625
1.58232421875
1.5758789062499998
1.56943359375
1.56298828125
1.542041015625
1.4977294921875
1.7684326171875
1.6935058593749999
1.7080078125
1.7120361328125
1.7096191406249999
1.7934082031249998
1.5057861328125
1.4348876953124998
1.4203857421875
1.43408203125
1.416357421875
1.429248046875
1.43408203125
1.4373046875
1.4397216796874999
1.458251953125
1.46953125
1.46953125
1.4735595703125
1.4735595703125
1.5662109375
1.31162109375
1.3873535156249999
1.3784912109374998
1.3704345703124998
1.3720458984375
1.327734375
1.46630859375
1.533984375
1.5911865234375
1.6000488281249998
1.58232421875
1.59521484375
1.6081054687499998
1.59521484375
1.5911865234375
1.587158203125
1.577490234375
1.5734619140625
1.571044921875
1.5645996093749999
1.4493896484375
1.7692382812499998
1.7039794921875
1.7055908203124999
1.7176757812499999
1.7200927734375
1.7909912109375
1.6048828124999999
1.4373046875
1.42119140625
1.4195800781249999
1.426025390625
1.4284423828125
1.4252197265625
1.4445556640625
1.4413330078125
1.4598632812499999
1.4638916015624999
1.464697265625
1.4840332031249999
1.4791992187499998
1.6935058593749999
1.284228515625
1.348681640625
1.3752685546874999
1.3728515625
1.3865478515624998
1.3317626953125
1.4373046875
1.52109375
1.56943359375
1.5919921874999998
1.6008544921874999
1.60166015625
1.62744140625
1.609716796875
1.5984375
1.5879638671874998
1.5911865234375
1.585546875
1.571044921875
1.5662109375
1.3349853515624999
1.77890625
1.7297607421874999
1.7039794921875
1.73056640625
1.72412109375
1.719287109375
1.6395263671875
1.4437499999999999
1.4155517578124999
1.405078125
1.40830078125
1.4236083984374999
1.4187744140624998
1.4284423828125
1.4356933593749999
1.4493896484375
1.464697265625
1.4759765624999999
1.4783935546875
1.4759765624999999
1.6975341796874999
1.3704345703124998
1.3059814453124998
1.3857421875
1.3664062499999998
1.36962890625
1.361572265625
1.4300537109375
1.5106201171875
1.5686279296874999
1.5895751953125
1.6105224609375
1.6024658203125
1.625830078125
1.6089111328124999
1.590380859375
1.5807128906249999
1.5887695312499999
1.5919921874999998
1.5791015625
1.561376953125
1.3237060546875
1.7080078125
1.7748779296875
1.6967285156249998
1.7362060546875
1.7184814453125
1.7265380859375
1.767626953125
1.4638916015624999
1.4066894531249998
1.4066894531249998
1.4034667968749999
1.4195800781249999
1.4010498046875
1.4356933593749999
1.4364990234375
1.4598632812499999
1.456640625
1.458251953125
1.47275390625
1.480810546875
1.509814453125
1.533984375
1.2955078125
1.3656005859375
1.3575439453125
1.351904296875
1.380908203125
1.3817138671875
1.4953124999999998
1.5863525390625
1.6218017578125
1.6242187499999998
1.60166015625
1.6161621093749998
1.5919921874999998
1.5702392578125
1.5726562499999999
1.587158203125
1.5911865234375
1.56943359375
1.5718505859374998
1.5436523437499998
1.6685302734374998
1.791796875
1.7208984374999998
1.7176757812499999
1.7176757812499999
1.7217041015624999
1.844970703125
1.4896728515625
1.4034667968749999
1.4219970703125
1.4203857421875
1.4203857421875
1.4123291015625
1.4115234374999999
1.4123291015625
1.4381103515625
1.445361328125
1.4735595703125
1.4783935546875
1.4767822265625
1.477587890625
1.5791015625
1.27939453125
1.361572265625
1.3736572265625
1.3599609375
1.3672119140624999
1.348681640625
1.4800048828124999
1.5573486328125
1.593603515625
1.60166015625
1.6105224609375
1.6056884765625
1.6121337890624998
1.6056884765625
1.59521484375
1.5895751953125
1.5847412109374999
1.5782958984375
1.574267578125
1.5621826171875
1.4397216796874999
1.8022705078124999
1.7120361328125
1.7249267578124998
1.7265380859375
1.7257324218749999
1.8062988281249999
1.5968261718749999
1.4139404296875
1.4042724609375
1.40185546875
1.3978271484375
1.416357421875
1.4268310546874998
1.4526123046875
1.4284423828125
1.456640625
1.456640625
1.4679199218749999
1.4679199218749999
1.4840332031249999
1.7289550781249998
1.27294921875
1.348681640625
1.3801025390625
1.3664062499999998
1.3688232421875
1.327734375
1.4469726562499998
1.5605712890624999
1.60166015625
1.60166015625
1.6105224609375
1.6081054687499998
1.62744140625
1.6250244140624999
1.60166015625
1.587158203125
1.58232421875
1.5782958984375
1.5758789062499998
1.5645996093749999
1.3124267578125
1.8006591796875
1.7450683593749998
1.714453125
1.7345947265625
1.7345947265625
1.7418457031249999
1.7136474609374999
1.4244140625
1.3962158203125
1.40185546875
1.4034667968749999
1.4195800781249999
1.4155517578124999
1.4300537109375
1.4364990234375
1.4348876953124998
1.445361328125
1.4518066406249999
1.4759765624999999
1.482421875
1.722509765625
1.3446533203125
1.2995361328125
1.3849365234375
1.3607666015625
1.3623779296874998
1.3631835937499999
1.44052734375
1.53720703125
1.6000488281249998
1.622607421875
1.6056884765625
1.5807128906249999
1.6185791015625
1.6121337890624998
1.6000488281249998
1.59521484375
1.5847412109374999
1.58232421875
1.5758789062499998
1.5662109375
1.3108154296874999
1.7055908203124999
1.783740234375
1.7104248046875
1.7410400390624998
1.735400390625
1.735400390625
1.77890625
1.4630859374999998
1.3962158203125
1.3954101562499999
1.400244140625
1.4091064453125
1.3962158203125
1.4244140625
1.4268310546874998
1.445361328125
1.458251953125
1.4630859374999998
1.4719482421874999
1.48564453125
1.5251220703125
1.5138427734375
1.297119140625
1.3631835937499999
1.36962890625
1.3583496093749998
1.3607666015625
1.345458984375
1.480810546875
1.5911865234375
1.6089111328124999
1.609716796875
1.6072998046875
1.62744140625
1.611328125
1.6000488281249998
1.5976318359375
1.593603515625
1.5807128906249999
1.587158203125
1.577490234375
1.5364013671874999
1.7039794921875
1.803076171875
1.72412109375
1.7257324218749999
1.7128417968749998
1.7120361328125
1.82080078125
1.4671142578124998
1.4091064453125
1.3994384765624999
1.4010498046875
1.405078125
1.4107177734374998
1.43408203125
1.4397216796874999
1.4493896484375
1.448583984375
1.4687255859375
1.4735595703125
1.4864501953125
1.5009521484375
1.5597656249999998
1.2383056640624999
1.33740234375
1.3583496093749998
1.353515625
1.3704345703124998
1.3551269531249999
1.506591796875
1.5927978515624999
1.606494140625
1.5879638671874998
1.5726562499999999
1.5863525390625
1.6137451171875
1.6008544921874999
1.5960205078124998
1.5831298828125
1.5734619140625
1.5766845703124999
1.5807128906249999
1.5750732421875
1.4816162109375
1.8280517578125
1.719287109375
1.7474853515625
1.748291015625
1.7660156249999999
1.851416015625
1.5750732421875
1.40185546875
1.3784912109374998
1.3857421875
1.3833251953124999
1.40830078125
1.4252197265625
1.4469726562499998
1.4389160156249998
1.4542236328125
1.4574462890625
1.4735595703125
1.493701171875
1.4953124999999998
1.7692382812499998
1.2721435546875
1.3656005859375
1.384130859375
1.353515625
1.351904296875
1.287451171875
1.4413330078125
1.5654052734375
1.5960205078124998
1.6008544921874999
1.6072998046875
1.622607421875
1.62744140625
1.6266357421875
1.6048828124999999
1.6024658203125
1.585546875
1.5911865234375
1.5863525390625
1.5847412109374999
1.3849365234375
1.8377197265624998
1.74345703125
1.6967285156249998
1.7249267578124998
1.72412109375
1.735400390625
1.611328125
1.40185546875
1.40185546875
1.3849365234375
1.3929931640625
1.4171630859375
1.4066894531249998
1.458251953125
1.429248046875
1.445361328125
1.448583984375
1.4598632812499999
1.4687255859375
1.4872558593749998
1.8119384765625
1.2834228515625
1.2866455078124999
1.3784912109374998
1.3494873046875
1.3470703124999999
1.2834228515625
1.43408203125
1.5364013671874999
1.5960205078124998
1.6040771484374998
1.609716796875
1.5968261718749999
1.6330810546874999
1.6290527343749999
1.6000488281249998
1.587158203125
1.5758789062499998
1.577490234375
1.5702392578125
1.5589599609375
1.2310546875
1.7716552734375
1.7748779296875
1.7047851562499998
1.74345703125
1.7297607421874999
1.7442626953125
1.8087158203125
1.4316650390624999
1.393798828125
1.3962158203125
1.393798828125
1.4171630859375
1.3994384765624999
1.4252197265625
1.4332763671875
1.445361328125
1.456640625
1.4606689453125
1.4679199218749999
1.47275390625
1.5782958984375
1.3333740234375
1.27294921875
1.3623779296874998
1.351904296875
1.3607666015625
1.3623779296874998
1.3599609375
1.5315673828124998
1.5895751953125
1.6137451171875
1.5992431640625
1.5766845703124999
1.6105224609375
1.6008544921874999
1.60166015625
1.6129394531249999
1.609716796875
1.5976318359375
1.587158203125
1.5791015625
1.2270263671875
1.738623046875
1.8304687499999999
1.7184814453125
1.7507080078125
1.735400390625
1.7450683593749998
1.835302734375
1.4437499999999999
1.3768798828125
1.3825195312499998
1.3873535156249999
1.4058837890625
1.4115234374999999
1.4228027343749998
1.416357421875
1.4356933593749999
1.4606689453125
1.4679199218749999
1.46953125
1.4816162109375
1.5154541015624998
1.5533203125
1.2181640624999999
1.3559326171875
1.3688232421875
1.3551269531249999
1.361572265625
1.3172607421875
1.48564453125
1.577490234375
1.5944091796875
1.6089111328124999
1.6048828124999999
1.638720703125
1.6169677734374999
1.609716796875
1.5968261718749999
1.5839355468749998
1.5758789062499998
1.5815185546875
1.5686279296874999
1.5396240234374998
1.4606689453125
1.8659179687499998
1.6991455078125
1.7297607421874999
1.7345947265625
1.7499023437499999
1.896533203125
1.5654052734375
1.397021484375
1.3962158203125
1.400244140625
1.413134765625
1.4195800781249999
1.4373046875
1.4622802734375
1.4228027343749998
1.4389160156249998
1.4518066406249999
1.4598632812499999
1.47275390625
1.4800048828124999
1.7934082031249998
1.2310546875
1.3470703124999999
1.3817138671875
1.361572265625
1.3639892578125
1.27939453125
1.4526123046875
1.5766845703124999
1.5927978515624999
1.6008544921874999
1.6048828124999999
1.6008544921874999
1.6105224609375
1.5992431640625
1.6072998046875
1.5992431640625
1.587158203125
1.585546875
1.5726562499999999
1.5678222656249998
1.41796875
1.8554443359375
1.7555419921875
1.7047851562499998
1.7337890624999999
1.7345947265625
1.7539306640624999
1.603271484375
1.4155517578124999
1.3978271484375
1.4042724609375
1.400244140625
1.4155517578124999
1.41796875
1.4510009765624998
1.4348876953124998
1.432470703125
1.4622802734375
1.490478515625
1.4953124999999998
1.4872558593749998
1.722509765625
1.3220947265624998
1.3148437499999999
1.3929931640625
1.37607421875
1.380908203125
1.319677734375
1.448583984375
1.5404296874999999
1.6298583984375
1.606494140625
1.622607421875
1.5992431640625
1.6363037109374998
1.619384765625
1.5960205078124998
1.5968261718749999
1.5879638671874998
1.5791015625
1.571044921875
1.56298828125
1.335791015625
1.7378173828124999
1.751513671875
1.6959228515625
1.7120361328125
1.6991455078125
1.69833984375
1.6894775390624999
1.4123291015625
1.3921875
1.3921875
1.3881591796875
1.40830078125
1.38896484375
1.4228027343749998
1.4501953125
1.4832275390624998
1.46953125
1.45341796875
1.4687255859375
1.4711425781249998
1.5533203125
1.3365966796875
1.2906738281249999
1.3575439453125
1.3502929687499998
1.364794921875
1.3833251953124999
1.3946044921874998
1.5404296874999999
1.5839355468749998
1.590380859375
1.5944091796875
1.5831298828125
1.606494140625
1.6081054687499998
1.5944091796875
1.5831298828125
1.5702392578125
1.5146484375
1.53076171875
1.52109375
0.165966796875
0.0394775390625
0.2296142578125
0.0201416015625
1.8457763671874998
2.147900390625
2.0471923828125
2.012548828125
1.7764892578125
1.6975341796874999
1.6556396484375
1.6218017578125
1.6177734375
1.611328125
1.611328125
1.5976318359375
1.603271484375
1.6008544921874999
1.5944091796875
1.6048828124999999
1.6048828124999999
1.6209960937499999
1.6040771484374998
1.4364990234375
1.464697265625
1.458251953125
1.461474609375
1.464697265625
1.490478515625
1.5734619140625
1.63388671875
1.6540283203125
1.662890625
1.6524169921874998
1.6604736328124998
1.64677734375
1.6443603515624998
1.6346923828125
1.6322753906249998
1.61455078125
1.6137451171875
1.6040771484374998
1.5791015625
1.6024658203125
1.7861572265624999
1.7450683593749998
1.7474853515625
1.748291015625
1.7200927734375
1.767626953125
1.56298828125
1.4445556640625
1.4195800781249999
1.4123291015625
1.4155517578124999
1.416357421875
1.4308593749999998
1.4397216796874999
1.4397216796874999
1.4550292968749998
1.4598632812499999
1.458251953125
1.4679199218749999
1.4920898437499999
1.5887695312499999
1.3204833984375
1.3607666015625
1.36962890625
1.361572265625
1.3140380859374998
1.340625
1.448583984375
1.5492919921875
1.5863525390625
1.6024658203125
1.6177734375
1.6242187499999998
1.6218017578125
1.6209960937499999
1.61455078125
1.6040771484374998
1.603271484375
1.5960205078124998
1.5984375
1.5927978515624999
1.585546875
1.783740234375
1.716064453125
1.722509765625
1.719287109375
1.7208984374999998
1.7096191406249999
1.5758789062499998
1.4445556640625
1.4147460937499998
1.4026611328124998
1.40830078125
1.4195800781249999
1.4187744140624998
1.4381103515625
1.4300537109375
1.4397216796874999
1.4606689453125
1.4679199218749999
1.46953125
1.4671142578124998
1.5807128906249999
1.3664062499999998
1.3664062499999998
1.3720458984375
1.36962890625
1.3728515625
1.3792968749999999
1.4558349609374999
1.525927734375
1.5726562499999999
1.5839355468749998
1.603271484375
1.5992431640625
1.6129394531249999
1.6081054687499998
1.5960205078124998
1.5919921874999998
1.58232421875
1.58232421875
1.5662109375
1.5637939453124998
1.47275390625
1.7047851562499998
1.722509765625
1.7055908203124999
1.7152587890625
1.7136474609374999
1.7007568359374998
1.670947265625
1.44052734375
1.4155517578124999
1.3954101562499999
1.3994384765624999
1.416357421875
1.41796875
1.4236083984374999
1.4236083984374999
1.4469726562499998
1.4590576171874998
1.4574462890625
1.464697265625
1.4767822265625
1.5299560546875
1.3736572265625
1.3414306640625
1.3656005859375
1.3752685546874999
1.3728515625
1.3962158203125
1.4268310546874998
1.5299560546875
1.5686279296874999
1.5919921874999998
1.603271484375
1.5919921874999998
1.6161621093749998
1.611328125
1.5992431640625
1.5992431640625
1.56298828125
1.577490234375
1.5911865234375
1.5702392578125
1.4687255859375
1.6814208984374999
1.72412109375
1.72734375
1.722509765625
1.714453125
1.7055908203124999
1.6717529296875
1.482421875
1.4252197265625
1.3994384765624999
1.3962158203125
1.4091064453125
1.42119140625
1.4373046875
1.4389160156249998
1.4437499999999999
1.448583984375
1.4630859374999998
1.4622802734375
1.4791992187499998
1.50498046875
1.4638916015624999
1.34384765625
1.3768798828125
1.3784912109374998
1.3752685546874999
1.3873535156249999
1.40830078125
1.4961181640624999
1.5678222656249998
1.5887695312499999
1.5976318359375
1.6081054687499998
1.6161621093749998
1.6081054687499998
1.6072998046875
1.5911865234375
1.5815185546875
1.58232421875
1.5734619140625
1.5791015625
1.558154296875
1.593603515625
1.748291015625
1.716064453125
1.7217041015624999
1.7184814453125
1.71123046875
1.7200927734375
1.4920898437499999
1.4228027343749998
1.40830078125
1.3954101562499999
1.4123291015625
1.4091064453125
1.4236083984374999
1.4308593749999998
1.4389160156249998
1.4526123046875
1.4598632812499999
1.4606689453125
1.464697265625
1.4759765624999999
1.4783935546875
1.329345703125
1.361572265625
1.3712402343749999
1.3688232421875
1.3768798828125
1.3833251953124999
1.4888671875
1.554931640625
1.5895751953125
1.5960205078124998
1.60166015625
1.603271484375
1.6137451171875
1.6040771484374998
1.5968261718749999
1.5944091796875
1.5960205078124998
1.5782958984375
1.5726562499999999
1.5750732421875
1.571044921875
1.7466796875
1.719287109375
1.73056640625
1.7168701171874998
1.71123046875
1.7233154296875
1.571044921875
1.4469726562499998
1.4091064453125
1.38896484375
1.4147460937499998
1.416357421875
1.4300537109375
1.4364990234375
1.4348876953124998
1.4413330078125
1.4542236328125
1.4542236328125
1.458251953125
1.4759765624999999
1.554931640625
1.3430419921874999
1.3599609375
1.36962890625
1.3704345703124998
1.37607421875
1.384130859375
1.4630859374999998
1.546875
1.5847412109374999
1.593603515625
1.6072998046875
1.6089111328124999
1.6081054687499998
1.5968261718749999
1.6056884765625
1.59521484375
1.5968261718749999
1.5887695312499999
1.5807128906249999
1.56943359375
1.4961181640624999
1.7378173828124999
1.72412109375
1.7152587890625
1.7176757812499999
1.7168701171874998
1.6967285156249998
1.577490234375
1.4469726562499998
1.4074951171874999
1.400244140625
1.3986328124999998
1.3954101562499999
1.384130859375
1.3736572265625
1.3341796874999998
1.3575439453125
1.3921875
1.4219970703125
1.4284423828125
1.4477783203124999
1.5509033203125
1.3253173828125
1.2753662109375
1.31162109375
1.2979248046874998
1.3092041015625
1.340625
1.4518066406249999
1.56943359375
1.6306640625
1.6685302734374998
1.6749755859375
1.6749755859375
1.690283203125
1.6773925781249999
1.662890625
1.651611328125
1.6346923828125
1.61455078125
1.611328125
1.60166015625
1.5146484375
1.77568359375
1.8498046874999998
1.80791015625
1.815966796875
1.78857421875
1.7531249999999998
1.6846435546874998
1.4477783203124999
1.3382080078124998
1.3253173828125
1.329345703125
1.3422363281249998
1.368017578125
1.3873535156249999
1.3913818359374999
1.4219970703125
1.4195800781249999
1.4308593749999998
1.4461669921875
1.4542236328125
1.4832275390624998
1.3994384765624999
1.2286376953125
1.2624755859374999
1.2584472656249999
1.2608642578125
1.284228515625
1.3414306640625
1.4687255859375
1.5919921874999998
1.6330810546874999
1.6508056640625
1.651611328125
1.6653076171874999
1.6508056640625
1.62744140625
1.622607421875
1.6137451171875
1.5984375
1.5573486328125
1.5355957031249998
1.4848388671875
1.6878662109375
1.8199951171875
1.8006591796875
1.8361083984375
1.84013671875
1.8256347656249998
1.803076171875
1.393798828125
1.187548828125
1.1239013671875
1.106982421875
1.123095703125
1.15693359375
1.1641845703125
1.1923828125
1.1964111328125
1.21494140625
1.2536132812499998
1.2850341796875
1.316455078125
1.3317626953125
1.2109130859375
0.79921875
0.7371826171875
0.752490234375
0.7774658203125
0.8427246093749999
0.9571289062499999
1.3946044921874998
1.6951171875
1.8973388671875
2.0101318359375
2.0326904296875
2.05927734375
2.0552490234375
2.0173828124999997
1.9891845703125
1.948095703125
1.9021728515624998
1.8788085937499999
1.8473876953125
1.812744140625
1.98515625
2.4935302734375
2.578125
2.53623046875
2.4822509765625
2.3799316406249997
2.1889892578125
1.7023681640625
1.1939941406249999
0.97001953125
0.95068359375
0.974853515625
1.0143310546875
1.0675048828125
1.11181640625
1.1480712890625
1.1923828125
1.2383056640624999
1.26328125
1.3075927734375
1.335791015625
1.3462646484374998
0.8451416015625
0.5986083984375
0.6509765624999999
0.6638671875
0.7234863281249999
0.87978515625
1.248779296875
1.635498046875
1.9529296875
2.0657226562499997
2.0987548828125
2.11728515625
2.1076171875
2.064111328125
2.0246337890625
1.9625976562499998
1.9231201171874999
1.8820312499999998
1.8344970703124999
1.8014648437499998
1.7990478515625
2.512060546875
2.6192138671875
2.5660400390625
2.5249511718749997
2.392822265625
2.2268554687499997
1.883642578125
1.1150390625
0.9071777343749999
0.8757568359375
0.90234375
0.9450439453124999
0.984521484375
1.0336669921875
1.09248046875
1.1367919921875
1.1778808593749999
1.2286376953125
1.2640869140625
1.2914794921875
1.3349853515624999
0.829833984375
0.5526855468749999
0.5841064453125
0.6268066406249999
0.6703125
0.7951904296875
1.0594482421875
1.5944091796875
1.88525390625
2.0254394531249997
2.0898925781249997
2.0955322265625
2.1245361328125
2.0625
2.0214111328124997
1.972265625
1.920703125
1.880419921875
1.8328857421875
1.796630859375
1.770849609375
2.3066162109375
2.6224365234375
2.5531494140624997
2.5072265624999996
2.4234375
2.2993652343749997
1.9271484374999999
1.284228515625
0.9474609374999999
0.8564208984374999
0.8644775390624999
0.913623046875
0.9692138671874999
1.029638671875
1.061865234375
1.1077880859375
1.1593505859375
1.198828125
1.2342773437499999
1.2737548828124998
1.3212890625
1.0594482421875
0.5518798828125
0.562353515625
0.6050537109374999
0.6348632812499999
0.78310546875
1.0248046874999999
1.4445556640625
1.8707519531249999
2.0181884765625
2.0778076171874997
2.11083984375
2.1076171875
2.0874755859375
2.0359130859375
1.9762939453125
1.9198974609375
1.8788085937499999
1.8409423828125
1.803076171875
1.7724609375
2.023828125
2.6111572265625
2.5894042968749997
2.5483154296875
2.4419677734375
2.3114501953124997
2.128564453125
1.3382080078124998
0.95068359375
0.8515869140625
0.8435302734375
0.9031494140624999
0.936181640625
0.9974121093749999
1.0505859375
1.1021484375
1.1408203125
1.2060791015624999
1.2342773437499999
1.264892578125
1.2890625
1.1029541015625
0.604248046875
0.5486572265624999
0.5953857421875
0.6388916015624999
0.7283203125
0.8846191406249999
1.4147460937499998
1.7732666015624998
1.980322265625
2.0818359374999997
2.102783203125
2.1084228515625
2.102783203125
2.0415527343749997
1.9916015624999999
1.9472900390624999
1.89169921875
1.8570556640625
1.8199951171875
1.783740234375
1.9916015624999999
2.5587890625
2.6200195312499996
2.5354248046874996
2.479833984375
2.3630126953125
2.1462890624999997
1.587158203125
1.0562255859375
0.8427246093749999
0.839501953125
0.8789794921874999
0.920068359375
0.98291015625
1.03447265625
1.0820068359375
1.1432373046875
1.1980224609374999
1.2125244140625
1.2431396484375
1.2890625
1.2947021484374999
0.7581298828124999
0.5357666015625
0.5744384765625
0.6002197265625
0.6703125
0.8822021484375
1.2495849609374998
1.6572509765624999
1.9787109374999998
2.0600830078125
2.1076171875
2.118896484375
2.1140624999999997
2.060888671875
2.0101318359375
1.9472900390624999
1.909423828125
1.87236328125
1.8175781249999998
1.7909912109375
1.7974365234374998
2.5313964843749996
2.6256591796874997
2.5636230468749996
2.512060546875
2.3823486328125
2.2236328125
1.8586669921874999
1.0763671875
0.8685058593749999
0.829833984375
0.87333984375
0.9232910156249999
0.9611572265624999
1.0191650390625
1.077978515625
1.123095703125
1.1674072265625
1.2093017578125
1.2463623046874999
1.2818115234374998
1.3043701171875
0.7919677734374999
0.5277099609375
0.565576171875
0.605859375
0.6630615234374999
0.7959960937499999
1.0763671875
1.6234130859375
1.9078125
2.044775390625
2.102783203125
2.109228515625
2.12373046875
2.077001953125
2.0246337890625
1.9706542968749998
1.9271484374999999
1.8651123046875
1.8248291015625
1.8022705078124999
1.7740722656249999
2.3323974609375
2.6514404296875
2.5716796874999996
2.5289794921874997
2.43310546875
2.296142578125
1.9021728515624998
1.2503906249999999
0.920068359375
0.8201660156249999
0.8612548828125
0.9007324218749999
0.9659912109375
1.019970703125
1.058642578125
1.1045654296875
1.1657958984374999
1.203662109375
1.2286376953125
1.276171875
1.3188720703124999
1.042529296875
0.5663818359375
0.562353515625
0.594580078125
0.6356689453125
0.7726318359375
1.0352783203125
1.46630859375
1.8022705078124999
2.0334960937499997
2.093115234375
2.1140624999999997
2.11728515625
2.070556640625
2.03671875
1.996435546875
1.93359375
1.8900878906249998
1.8506103515624999
1.7982421874999999
1.7660156249999999
2.0794189453125
2.6490234375
2.5966552734375
2.55234375
2.4846679687499997
2.31708984375
2.0923095703125
1.4671142578124998
0.9249023437499999
0.829833984375
0.84111328125
0.8950927734374999
0.9369873046874999
0.9933837890624999
1.0417236328125
1.1029541015625
1.1456542968749999
1.1947998046875
1.2366943359375
1.2656982421874998
1.2955078125
1.2592529296875
0.5792724609375
0.5357666015625
0.5760498046875
0.623583984375
0.71865234375
0.8926757812499999
1.2850341796875
1.7926025390625
1.989990234375
2.0778076171874997
2.115673828125
2.1213134765625
2.1132568359375
2.0423583984375
1.9948242187499998
1.9513183593749999
1.90458984375
1.8578613281249998
1.812744140625
1.7829345703125
2.0012695312499997
2.5813476562499997
2.642578125
2.5636230468749996
2.4903076171875
2.370263671875
2.22041015625
1.554931640625
1.0385009765625
0.8604492187499999
0.823388671875
0.8677001953125
0.9216796875
0.9885498046875
1.0409179687499999
1.087646484375
1.1255126953124999
1.1859374999999999
1.2205810546875
1.2342773437499999
1.2826171874999999
1.2802001953125
0.7299316406249999
0.5124023437499999
0.5671875
0.6050537109374999
0.6670898437499999
0.8596435546875
1.2536132812499998
1.6443603515624998
1.9223144531249998
2.070556640625
2.11728515625
2.1213134765625
2.118896484375
2.0633056640625
2.0085205078125
1.9521240234375
1.9078125
1.87236328125
1.8344970703124999
1.7813232421874998
1.7942138671874999
2.3887939453125
2.6466064453125
2.586181640625
2.534619140625
2.39443359375
2.244580078125
1.8473876953125
1.190771484375
0.8588378906249999
0.8209716796875
0.8523925781249999
0.9144287109375
0.9595458984374999
1.010302734375
1.0642822265625
1.1206787109375
1.1786865234375
1.1980224609374999
1.2511962890625
1.2898681640624998
1.329345703125
0.7863281249999999
0.5091796875
0.5526855468749999
0.5760498046875
0.6469482421874999
0.7871337890625
1.0634765625
1.6242187499999998
1.90458984375
2.0536376953124997
2.1068115234375
2.1213134765625
2.1309814453125
2.086669921875
2.0197998046875
1.9714599609374999
1.9166748046875
1.864306640625
1.8312744140625
1.791796875
1.7523193359375
2.334814453125
2.65869140625
2.6063232421875
2.5587890625
2.4604980468749997
2.3235351562499997
1.9029785156249999
1.2439453125
0.90556640625
0.8274169921875
0.839501953125
0.8918701171875
0.93779296875
1.010302734375
1.055419921875
1.0981201171875
1.1706298828125
1.203662109375
1.2431396484375
1.2697265624999998
1.3229003906249999
1.042529296875
0.5631591796875
0.5406005859374999
0.5696044921875
0.6163330078125
0.71865234375
1.023193359375
1.4598632812499999
1.7982421874999999
2.0504150390625
2.0987548828125
2.11728515625
2.1245361328125
2.09150390625
2.0407470703125
1.9940185546875
1.9263427734374998
1.8844482421875
1.844970703125
1.7901855468749999
1.7442626953125
2.05283203125
2.6079345703124996
2.615185546875
2.57490234375
2.502392578125
2.33642578125
2.118896484375
1.5082031249999999
0.928125
0.829833984375
0.833056640625
0.87333984375
0.9345703125
0.9869384765625
1.0328613281249999
1.100537109375
1.1480712890625
1.1923828125
1.2415283203124998
1.2689208984375
1.3059814453124998
1.268115234375
0.5792724609375
0.5204589843749999
0.5518798828125
0.5986083984375
0.7001220703125
0.8757568359375
1.2769775390625
1.780517578125
1.9891845703125
