1.706396484375
1.7104248046875
1.7080078125
1.7023681640625
1.6806152343749998
1.6604736328124998
1.654833984375
1.6266357421875
1.6588623046875
1.8425537109374999
1.9062011718749998
1.9182861328124998
1.9231201171874999
1.912646484375
1.8699462890624998
1.6612792968749999
1.522705078125
1.4284423828125
1.3897705078125
1.37607421875
1.361572265625
1.35673828125
1.3623779296874998
1.3575439453125
1.36962890625
1.3897705078125
1.4042724609375
1.41796875
1.4276367187499999
1.4711425781249998
1.3108154296874999
1.2125244140625
1.1819091796874999
1.1690185546875
1.1738525390624999
1.2052734375
1.2906738281249999
1.4477783203124999
1.5396240234374998
1.603271484375
1.6508056640625
1.6846435546874998
1.706396484375
1.7072021484375
1.7039794921875
1.6943115234375
1.683837890625
1.670947265625
1.654833984375
1.6427490234375
1.6000488281249998
1.8280517578125
1.8828369140624999
1.9198974609375
1.9247314453125
1.9166748046875
1.9134521484375
1.7990478515625
1.558154296875
1.4630859374999998
1.413134765625
1.3712402343749999
1.361572265625
1.3527099609375
1.351904296875
1.3551269531249999
1.3623779296874998
1.3833251953124999
1.40185546875
1.409912109375
1.4244140625
1.4711425781249998
1.3261230468749998
1.219775390625
1.1867431640625
1.168212890625
1.1698242187499999
1.1754638671875
1.287451171875
1.4034667968749999
1.5154541015624998
1.6000488281249998
1.638720703125
1.6717529296875
1.7023681640625
1.7152587890625
1.7104248046875
1.7015624999999999
1.69189453125
1.662890625
1.6645019531249998
1.6371093749999999
1.5944091796875
1.7611816406249998
1.8884765625
1.9086181640625
1.9198974609375
1.9215087890625
1.915869140625
1.7813232421874998
1.59521484375
1.4598632812499999
1.4042724609375
1.3736572265625
1.445361328125
1.3599609375
1.35673828125
1.3575439453125
1.377685546875
1.3801025390625
1.3905761718749998
1.409912109375
1.4228027343749998
1.458251953125
1.3897705078125
1.2350830078125
1.2044677734375
1.1657958984374999
1.173046875
1.1867431640625
1.2455566406249998
1.3929931640625
1.5057861328125
1.5782958984375
1.6298583984375
1.6814208984374999
1.7039794921875
1.7015624999999999
1.7080078125
1.6991455078125
1.6878662109375
1.6693359374999999
1.6604736328124998
1.6451660156249999
1.60166015625
1.7499023437499999
1.87236328125
1.8957275390625
1.9166748046875
1.920703125
1.899755859375
1.8103271484374999
1.6209960937499999
1.5041748046874999
1.4413330078125
1.3865478515624998
1.3744628906249998
1.3591552734374999
1.3623779296874998
1.3527099609375
1.3583496093749998
1.3792968749999999
1.38896484375
1.40185546875
1.413134765625
1.4445556640625
1.4058837890625
1.26005859375
1.1931884765625
1.171435546875
1.171435546875
1.1754638671875
1.2423339843749999
1.3430419921874999
1.4687255859375
1.5734619140625
1.6290527343749999
1.6604736328124998
1.6991455078125
1.706396484375
1.7104248046875
1.69833984375
1.6830322265625
1.6806152343749998
1.6653076171874999
1.6483886718749998
1.6056884765625
1.6701416015625
1.8715576171875
1.9021728515624998
1.9223144531249998
1.9263427734374998
1.9062011718749998
1.8820312499999998
1.6854492187499999
1.4961181640624999
1.432470703125
1.3929931640625
1.364794921875
1.3639892578125
1.3559326171875
1.3623779296874998
1.3639892578125
1.3857421875
1.3825195312499998
1.4026611328124998
1.40830078125
1.4236083984374999
1.413134765625
1.2665039062499999
1.206884765625
1.190771484375
1.1706298828125
1.171435546875
1.1915771484375
1.3317626953125
1.4574462890625
1.5492919921875
1.625830078125
1.65966796875
1.6894775390624999
1.7104248046875
1.703173828125
1.706396484375
1.7023681640625
1.6798095703125
1.6588623046875
1.654833984375
1.622607421875
1.654833984375
1.8369140625
1.8981445312499998
1.9118408203125
1.9223144531249998
1.9110351562499999
1.8731689453125
1.67578125
1.5364013671874999
1.4268310546874998
1.3954101562499999
1.3704345703124998
1.3664062499999998
1.351904296875
1.3656005859375
1.361572265625
1.3817138671875
1.393798828125
1.4091064453125
1.40830078125
1.4268310546874998
1.46953125
1.3059814453124998
1.21171875
1.18271484375
1.1657958984374999
1.1819091796874999
1.190771484375
1.2979248046874998
1.409912109375
1.5484863281249999
1.6089111328124999
1.6403320312499998
1.67900390625
1.6991455078125
1.7080078125
1.7047851562499998
1.6935058593749999
1.6733642578124999
1.6540283203125
1.6556396484375
1.6395263671875
1.61455078125
1.8328857421875
1.8925048828125
1.9150634765624999
1.9166748046875
1.912646484375
1.8941162109374998
1.7861572265624999
1.5605712890624999
1.4671142578124998
1.413134765625
1.37607421875
1.3656005859375
1.3639892578125
1.3599609375
1.35673828125
1.3591552734374999
1.37607421875
1.3905761718749998
1.4139404296875
1.4195800781249999
1.4759765624999999
1.3237060546875
1.2254150390625
1.1883544921875
1.1690185546875
1.1698242187499999
1.1851318359375
1.2850341796875
1.4066894531249998
1.5138427734375
1.6040771484374998
1.6459716796875
1.6822265625
1.703173828125
1.7080078125
1.7104248046875
1.6951171875
1.6830322265625
1.6733642578124999
1.658056640625
1.641943359375
1.6129394531249999
1.76279296875
1.8925048828125
1.9142578124999998
1.9263427734374998
1.925537109375
1.90458984375
1.8054931640624998
1.609716796875
1.4671142578124998
1.409912109375
1.384130859375
1.361572265625
1.3502929687499998
1.3607666015625
1.3631835937499999
1.37607421875
1.3833251953124999
1.3865478515624998
1.405078125
1.4171630859375
1.4526123046875
1.41796875
1.22783203125
1.184326171875
1.173046875
1.1625732421875
1.184326171875
1.2463623046874999
1.40185546875
1.5090087890625
1.5815185546875
1.6234130859375
1.6725585937499998
1.7015624999999999
1.706396484375
1.7007568359374998
1.706396484375
1.6781982421875
1.6693359374999999
1.662890625
1.6540283203125
1.61455078125
1.7490966796874998
1.867529296875
1.8989501953124999
1.9231201171874999
1.9190917968749999
1.9029785156249999
1.8046875
1.6129394531249999
1.490478515625
1.429248046875
1.380908203125
1.3712402343749999
1.35673828125
1.3551269531249999
1.3664062499999998
1.3656005859375
1.377685546875
1.3978271484375
1.4042724609375
1.416357421875
1.4493896484375
1.4010498046875
1.2568359375
1.1931884765625
1.1698242187499999
1.1674072265625
1.1835205078125
1.24716796875
1.3527099609375
1.4606689453125
1.5686279296874999
1.6234130859375
1.662890625
1.6935058593749999
1.706396484375
1.7072021484375
1.6967285156249998
1.6894775390624999
1.6749755859375
1.6717529296875
1.6459716796875
1.6121337890624998
1.6612792968749999
1.8707519531249999
1.90458984375
1.9263427734374998
1.920703125
1.9070068359374999
1.8828369140624999
1.7007568359374998
1.513037109375
1.43408203125
1.400244140625
1.3704345703124998
1.3543212890624998
1.361572265625
1.3559326171875
1.3559326171875
1.3728515625
1.3865478515624998
1.400244140625
1.4107177734374998
1.4268310546874998
1.4066894531249998
1.2584472656249999
1.2044677734375
1.1754638671875
1.1617675781249999
1.1754638671875
1.2044677734375
1.3390136718749999
1.4558349609374999
1.545263671875
1.6234130859375
1.6588623046875
1.683837890625
1.706396484375
1.6991455078125
1.7023681640625
1.690283203125
1.6749755859375
1.662890625
1.654833984375
1.6266357421875
1.6645019531249998
1.843359375
1.9029785156249999
1.9198974609375
1.9190917968749999
1.899755859375
1.8739746093749998
1.6935058593749999
1.5396240234374998
1.4437499999999999
1.4058837890625
1.3792968749999999
1.3728515625
1.3591552734374999
1.3688232421875
1.3631835937499999
1.368017578125
1.3913818359374999
1.3929931640625
1.4171630859375
1.4187744140624998
1.4622802734375
1.3059814453124998
1.2028564453125
1.190771484375
1.174658203125
1.184326171875
1.1947998046875
1.2995361328125
1.3857421875
1.55009765625
1.61455078125
1.6459716796875
1.6846435546874998
1.6935058593749999
1.69833984375
1.69189453125
1.6959228515625
1.6773925781249999
1.6645019531249998
1.64677734375
1.63388671875
1.6024658203125
1.8304687499999999
1.8884765625
1.912646484375
1.925537109375
1.912646484375
1.9062011718749998
1.7829345703125
1.5517089843749998
1.461474609375
1.4171630859375
1.3736572265625
1.3688232421875
1.361572265625
1.3583496093749998
1.3583496093749998
1.368017578125
1.3881591796875
1.393798828125
1.4115234374999999
1.41796875
1.4872558593749998
1.327734375
1.232666015625
1.1802978515625
1.1666015625
1.1698242187499999
1.1819091796874999
1.27939453125
1.3897705078125
1.48564453125
1.606494140625
1.6556396484375
1.6894775390624999
1.7104248046875
1.69833984375
1.6951171875
1.6943115234375
1.6717529296875
1.6564453124999998
1.6403320312499998
1.638720703125
1.585546875
1.7684326171875
1.8812255859375
1.912646484375
1.9303710937499998
1.9223144531249998
1.8957275390625
1.815966796875
1.6177734375
1.4719482421874999
1.4107177734374998
1.38896484375
1.3736572265625
1.3728515625
1.3656005859375
1.3656005859375
1.36962890625
1.38896484375
1.40185546875
1.3921875
1.40185546875
1.456640625
1.3921875
1.22783203125
1.171435546875
1.1512939453125
1.1754638671875
1.19560546875
1.2576416015624998
1.38896484375
1.4872558593749998
1.5662109375
1.6282470703124998
1.6765869140624998
1.703173828125
1.7217041015624999
1.73056640625
1.71123046875
1.6910888671875
1.6725585937499998
1.6620849609375
1.6475830078125
1.5984375
1.7450683593749998
1.844970703125
1.8707519531249999
1.915869140625
1.920703125
1.909423828125
1.8046875
1.6185791015625
1.5057861328125
1.4332763671875
1.3801025390625
1.361572265625
1.3631835937499999
1.364794921875
1.3631835937499999
1.36962890625
1.3736572265625
1.380908203125
1.405078125
1.4236083984374999
1.4469726562499998
1.4042724609375
1.2777832031249998
1.216552734375
1.1819091796874999
1.171435546875
1.1851318359375
1.2189697265625
1.335791015625
1.4606689453125
1.5605712890624999
1.6153564453125
1.66611328125
1.7007568359374998
1.7039794921875
1.6991455078125
1.7136474609374999
1.6894775390624999
1.683837890625
1.6620849609375
1.64677734375
1.6161621093749998
1.683837890625
1.867529296875
1.8949218749999999
1.9053955078125
1.9231201171874999
1.9029785156249999
1.87236328125
1.6685302734374998
1.4993408203124998
1.4373046875
1.393798828125
1.3623779296874998
1.35673828125
1.3656005859375
1.3712402343749999
1.3825195312499998
1.3873535156249999
1.3857421875
1.393798828125
1.41796875
1.4074951171874999
1.380908203125
1.2334716796875
1.1931884765625
1.1996337890625
1.1819091796874999
1.187548828125
1.203662109375
1.34384765625
1.46630859375
1.5637939453124998
1.63388671875
1.6685302734374998
1.6894775390624999
1.7088134765624998
1.6806152343749998
1.6878662109375
1.6991455078125
1.716064453125
1.6540283203125
1.619384765625
1.622607421875
1.66611328125
1.8167724609375
1.8586669921874999
1.9013671875
1.9247314453125
1.9303710937499998
1.90458984375
1.71123046875
1.5484863281249999
1.442138671875
1.4074951171874999
1.3728515625
1.3583496093749998
1.3607666015625
1.3873535156249999
1.3833251953124999
1.3825195312499998
1.3801025390625
1.3921875
1.3946044921874998
1.4123291015625
1.4864501953125
1.3261230468749998
1.2374999999999998
1.2012451171875
1.1835205078125
1.168212890625
1.1657958984374999
1.2673095703125
1.3978271484375
1.5476806640624998
1.5968261718749999
1.6669189453125
1.7015624999999999
1.7249267578124998
1.714453125
1.6951171875
1.719287109375
1.716064453125
1.690283203125
1.6588623046875
1.6645019531249998
1.6250244140624999
1.85947265625
1.8546386718749999
1.8498046874999998
1.869140625
1.8522216796875
1.8707519531249999
1.7474853515625
1.5726562499999999
1.4896728515625
1.4300537109375
1.3873535156249999
1.3672119140624999
1.3422363281249998
1.3575439453125
1.36962890625
1.409912109375
1.4228027343749998
1.4058837890625
1.44052734375
1.4171630859375
1.4469726562499998
1.2947021484374999
1.216552734375
1.2012451171875
1.18916015625
1.1770751953125
1.1859374999999999
1.300341796875
1.4123291015625
1.522705078125
1.6137451171875
1.6588623046875
1.699951171875
1.7281494140625
1.699951171875
1.6862548828125
1.6967285156249998
1.6685302734374998
1.67900390625
1.6822265625
1.6733642578124999
1.5863525390625
1.791796875
1.9021728515624998
1.8949218749999999
1.9078125
1.9166748046875
1.9223144531249998
1.815966796875
1.61455078125
1.4840332031249999
1.40830078125
1.3502929687499998
1.2914794921875
1.3712402343749999
1.3825195312499998
1.3736572265625
1.3913818359374999
1.3954101562499999
1.4107177734374998
1.426025390625
1.4300537109375
1.48564453125
1.41796875
1.2342773437499999
1.2173583984375
1.203662109375
1.2141357421874999
1.2157470703125
1.27939453125
1.4123291015625
1.5090087890625
1.5791015625
1.6153564453125
1.6733642578124999
1.6959228515625
1.6854492187499999
1.674169921875
1.662890625
1.667724609375
1.6532226562499999
1.6314697265625
1.6306640625
1.5517089843749998
1.7362060546875
1.867529296875
1.880419921875
1.9231201171874999
1.9102294921874998
1.8900878906249998
1.8143554687499999
1.5919921874999998
1.4711425781249998
1.4058837890625
1.3720458984375
1.361572265625
1.3502929687499998
1.353515625
1.3559326171875
1.3607666015625
1.3768798828125
1.3881591796875
1.4058837890625
1.3978271484375
1.4501953125
1.4203857421875
1.252001953125
1.206884765625
1.1778808593749999
1.1545166015625
1.1295410156249999
1.1964111328125
1.329345703125
1.4719482421874999
1.6000488281249998
1.6330810546874999
1.6532226562499999
1.6765869140624998
1.706396484375
1.73056640625
1.74345703125
1.7039794921875
1.658056640625
1.6371093749999999
1.6209960937499999
1.5202880859374999
1.65966796875
1.9102294921874998
1.9182861328124998
1.9150634765624999
1.91748046875
1.925537109375
1.8699462890624998
1.64677734375
1.4928955078125
1.4711425781249998
2.325146484375
1.8788085937499999
1.4622802734375
1.40185546875
1.3784912109374998
1.377685546875
1.4034667968749999
1.3954101562499999
1.3784912109374998
1.3921875
1.4034667968749999
1.3881591796875
1.2109130859375
1.12470703125
1.0763671875
1.09248046875
1.1464599609375
1.1400146484375
1.2802001953125
1.4252197265625
1.522705078125
1.5863525390625
1.6234130859375
1.6540283203125
1.6725585937499998
1.6733642578124999
1.6685302734374998
1.6645019531249998
1.638720703125
1.6411376953124999
1.6185791015625
1.5412353515625
1.6048828124999999
1.8473876953125
1.8796142578125
1.8949218749999999
1.912646484375
1.9134521484375
1.9456787109375
1.69833984375
1.522705078125
1.41796875
1.3849365234375
1.361572265625
1.353515625
1.3478759765625
1.345458984375
1.3422363281249998
1.364794921875
1.368017578125
1.3792968749999999
1.3962158203125
1.41796875
1.5436523437499998
1.2826171874999999
1.1738525390624999
1.1609619140625
1.1448486328125
1.1706298828125
1.1819091796874999
1.2737548828124998
1.4767822265625
1.571044921875
1.6266357421875
1.6588623046875
1.674169921875
1.69189453125
1.6886718749999998
1.716064453125
1.6854492187499999
1.6636962890625
1.65966796875
1.6451660156249999
1.635498046875
1.5057861328125
1.85302734375
1.8957275390625
1.9102294921874998
1.9408447265625
1.925537109375
1.996435546875
1.716064453125
1.5404296874999999
1.4373046875
1.3962158203125
1.3623779296874998
1.3575439453125
1.353515625
1.377685546875
1.3478759765625
1.361572265625
1.3865478515624998
1.4066894531249998
1.413134765625
1.4228027343749998
1.5879638671874998
1.3100097656249998
1.2020507812499999
1.173046875
1.142431640625
1.147265625
1.174658203125
1.2834228515625
1.4066894531249998
1.5299560546875
1.609716796875
1.6556396484375
1.6733642578124999
1.6975341796874999
1.722509765625
1.7217041015624999
1.7080078125
1.6910888671875
1.67578125
1.6491943359374999
1.635498046875
1.4703369140625
1.7764892578125
1.9053955078125
1.915869140625
1.9376220703125
1.9529296875
2.0052978515624997
1.8071044921875
1.5621826171875
1.4574462890625
1.4203857421875
1.3849365234375
1.3575439453125
1.3599609375
1.361572265625
1.3656005859375
1.3510986328124999
1.3825195312499998
1.40185546875
1.4171630859375
1.4284423828125
1.587158203125
1.3083984375
1.1859374999999999
1.1859374999999999
1.164990234375
1.1416259765624999
1.1134277343749999
1.200439453125
1.3897705078125
1.4961181640624999
1.5766845703124999
1.6435546875
1.65966796875
1.6967285156249998
1.703173828125
1.6975341796874999
1.6959228515625
1.6798095703125
1.6717529296875
1.651611328125
1.6379150390625
1.41796875
1.7781005859374999
1.9166748046875
1.9021728515624998
1.9376220703125
1.9295654296875
1.9231201171874999
1.9150634765624999
1.6040771484374998
1.4638916015624999
1.413134765625
1.3825195312499998
1.351904296875
1.361572265625
1.3551269531249999
1.3744628906249998
1.3502929687499998
1.3575439453125
1.384130859375
1.4195800781249999
1.41796875
1.558154296875
1.4236083984374999
1.21171875
1.1899658203124999
1.1577392578124999
1.152099609375
1.1319580078125
1.198828125
1.340625
1.4977294921875
1.56298828125
1.6379150390625
1.674169921875
1.7104248046875
1.7257324218749999
1.7265380859375
1.7200927734375
1.703173828125
1.670947265625
1.654833984375
1.6282470703124998
1.4703369140625
1.606494140625
1.8973388671875
1.9110351562499999
1.931982421875
1.9537353515625
1.9489013671875
2.0359130859375
1.6894775390624999
1.4655029296875
1.3929931640625
1.3672119140624999
1.3623779296874998
1.335791015625
1.34384765625
1.3720458984375
1.37607421875
1.3897705078125
1.4074951171874999
1.4187744140624998
1.40830078125
1.4252197265625
1.4445556640625
1.2076904296875
1.18271484375
1.1754638671875
1.148876953125
1.1537109374999999
1.1416259765624999
1.3092041015625
1.4791992187499998
1.5726562499999999
1.6346923828125
1.6588623046875
1.6927001953124998
1.7015624999999999
1.7072021484375
1.703173828125
1.7072021484375
1.66611328125
1.6532226562499999
1.6346923828125
1.5001464843749999
1.5919921874999998
1.9037841796875
1.9311767578124999
1.960986328125
1.9658203125
1.9303710937499998
1.9948242187499998
1.6604736328124998
1.482421875
1.4171630859375
1.3905761718749998
1.3688232421875
1.361572265625
1.3688232421875
1.37607421875
1.3551269531249999
1.3664062499999998
1.37607421875
1.3921875
1.4091064453125
1.4284423828125
1.6137451171875
1.232666015625
1.1931884765625
1.18271484375
1.158544921875
1.1496826171874999
1.1496826171874999
1.2568359375
1.458251953125
1.5436523437499998
1.6177734375
1.6725585937499998
1.6910888671875
1.7096191406249999
1.6830322265625
1.687060546875
1.67900390625
1.7023681640625
1.6773925781249999
1.6508056640625
1.6290527343749999
1.5509033203125
1.9029785156249999
1.9166748046875
1.9190917968749999
1.9223144531249998
1.9303710937499998
1.996435546875
1.7555419921875
1.52109375
1.4364990234375
1.3817138671875
1.3623779296874998
1.3502929687499998
1.3744628906249998
1.3905761718749998
1.3712402343749999
1.38896484375
1.368017578125
1.3736572265625
1.4058837890625
1.4308593749999998
1.6427490234375
1.2721435546875
1.1851318359375
1.1754638671875
1.155322265625
1.148876953125
1.1214843749999999
1.2584472656249999
1.4268310546874998
1.5637939453124998
1.61455078125
1.6540283203125
1.66611328125
1.7088134765624998
1.7023681640625
1.714453125
1.6991455078125
1.67578125
1.6612792968749999
1.6532226562499999
1.63388671875
1.4203857421875
1.7958251953125
1.9279541015625
1.9070068359374999
1.93681640625
1.9247314453125
2.044775390625
1.8280517578125
1.5170654296875
1.4437499999999999
1.3978271484375
1.3639892578125
1.36962890625
1.3510986328124999
1.3704345703124998
1.3470703124999999
1.3744628906249998
1.3913818359374999
1.3913818359374999
1.40185546875
1.41796875
1.6048828124999999
1.3067871093749999
1.1802978515625
1.1931884765625
1.155322265625
1.1400146484375
1.1512939453125
1.2399169921875
1.4026611328124998
1.525927734375
1.59521484375
1.6572509765624999
1.6693359374999999
1.7128417968749998
1.7096191406249999
1.6935058593749999
1.6975341796874999
1.6765869140624998
1.658056640625
1.638720703125
1.6773925781249999
1.47275390625
1.8006591796875
1.912646484375
1.9037841796875
1.91748046875
1.9303710937499998
1.989990234375
1.8602783203125
1.5782958984375
1.45341796875
1.4074951171874999
1.384130859375
1.3672119140624999
1.3583496093749998
1.3462646484374998
1.361572265625
1.3502929687499998
1.377685546875
1.3954101562499999
1.4123291015625
1.4252197265625
1.5758789062499998
1.4364990234375
1.168212890625
1.1666015625
1.142431640625
1.16337890625
1.139208984375
1.2141357421874999
1.345458984375
1.5347900390625
1.5895751953125
1.6306640625
1.6540283203125
1.7072021484375
1.6951171875
1.7208984374999998
1.6927001953124998
1.6693359374999999
1.6612792968749999
1.6685302734374998
1.6330810546874999
1.4872558593749998
1.7571533203124998
1.915869140625
1.912646484375
1.941650390625
1.93681640625
1.9190917968749999
2.0262451171875
1.609716796875
1.4719482421874999
1.409912109375
1.3833251953124999
1.3744628906249998
1.3631835937499999
1.3543212890624998
1.3462646484374998
1.3575439453125
1.37607421875
1.3929931640625
1.4147460937499998
1.4219970703125
1.51787109375
1.461474609375
1.20849609375
1.1794921875
1.1722412109375
1.1666015625
1.152099609375
1.1867431640625
1.3092041015625
1.474365234375
1.5863525390625
1.622607421875
1.65966796875
1.6967285156249998
1.714453125
1.716064453125
1.6975341796874999
1.7055908203124999
1.6814208984374999
1.6564453124999998
1.63388671875
1.50498046875
1.5791015625
1.928759765625
1.9263427734374998
1.915869140625
1.9279541015625
1.9303710937499998
1.9940185546875
1.654833984375
1.47275390625
1.4155517578124999
1.3905761718749998
1.3736572265625
1.35673828125
1.3446533203125
1.38896484375
1.368017578125
1.3792968749999999
1.3929931640625
1.4115234374999999
1.4276367187499999
1.429248046875
1.6556396484375
1.2189697265625
1.1786865234375
1.1859374999999999
1.158544921875
1.147265625
1.1190673828125
1.31162109375
1.4574462890625
1.5565429687499999
1.6201904296874998
1.6693359374999999
1.687060546875
1.7120361328125
1.6943115234375
1.6943115234375
1.7047851562499998
1.6733642578124999
1.66611328125
1.6717529296875
1.6435546875
1.561376953125
1.8900878906249998
1.920703125
1.9086181640625
1.9247314453125
1.931982421875
2.02060546875
1.7176757812499999
1.5186767578125
1.4445556640625
1.393798828125
1.3744628906249998
1.364794921875
1.35673828125
1.3784912109374998
1.3543212890624998
1.380908203125
1.380908203125
1.3929931640625
1.4115234374999999
1.4147460937499998
1.6427490234375
1.3011474609375
1.17626953125
1.1867431640625
1.1706298828125
1.16015625
1.1432373046875
1.248779296875
1.400244140625
1.545263671875
1.6185791015625
1.6427490234375
1.6862548828125
1.706396484375
1.6951171875
1.7184814453125
1.69189453125
1.6846435546874998
1.66611328125
1.6556396484375
1.638720703125
1.4187744140624998
1.8788085937499999
1.91748046875
1.9029785156249999
1.920703125
1.92392578125
1.996435546875
1.8651123046875
1.5364013671874999
1.4397216796874999
1.3865478515624998
1.3704345703124998
1.3656005859375
1.35673828125
1.3688232421875
1.3913818359374999
1.3905761718749998
1.380908203125
1.3946044921874998
1.445361328125
1.4356933593749999
1.654833984375
1.3237060546875
1.1802978515625
1.1577392578124999
1.139208984375
1.1408203125
1.148876953125
1.252001953125
1.3929931640625
1.513037109375
1.6153564453125
1.65
1.667724609375
1.7007568359374998
1.7345947265625
1.699951171875
1.7080078125
1.6822265625
1.6653076171874999
1.6508056640625
1.6411376953124999
1.4042724609375
1.7732666015624998
1.912646484375
1.909423828125
1.920703125
1.9303710937499998
2.0109375
1.8417480468749998
1.5944091796875
1.4518066406249999
1.4203857421875
1.3817138671875
1.3470703124999999
1.3285400390625
1.3583496093749998
1.3817138671875
1.3857421875
1.3849365234375
1.4155517578124999
1.4244140625
1.4236083984374999
1.5492919921875
1.327734375
1.18271484375
1.1625732421875
1.1609619140625
1.1690185546875
1.15693359375
1.19560546875
1.3857421875
1.506591796875
1.5895751953125
1.6330810546874999
1.6693359374999999
1.6951171875
1.699951171875
1.69189453125
1.706396484375
1.6822265625
1.6846435546874998
1.6540283203125
1.65
1.5057861328125
1.7499023437499999
1.912646484375
1.9110351562499999
1.9343994140624998
1.9408447265625
1.9223144531249998
1.925537109375
1.635498046875
1.4872558593749998
1.4308593749999998
1.3728515625
1.3704345703124998
1.3575439453125
1.3462646484374998
1.3414306640625
1.3470703124999999
1.3792968749999999
1.40185546875
1.393798828125
1.416357421875
1.5275390624999998
1.4655029296875
1.222998046875
1.2101074218749999
1.181103515625
1.158544921875
1.1400146484375
1.1899658203124999
1.319677734375
1.4711425781249998
1.5815185546875
1.6314697265625
1.6556396484375
1.6886718749999998
1.7047851562499998
1.7088134765624998
1.7104248046875
1.6604736328124998
1.6532226562499999
1.6806152343749998
1.6612792968749999
1.5750732421875
1.59521484375
1.9182861328124998
1.92392578125
1.915869140625
1.9263427734374998
1.91748046875
2.012548828125
1.7337890624999999
1.4791992187499998
1.4042724609375
1.380908203125
1.3623779296874998
1.3470703124999999
1.3559326171875
1.3688232421875
1.3575439453125
1.3704345703124998
1.3728515625
1.40830078125
1.4252197265625
1.4276367187499999
1.7853515624999998
1.7426513671875
2.689306640625
3.034130859375
3.027685546875
3.0325195312499997
2.2034912109375
0.9812988281249999
0.2908447265625
0.027392578124999997
0.0249755859375
0.02900390625
0.026586914062499998
0.033032226562499996
0.38188476562499996
0.45761718749999997
0.7951904296875
1.15693359375
1.397021484375
1.6379150390625
1.5541259765625
0.026586914062499998
0.0217529296875
0.030615234374999998
0.027392578124999997
0.3037353515625
0.816943359375
3.0309082031249996
3.0252685546875
3.0309082031249996
3.029296875
3.0301025390625
3.029296875
3.029296875
3.0123779296874997
3.0268798828124996
2.7972656249999996
2.5193115234374996
2.3307861328125
2.1325927734375
1.9029785156249999
1.6234130859375
3.0244628906249997
3.0301025390625
3.0309082031249996
3.029296875
2.8633300781249997
2.2598876953125
1.0731445312499999
0.0281982421875
0.026586914062499998
0.027392578124999997
0.027392578124999997
0.0249755859375
0.02578125
0.0249755859375
0.0394775390625
0.22236328125
0.40927734374999997
0.6372802734374999
0.871728515625
1.1029541015625
1.2818115234374998
0.02578125
0.02578125
0.02578125
0.022558593749999998
0.2570068359375
0.8668945312499999
2.2107421874999997
3.029296875
3.0333251953125
3.029296875
3.0309082031249996
3.0284912109374997
3.0252685546875
3.029296875
2.9817626953125
2.7787353515624997
2.5902099609375
2.3525390625
2.14306640625
1.780517578125
1.5815185546875
2.6691650390625
3.034130859375
3.029296875
3.0252685546875
2.89716796875
2.5241455078125
1.4928955078125
0.3391845703125
0.0298095703125
0.027392578124999997
0.022558593749999998
0.0298095703125
0.02578125
0.02900390625
0.026586914062499998
0.24895019531249998
0.388330078125
0.5889404296874999
0.878173828125
1.0884521484375
1.3212890625
0.0314208984375
0.026586914062499998
0.030615234374999998
0.026586914062499998
0.1998046875
0.5551025390625
1.2205810546875
3.02607421875
3.02607421875
3.029296875
3.029296875
3.029296875
3.0309082031249996
3.0284912109374997
2.98095703125
2.9447021484375
2.6482177734374996
2.3718749999999997
2.2083251953125
1.98515625
1.7684326171875
2.5015869140625
3.0268798828124996
3.0357421875
3.029296875
3.0139892578125
2.75537109375
1.9037841796875
0.50595703125
0.026586914062499998
0.027392578124999997
0.02578125
0.023364257812499997
0.027392578124999997
0.02578125
0.020947265625
0.146630859375
0.18691406249999998
0.5615478515625
0.7661865234374999
0.9949951171875
1.3140380859374998
0.2634521484375
0.026586914062499998
0.030615234374999998
0.026586914062499998
0.08942871093749999
0.39638671875
1.2665039062499999
3.0301025390625
3.037353515625
3.0284912109374997
3.0301025390625
3.027685546875
3.0284912109374997
3.0268798828124996
3.0067382812499996
2.99384765625
2.6522460937499996
2.4846679687499997
2.2880859375
1.957763671875
1.7539306640624999
1.480810546875
3.0333251953125
3.0268798828124996
3.02607421875
3.029296875
2.721533203125
2.1906005859374997
1.052197265625
0.027392578124999997
0.027392578124999997
0.026586914062499998
0.0314208984375
0.027392578124999997
0.027392578124999997
0.026586914062499998
0.2022216796875
0.28439941406249997
0.476953125
0.6453369140624999
0.9216796875
1.1464599609375
1.3237060546875
0.02578125
0.02900390625
0.0314208984375
0.0298095703125
0.34160156249999996
0.8451416015625
2.40732421875
3.0284912109374997
3.0301025390625
3.029296875
3.0268798828124996
3.029296875
3.0309082031249996
3.0333251953125
3.0309082031249996
2.88427734375
2.6192138671875
2.3001708984375
2.0633056640625
1.8465820312499999
1.651611328125
3.0349365234374996
3.0284912109374997
3.0325195312499997
3.0333251953125
2.8850830078125
2.4000732421874997
0.9676025390624999
0.027392578124999997
0.026586914062499998
0.026586914062499998
0.026586914062499998
0.026586914062499998
0.026586914062499998
0.02578125
0.026586914062499998
0.24089355468749998
0.37382812499999996
0.7033447265624999
0.9490722656249999
1.1706298828125
1.464697265625
0.0281982421875
0.02900390625
0.02578125
0.023364257812499997
0.19255371093749998
0.5921630859375
2.591015625
3.0236572265625
3.0139892578125
3.029296875
3.0325195312499997
3.0333251953125
3.0236572265625
3.0333251953125
2.9503417968749996
2.89072265625
2.5354248046874996
2.350927734375
2.1567626953125
1.925537109375
1.683837890625
2.8391601562499997
3.0317138671875
3.0309082031249996
3.029296875
2.937451171875
2.4749999999999996
1.6935058593749999
0.25620117187499997
0.027392578124999997
0.0314208984375
0.0322265625
0.026586914062499998
0.026586914062499998
0.027392578124999997
0.026586914062499998
0.21914062499999998
0.356103515625
0.6179443359375
0.8572265625
1.1255126953124999
1.345458984375
0.02578125
0.026586914062499998
0.026586914062499998
0.026586914062499998
0.07009277343749999
0.6195556640625
1.368017578125
3.0317138671875
3.0236572265625
3.0301025390625
3.029296875
3.0309082031249996
3.0325195312499997
3.0357421875
3.0268798828124996
3.0002929687499997
2.618408203125
2.463720703125
2.1648193359375
1.9440673828125
1.7370117187499998
2.6876953125
3.029296875
3.0301025390625
3.0333251953125
2.9519531249999997
2.6514404296875
2.0737792968749997
0.33676757812499997
0.027392578124999997
0.02578125
0.027392578124999997
0.02578125
0.026586914062499998
0.02578125
0.02578125
0.14421386718749998
0.33757324218749996
0.6324462890625
0.8612548828125
1.06669921875
1.2826171874999999
0.0797607421875
0.022558593749999998
0.02900390625
0.026586914062499998
0.0837890625
0.43022460937499996
0.9144287109375
3.0301025390625
3.034130859375
3.0244628906249997
3.0284912109374997
3.0325195312499997
3.0301025390625
3.0284912109374997
3.0043212890624997
2.8697753906249996
2.82626953125
2.4943359375
2.26875
2.0109375
1.7208984374999998
1.509814453125
3.029296875
3.029296875
3.0309082031249996
3.027685546875
2.8399658203125
2.1245361328125
0.8749511718749999
0.030615234374999998
0.026586914062499998
0.027392578124999997
0.020947265625
0.0281982421875
0.0249755859375
0.027392578124999997
0.026586914062499998
0.19658203124999998
0.4447265625
0.7017333984374999
0.966796875
1.1778808593749999
1.3801025390625
0.02578125
0.026586914062499998
0.026586914062499998
0.02900390625
0.378662109375
0.9482666015625
3.0075439453125
3.029296875
3.029296875
3.0301025390625
3.0301025390625
3.0244628906249997
3.0284912109374997
3.0284912109374997
3.0244628906249997
2.7964599609375
2.570068359375
2.34609375
2.070556640625
1.8796142578125
1.670947265625
3.0301025390625
3.0301025390625
3.0301025390625
3.0309082031249996
2.840771484375
2.402490234375
1.1786865234375
0.030615234374999998
0.0217529296875
0.0322265625
0.020947265625
0.026586914062499998
0.027392578124999997
0.0249755859375
0.030615234374999998
0.18369140625
0.3746337890625
0.67998046875
0.9168457031249999
1.0948974609375
1.3543212890624998
0.0249755859375
0.02578125
0.0217529296875
0.0249755859375
0.29326171875
0.72509765625
2.466943359375
3.0301025390625
3.0301025390625
3.029296875
3.0284912109374997
3.0268798828124996
3.0268798828124996
3.034130859375
3.01962890625
2.9583984374999996
2.5797363281249996
2.3968505859375
2.1293701171875
1.9013671875
1.6105224609375
2.85205078125
3.0252685546875
3.0228515624999996
3.027685546875
2.89072265625
2.441162109375
1.252001953125
0.1571044921875
0.02578125
0.0249755859375
0.020947265625
0.023364257812499997
0.024169921875
0.0298095703125
0.02578125
0.02578125
0.3311279296875
0.5357666015625
0.7460449218749999
1.0497802734375
1.2447509765625
0.030615234374999998
0.0281982421875
0.026586914062499998
0.026586914062499998
0.1877197265625
0.6574218749999999
1.3994384765624999
3.029296875
3.0236572265625
3.02607421875
3.029296875
3.0244628906249997
3.0301025390625
3.029296875
3.0107666015624996
2.9962646484374997
2.6804443359374996
2.4903076171875
2.2614990234375
1.977099609375
1.7668212890625
1.545263671875
3.0284912109374997
3.0333251953125
3.0284912109374997
2.956787109375
2.6337158203124997
2.0181884765625
0.7259033203124999
0.027392578124999997
0.0281982421875
0.026586914062499998
0.030615234374999998
0.0281982421875
0.026586914062499998
0.0314208984375
0.072509765625
0.223974609375
0.48984374999999997
0.82177734375
1.087646484375
1.2745605468749999
0.026586914062499998
0.026586914062499998
0.0281982421875
0.027392578124999997
0.15146484375
0.4842041015625
1.06025390625
3.0309082031249996
3.029296875
3.0284912109374997
3.0284912109374997
3.02607421875
3.0309082031249996
3.0244628906249997
3.027685546875
2.8681640625
2.7368408203124996
2.4822509765625
2.2510253906249997
2.0173828124999997
1.835302734375
1.53076171875
3.0268798828124996
3.0317138671875
3.034130859375
3.027685546875
2.7892089843749996
2.1205078125
0.9128173828124999
0.0249755859375
0.027392578124999997
0.026586914062499998
0.02578125
0.02900390625
0.0249755859375
0.02578125
0.0314208984375
0.18369140625
0.4487548828125
0.6574218749999999
0.865283203125
1.17626953125
1.3623779296874998
0.0281982421875
0.02578125
0.0298095703125
0.024169921875
0.30051269531249997
1.013525390625
2.7094482421875
3.0317138671875
3.0309082031249996
3.0252685546875
3.0252685546875
3.027685546875
3.0301025390625
3.0325195312499997
2.808544921875
2.8657470703124996
2.5813476562499997
2.3718749999999997
2.1325927734375
1.8336914062499998
1.6209960937499999
2.9382568359374996
3.0309082031249996
3.034130859375
3.0325195312499997
2.818212890625
2.3920166015624997
1.134375
0.027392578124999997
0.0281982421875
0.027392578124999997
0.02578125
0.027392578124999997
0.027392578124999997
0.026586914062499998
0.027392578124999997
0.1538818359375
0.40283203125
0.62841796875
0.9353759765624999
1.1456542968749999
1.3341796874999998
0.02578125
0.027392578124999997
0.026586914062499998
0.027392578124999997
0.2135009765625
0.6735351562499999
1.9150634765624999
3.0301025390625
3.0301025390625
3.0301025390625
3.0244628906249997
3.0301025390625
3.034130859375
3.0284912109374997
2.8810546875
2.7908203124999997
2.65546875
2.367041015625
2.164013671875
1.9545410156249998
1.7313720703125
2.89716796875
3.0301025390625
3.0252685546875
3.0325195312499997
2.900390625
2.6095458984374997
1.351904296875
0.11359863281249999
0.026586914062499998
0.02578125
0.027392578124999997
0.026586914062499998
0.027392578124999997
0.0281982421875
0.026586914062499998
0.024169921875
0.31904296875
0.5921630859375
0.8274169921875
1.074755859375
1.3470703124999999
0.027392578124999997
0.026586914062499998
0.0281982421875
0.023364257812499997
0.16838378906249998
0.4471435546875
1.69833984375
3.0325195312499997
3.0325195312499997
3.0309082031249996
3.029296875
3.0325195312499997
3.034130859375
3.0317138671875
3.01318359375
2.7851806640624996
2.5732910156249997
2.39443359375
2.1785156249999997
1.8828369140624999
1.6910888671875
1.6306640625
3.029296875
3.0284912109374997
3.0325195312499997
3.029296875
2.5974609374999997
1.9762939453125
0.6977050781249999
0.026586914062499998
0.026586914062499998
0.027392578124999997
0.027392578124999997
0.026586914062499998
0.027392578124999997
0.02900390625
0.0837890625
0.38591308593749996
0.5736328125
0.7943847656249999
1.0731445312499999
1.3011474609375
1.3527099609375
0.0281982421875
0.02578125
0.02578125
0.02900390625
0.49870605468749996
1.1319580078125
3.0204345703124997
3.0236572265625
3.0228515624999996
3.0284912109374997
3.0244628906249997
3.0301025390625
3.0284912109374997
3.0268798828124996
2.824658203125
2.7497314453125
2.5168945312499997
2.2268554687499997
2.0214111328124997
1.80791015625
1.52109375
3.02607421875
3.0284912109374997
3.029296875
3.0325195312499997
2.7819580078125
2.28486328125
0.7114013671874999
0.02900390625
0.023364257812499997
0.027392578124999997
0.024169921875
0.02900390625
0.02578125
0.0298095703125
0.0314208984375
0.167578125
0.5309326171875
0.7387939453125
0.9547119140625
1.1706298828125
1.3954101562499999
0.022558593749999998
0.024169921875
0.0281982421875
0.024169921875
0.301318359375
0.7903564453124999
3.029296875
3.02607421875
3.0301025390625
3.027685546875
3.02607421875
3.0284912109374997
3.029296875
3.0139892578125
2.9285888671875
2.7368408203124996
2.5249511718749997
2.3477050781249997
2.115673828125
1.7821289062499999
1.5718505859374998
3.0284912109374997
3.0244628906249997
3.0309082031249996
3.0284912109374997
2.9108642578125
2.3871826171875
1.077978515625
0.02578125
0.0281982421875
0.027392578124999997
0.026586914062499998
0.027392578124999997
0.0298095703125
0.026586914062499998
0.1538818359375
0.14421386718749998
0.40927734374999997
0.6292236328124999
0.9353759765624999
1.1142333984375
1.3261230468749998
0.026586914062499998
0.027392578124999997
0.02578125
0.0281982421875
0.249755859375
0.7565185546875
1.9231201171874999
3.0309082031249996
3.0301025390625
3.0252685546875
3.0301025390625
3.0301025390625
3.029296875
3.029296875
2.76826171875
2.7336181640625
2.553955078125
2.3533447265625
2.01416015625
1.8054931640624998
1.619384765625
2.9269775390625
3.029296875
3.0301025390625
3.0284912109374997
2.8858886718749996
2.5257568359375
1.7611816406249998
0.026586914062499998
0.027392578124999997
0.026586914062499998
0.0249755859375
0.027392578124999997
0.027392578124999997
0.026586914062499998
0.02900390625
0.153076171875
0.37060546875
0.6517822265625
0.8467529296874999
1.0578369140625
1.3212890625
0.0281982421875
0.02578125
0.023364257812499997
0.023364257812499997
0.1941650390625
0.5389892578125
1.5154541015624998
3.029296875
3.029296875
3.0333251953125
3.0309082031249996
3.0284912109374997
3.0309082031249996
3.0309082031249996
3.029296875
2.8786376953125
2.7030029296875
2.479833984375
2.2324951171875
2.075390625
1.767626953125
1.91748046875
3.027685546875
3.0357421875
3.02607421875
3.0325195312499997
2.6103515625
1.9674316406249999
0.5647705078124999
0.02578125
0.02578125
0.02578125
0.026586914062499998
0.02578125
0.0281982421875
0.027392578124999997
0.10554199218749999
0.339990234375
0.5244873046874999
0.7597412109374999
1.0513916015625
1.27294921875
1.0691162109374999
0.027392578124999997
0.0281982421875
0.020947265625
0.04833984375
0.48017578125
1.10859375
3.0301025390625
3.0268798828124996
3.027685546875
3.0252685546875
3.029296875
3.027685546875
3.029296875
3.011572265625
2.7674560546875
2.6546630859375
2.4758056640625
2.183349609375
2.0181884765625
1.8022705078124999
1.587158203125
3.02607421875
3.027685546875
3.0309082031249996
3.0333251953125
2.727978515625
2.2510253906249997
0.9651855468749999
0.0314208984375
0.0281982421875
0.027392578124999997
0.026586914062499998
0.026586914062499998
0.026586914062499998
0.02578125
0.09345703124999999
0.20302734374999998
0.48017578125
0.78955078125
0.9788818359375
1.2012451171875
1.3631835937499999
0.0217529296875
0.02578125
0.027392578124999997
0.0217529296875
0.35690917968749997
0.8846191406249999
3.0284912109374997
3.029296875
3.0333251953125
3.0284912109374997
3.0301025390625
3.0301025390625
3.0284912109374997
3.0317138671875
3.0309082031249996
2.7690673828124996
2.5168945312499997
2.3291748046875
2.1052001953125
1.8651123046875
1.5396240234374998
3.0268798828124996
3.0325195312499997
3.0325195312499997
3.029296875
2.9100585937499996
2.350927734375
1.1899658203124999
0.0217529296875
0.027392578124999997
0.024169921875
0.027392578124999997
0.0249755859375
0.0314208984375
0.026586914062499998
0.223974609375
0.3182373046875
0.48984374999999997
0.678369140625
0.8886474609374999
1.158544921875
1.3736572265625
0.026586914062499998
0.026586914062499998
0.026586914062499998
0.026586914062499998
0.23928222656249998
0.7661865234374999
1.9360107421875
3.029296875
3.027685546875
3.029296875
3.0333251953125
3.027685546875
3.0284912109374997
3.027685546875
2.9769287109375
2.6852783203125
2.5773193359374997
2.358984375
2.1052001953125
1.9078125
1.706396484375
2.5628173828125
3.0309082031249996
3.0301025390625
3.0333251953125
2.874609375
2.495947265625
1.7740722656249999
0.026586914062499998
0.0314208984375
0.02578125
0.027392578124999997
0.0322265625
0.0281982421875
0.0298095703125
0.091845703125
0.1619384765625
0.3424072265625
0.5035400390625
0.8677001953125
1.103759765625
1.2673095703125
0.027392578124999997
0.024169921875
0.0314208984375
0.0249755859375
0.146630859375
0.5663818359375
1.2141357421874999
3.027685546875
3.0301025390625
3.0301025390625
3.0309082031249996
3.0317138671875
3.0268798828124996
3.0317138671875
3.0284912109374997
2.908447265625
2.67158203125
2.3960449218749997
2.1978515625
2.00771484375
1.7635986328125
2.167236328125
3.0301025390625
3.0268798828124996
3.027685546875
3.0284912109374997
2.737646484375
1.9658203125
0.48984374999999997
0.02578125
0.022558593749999998
0.02578125
0.022558593749999998
0.023364257812499997
0.026586914062499998
0.027392578124999997
0.153076171875
0.2795654296875
0.543017578125
0.736376953125
0.9434326171874999
1.2399169921875
0.7645751953125
0.02578125
0.030615234374999998
0.027392578124999997
0.0539794921875
0.38994140624999996
1.18916015625
3.029296875
3.0284912109374997
3.0309082031249996
3.0317138671875
3.0357421875
3.0301025390625
3.029296875
3.0220458984375
3.029296875
2.7336181640625
2.4903076171875
2.273583984375
2.0044921875
1.7635986328125
1.5218994140625
3.029296875
3.029296875
3.0301025390625
3.0333251953125
2.7416748046875
2.225244140625
0.958740234375
0.027392578124999997
0.026586914062499998
0.027392578124999997
0.024169921875
0.0322265625
0.0217529296875
0.02900390625
0.08217773437499999
0.24492187499999998
0.4552001953125
0.671923828125
0.9772705078124999
1.2101074218749999
1.4107177734374998
0.02578125
0.0281982421875
0.026586914062499998
0.027392578124999997
0.294873046875
0.8241943359374999
2.479833984375
3.029296875
3.029296875
3.029296875
3.029296875
3.0268798828124996
3.0301025390625
3.029296875
3.027685546875
2.7706787109374997
2.5499267578125
2.3138671875
2.08505859375
1.8683349609375
1.5645996093749999
3.0236572265625
3.029296875
3.0309082031249996
3.0333251953125
2.9253662109375
2.49755859375
0.9788818359375
0.0217529296875
0.0249755859375
0.02578125
0.022558593749999998
0.026586914062499998
0.0249755859375
0.02578125
0.153076171875
0.25620117187499997
0.47856445312499996
0.7017333984374999
0.9047607421874999
1.126318359375
1.3494873046875
0.02578125
0.02900390625
0.026586914062499998
0.026586914062499998
0.2376708984375
0.6670898437499999
2.4903076171875
3.0317138671875
3.0349365234374996
3.0309082031249996
3.027685546875
3.018017578125
3.0268798828124996
3.0301025390625
3.001904296875
3.0236572265625
2.5885986328125
2.384765625
2.1777099609375
1.8224121093749999
1.5863525390625
2.6538574218749997
3.027685546875
3.0268798828124996
3.0284912109374997
2.9495361328125
2.4725830078124997
1.6209960937499999
0.301318359375
0.022558593749999998
0.0281982421875
0.026586914062499998
0.0298095703125
0.026586914062499998
0.026586914062499998
0.027392578124999997
0.27392578125
0.388330078125
0.5986083984375
0.9418212890625
1.1295410156249999
1.3253173828125
0.10231933593749999
0.027392578124999997
0.026586914062499998
0.026586914062499998
0.2183349609375
0.5438232421875
1.2455566406249998
3.0405761718749997
3.027685546875
3.029296875
3.027685546875
3.029296875
3.0309082031249996
3.029296875
3.0301025390625
2.9720947265624997
2.6377441406249997
2.462109375
2.1333984375
1.9352050781249999
1.7096191406249999
2.47177734375
3.029296875
3.0325195312499997
3.0309082031249996
3.0244628906249997
2.7046142578124996
2.0649169921875
0.36093749999999997
0.027392578124999997
0.026586914062499998
0.023364257812499997
0.0298095703125
0.026586914062499998
0.026586914062499998
0.023364257812499997
0.18691406249999998
0.2989013671875
0.546240234375
0.79921875
1.0417236328125
1.3220947265624998
0.2940673828125
0.022558593749999998
0.026586914062499998
0.0249755859375
0.037060546874999996
0.339990234375
1.2109130859375
3.0317138671875
3.029296875
3.029296875
3.0309082031249996
3.029296875
3.0252685546875
3.029296875
2.9906249999999996
2.9342285156249996
2.6240478515624996
2.4766113281249997
2.2550537109374997
2.006103515625
1.7474853515625
1.533984375
3.034130859375
3.0301025390625
3.029296875
3.0301025390625
2.7263671874999997
2.1841552734375
0.8805908203124999
0.022558593749999998
0.026586914062499998
0.024169921875
0.0217529296875
0.024169921875
0.020947265625
0.0217529296875
0.18852539062499998
0.25217285156249997
0.485009765625
0.6517822265625
0.9853271484374999
1.187548828125
1.3720458984375
0.027392578124999997
0.02578125
0.0217529296875
0.0298095703125
0.3794677734375
0.9313476562499999
2.7086425781249996
3.0268798828124996
3.029296875
3.029296875
3.029296875
3.0309082031249996
3.0284912109374997
3.029296875
3.0333251953125
2.840771484375
2.544287109375
2.2727783203125
2.031884765625
1.7861572265624999
1.577490234375
3.029296875
3.0244628906249997
3.029296875
3.0317138671875
2.8673583984374997
2.4548583984375
1.0256103515625
0.026586914062499998
0.027392578124999997
0.026586914062499998
0.027392578124999997
0.026586914062499998
0.02900390625
0.0281982421875
0.026586914062499998
0.2876220703125
0.451171875
0.7017333984374999
0.926513671875
1.1537109374999999
1.405078125
0.026586914062499998
0.0249755859375
0.0298095703125
0.026586914062499998
0.21269531249999998
0.6405029296875
2.1712646484375
3.027685546875
3.0284912109374997
3.0284912109374997
3.0309082031249996
3.0325195312499997
3.034130859375
3.0317138671875
2.9825683593749996
2.9906249999999996
2.5869873046875
2.3984619140625
2.1615966796875
1.8812255859375
1.6669189453125
2.8166015625
3.0325195312499997
3.0317138671875
3.029296875
2.9455078125
2.489501953125
1.603271484375
0.2771484375
0.027392578124999997
0.0249755859375
0.027392578124999997
0.023364257812499997
0.033032226562499996
0.026586914062499998
0.0298095703125
0.20463867187499998
0.32951660156249996
0.5502685546875
0.7718261718749999
1.0433349609375
1.268115234375
0.02578125
0.026586914062499998
0.020947265625
0.027392578124999997
0.18288574218749998
0.6485595703125
1.3664062499999998
3.029296875
3.0268798828124996
3.029296875
3.0244628906249997
3.027685546875
3.034130859375
3.029296875
3.027685546875
2.9358398437499997
2.5708740234375
2.3968505859375
2.083447265625
1.883642578125
1.6862548828125
2.608740234375
3.027685546875
3.029296875
3.0309082031249996
3.0083496093749997
2.6997802734375
2.102783203125
0.35690917968749997
0.0281982421875
0.027392578124999997
0.02900390625
0.026586914062499998
0.020947265625
0.0298095703125
0.0314208984375
0.159521484375
0.2715087890625
0.5953857421875
0.8201660156249999
1.0489746093749999
1.2769775390625
0.26103515625
0.0249755859375
0.019335937499999997
0.0298095703125
0.09426269531249999
0.4318359375
1.0119140625
3.0333251953125
3.0284912109374997
3.0309082031249996
3.0268798828124996
3.029296875
3.0309082031249996
3.029296875
3.0301025390625
2.953564453125
2.88427734375
2.50400390625
2.3017822265625
2.0657226562499997
1.7692382812499998
1.5299560546875
3.034130859375
3.029296875
3.0333251953125
3.02607421875
2.8359375
2.14951171875
0.9192626953124999
0.02578125
0.027392578124999997
0.030615234374999998
0.026586914062499998
0.026586914062499998
0.030615234374999998
0.0249755859375
0.02900390625
0.29970703125
0.459228515625
0.6614501953124999
0.9724365234375
1.1883544921875
1.384130859375
0.030615234374999998
0.027392578124999997
0.022558593749999998
0.0298095703125
0.40283203125
0.897509765625
2.5402587890625
3.0268798828124996
3.029296875
3.0301025390625
3.0284912109374997
3.0252685546875
3.0301025390625
3.0309082031249996
3.029296875
2.8447998046875
2.6111572265625
2.392822265625
2.1277587890625
1.920703125
1.674169921875
3.0301025390625
3.0244628906249997
3.029296875
3.029296875
2.8472167968749997
2.3694580078125
1.2310546875
0.0201416015625
0.027392578124999997
0.027392578124999997
0.027392578124999997
0.026586914062499998
0.02578125
0.02900390625
0.02900390625
0.17644042968749998
0.34965820312499996
0.6340576171875
0.84755859375
1.077978515625
1.3583496093749998
0.027392578124999997
0.020947265625
0.026586914062499998
0.0378662109375
0.2698974609375
0.7371826171875
2.931005859375
3.0284912109374997
3.0301025390625
3.0268798828124996
3.0309082031249996
3.0325195312499997
3.02607421875
3.021240234375
2.9414794921875
2.8254638671874996
2.54267578125
2.3291748046875
2.1301757812499997
1.8981445312499998
1.6363037109374998
2.8335205078124996
3.029296875
3.0228515624999996
3.027685546875
2.9366455078125
2.462109375
1.3921875
0.2022216796875
0.0249755859375
0.02578125
0.027392578124999997
0.026586914062499998
0.026586914062499998
0.026586914062499998
0.02900390625
0.0298095703125
0.399609375
0.639697265625
0.8572265625
1.1400146484375
1.368017578125
0.0281982421875
0.026586914062499998
0.030615234374999998
0.027392578124999997
0.16435546874999998
0.639697265625
1.4058837890625
3.0309082031249996
3.027685546875
3.029296875
3.0301025390625
3.0333251953125
3.0325195312499997
3.029296875
3.02607421875
3.0204345703124997
2.6361328124999996
2.4500244140625
2.1293701171875
1.909423828125
1.732177734375
2.7747070312499997
3.02607421875
3.0309082031249996
3.0268798828124996
2.89716796875
2.6337158203124997
2.0052978515624997
0.24814453125
0.026586914062499998
0.026586914062499998
0.026586914062499998
0.027392578124999997
0.026586914062499998
0.02578125
0.033032226562499996
0.09990234375
0.30454101562499997
0.51884765625
0.8225830078124999
1.0570312499999999
1.2665039062499999
0.0281982421875
0.026586914062499998
0.026586914062499998
0.02578125
0.1039306640625
0.4068603515625
0.9740478515625
3.0325195312499997
3.0301025390625
3.027685546875
3.0333251953125
3.027685546875
3.034130859375
3.0252685546875
3.0284912109374997
2.9028076171875
2.8367431640625
2.5241455078125
2.2953369140624997
2.0197998046875
1.69833984375
1.4751708984374998
3.027685546875
3.029296875
3.0317138671875
3.0309082031249996
2.7884033203125
2.1060058593749997
0.8121093749999999
0.02578125
0.0281982421875
0.0249755859375
0.0322265625
0.0281982421875
0.026586914062499998
0.0298095703125
0.027392578124999997
0.269091796875
0.515625
0.7613525390625
0.9974121093749999
1.264892578125
1.448583984375
0.023364257812499997
0.0322265625
0.0249755859375
0.0249755859375
0.2650634765625
0.9990234375
2.92939453125
3.0268798828124996
3.027685546875
3.029296875
3.0284912109374997
3.0309082031249996
3.0244628906249997
3.011572265625
2.7513427734375
2.69736328125
2.4943359375
2.3162841796875
2.0326904296875
1.8054931640624998
1.611328125
2.9495361328125
3.0301025390625
3.0317138671875
3.0309082031249996
2.8294921874999996
2.358984375
1.0852294921874999
0.023364257812499997
0.02900390625
0.026586914062499998
0.0281982421875
0.0249755859375
0.026586914062499998
0.030615234374999998
0.030615234374999998
0.2215576171875
0.39638671875
0.605859375
0.8822021484375
1.1021484375
1.31162109375
0.0217529296875
0.0322265625
0.0281982421875
0.030615234374999998
0.26748046875
0.6920654296875
1.5484863281249999
3.0268798828124996
3.029296875
3.0309082031249996
3.029296875
3.0284912109374997
3.0333251953125
3.0309082031249996
2.9882080078124997
2.900390625
2.6627197265625
2.3517333984374997
2.0979492187499997
1.864306640625
1.6153564453125
2.785986328125
3.0301025390625
3.0284912109374997
3.02607421875
2.8754150390624997
2.582958984375
1.224609375
0.1119873046875
0.026586914062499998
0.026586914062499998
0.026586914062499998
0.027392578124999997
0.026586914062499998
0.026586914062499998
0.02578125
0.02578125
0.36093749999999997
0.6872314453124999
0.8830078124999999
1.1480712890625
1.4139404296875
0.026586914062499998
0.027392578124999997
0.023364257812499997
0.0298095703125
0.15629882812499998
0.517236328125
1.47275390625
3.0268798828124996
3.0301025390625
3.02607421875
3.027685546875
3.0228515624999996
3.0268798828124996
3.029296875
2.985791015625
2.7561767578125
2.60712890625
2.4121582031249997
2.2067138671874997
1.8336914062499998
1.662890625
1.4977294921875
3.029296875
3.0244628906249997
3.029296875
3.029296875
2.6014892578124997
1.948095703125
0.5929687499999999
0.027392578124999997
0.0281982421875
0.023364257812499997
0.027392578124999997
0.02578125
0.030615234374999998
0.026586914062499998
0.072509765625
0.38349609375
0.5502685546875
0.75732421875
1.0489746093749999
1.2850341796875
1.429248046875
0.033032226562499996
0.02578125
0.02578125
0.165966796875
0.41411132812499996
1.03125
3.0309082031249996
3.029296875
3.0349365234374996
3.0309082031249996
3.0309082031249996
3.0301025390625
3.034130859375
3.0333251953125
2.88427734375
2.73603515625
2.4685546874999997
2.173681640625
1.9489013671875
1.7450683593749998
1.4187744140624998
3.0309082031249996
3.034130859375
3.0284912109374997
3.029296875
2.784375
2.341259765625
0.8225830078124999
0.0298095703125
0.02578125
0.0281982421875
0.026586914062499998
0.022558593749999998
0.02578125
0.02578125
0.0281982421875
0.2384765625
0.5534912109375
0.7420166015624999
1.03125
1.2665039062499999
1.456640625
0.026586914062499998
0.026586914062499998
0.0281982421875
0.027392578124999997
0.2908447265625
0.768603515625
2.7948486328124997
3.029296875
3.029296875
3.029296875
3.0268798828124996
3.029296875
3.0284912109374997
3.0284912109374997
2.8029052734374997
2.7255615234375
2.512060546875
2.2840576171875
2.0496093749999997
1.7595703125
1.5380126953125
2.9430908203125
3.02607421875
3.027685546875
3.0309082031249996
2.9011962890625
2.3485107421875
1.0086914062499999
0.0217529296875
0.0281982421875
0.0314208984375
0.0298095703125
0.023364257812499997
0.0249755859375
0.0249755859375
0.1119873046875
0.21672363281249998
0.5212646484375
0.7565185546875
1.018359375
1.32451171875
1.5428466796875
0.027392578124999997
0.0249755859375
0.0314208984375
0.027392578124999997
0.2747314453125
0.7355712890624999
2.0536376953124997
3.0317138671875
3.029296875
3.0284912109374997
3.0325195312499997
3.0309082031249996
3.0268798828124996
3.0252685546875
2.7626220703124997
2.6280761718749996
2.5209228515624997
2.305810546875
2.0197998046875
1.8022705078124999
1.5863525390625
2.848828125
3.034130859375
3.029296875
3.0349365234374996
2.85849609375
2.4943359375
1.8280517578125
0.0298095703125
0.0322265625
0.026586914062499998
0.023364257812499997
0.026586914062499998
0.022558593749999998
0.026586914062499998
0.078955078125
0.12568359375
0.452783203125
0.7581298828124999
0.984521484375
1.2318603515625
1.4816162109375
0.02578125
0.026586914062499998
0.0314208984375
0.027392578124999997
0.1957763671875
0.533349609375
1.6363037109374998
3.029296875
3.029296875
3.027685546875
3.034130859375
3.0317138671875
3.029296875
2.9688720703125
3.0002929687499997
2.7948486328124997
2.5845703125
2.312255859375
2.064111328125
1.8498046874999998
1.4679199218749999
1.59521484375
3.0252685546875
3.027685546875
3.0284912109374997
2.9688720703125
2.4822509765625
1.9013671875
0.6243896484375
0.030615234374999998
0.0298095703125
0.026586914062499998
0.027392578124999997
0.030615234374999998
0.026586914062499998
0.12890625
0.36899414062499997
0.5969970703124999
0.7959960937499999
1.0658935546875
1.3720458984375
1.611328125
1.5380126953125
0.027392578124999997
0.030615234374999998
0.026586914062499998
0.041088867187499996
0.4793701171875
3.029296875
3.0244628906249997
0.7307373046875
1.271337890625
2.151123046875
2.083447265625
1.909423828125
1.85947265625
1.832080078125
1.7893798828124998
1.7571533203124998
1.7418457031249999
1.7337890624999999
1.3656005859375
0.020947265625
1.6435546875
1.8731689453125
1.4228027343749998
1.3083984375
1.3414306640625
1.297119140625
1.4228027343749998
1.4364990234375
1.5879638671874998
1.6951171875
1.75634765625
1.844970703125
1.877197265625
1.8860595703124998
1.8828369140624999
1.8377197265624998
1.8570556640625
1.8796142578125
1.8409423828125
1.77890625
1.791796875
1.7531249999999998
1.7450683593749998
1.9537353515625
2.0069091796875
2.035107421875
2.0375244140624997
2.015771484375
1.9988525390624998
1.8256347656249998
1.6540283203125
1.5218994140625
1.4848388671875
1.442138671875
1.426025390625
1.4268310546874998
1.40830078125
1.405078125
1.4284423828125
1.4364990234375
1.4550292968749998
1.45341796875
1.45341796875
1.5299560546875
1.316455078125
1.2439453125
1.224609375
1.1835205078125
1.1931884765625
1.2044677734375
1.2914794921875
1.4364990234375
1.5428466796875
1.5968261718749999
1.65966796875
1.6886718749999998
1.7088134765624998
1.6967285156249998
1.71123046875
1.7088134765624998
1.6967285156249998
1.6701416015625
1.6411376953124999
1.6435546875
1.61455078125
1.8183837890624999
1.8973388671875
1.9150634765624999
1.9182861328124998
1.9384277343749998
1.9424560546874998
1.7595703125
1.5887695312499999
1.4961181640624999
1.4187744140624998
1.3865478515624998
1.3784912109374998
1.3639892578125
1.3672119140624999
1.361572265625
1.364794921875
1.3833251953124999
1.3986328124999998
1.416357421875
1.4219970703125
1.4671142578124998
1.3365966796875
1.2350830078125
1.1867431640625
1.174658203125
1.1690185546875
1.1722412109375
1.26328125
1.380908203125
1.5162597656249999
1.5911865234375
1.6363037109374998
1.6653076171874999
1.6975341796874999
1.7096191406249999
1.7080078125
1.6943115234375
1.6886718749999998
1.6685302734374998
1.6572509765624999
1.6508056640625
1.5758789062499998
1.7289550781249998
1.8828369140624999
1.9086181640625
1.9190917968749999
1.928759765625
1.9021728515624998
1.8506103515624999
1.59521484375
1.490478515625
1.4252197265625
1.3986328124999998
1.3720458984375
1.361572265625
1.3712402343749999
1.364794921875
1.36962890625
1.3825195312499998
1.3929931640625
1.4066894531249998
1.4147460937499998
1.4373046875
1.353515625
1.2399169921875
1.1931884765625
1.1698242187499999
1.1706298828125
1.1722412109375
1.2673095703125
1.3801025390625
1.4896728515625
1.5654052734375
1.6363037109374998
1.6604736328124998
1.683837890625
1.7120361328125
1.6951171875
1.7007568359374998
1.687060546875
1.6669189453125
1.6588623046875
1.6475830078125
1.5895751953125
1.7120361328125
1.8618896484374998
1.896533203125
1.920703125
1.9198974609375
1.9013671875
1.8369140625
1.6491943359374999
1.5186767578125
1.4356933593749999
1.405078125
1.3728515625
1.3599609375
1.364794921875
1.3575439453125
1.3720458984375
1.384130859375
1.3929931640625
1.3986328124999998
1.4195800781249999
1.4252197265625
1.4268310546874998
1.2463623046874999
1.2028564453125
1.1883544921875
1.1666015625
1.1778808593749999
1.2157470703125
1.3172607421875
1.4751708984374998
1.5517089843749998
1.6072998046875
1.65966796875
1.6959228515625
1.703173828125
1.7055908203124999
1.7023681640625
1.6943115234375
1.6749755859375
1.6604736328124998
1.6451660156249999
1.638720703125
1.7039794921875
1.8538330078124998
1.8884765625
1.9062011718749998
1.912646484375
1.9110351562499999
1.896533203125
1.670947265625
1.53720703125
1.4510009765624998
1.4058837890625
1.3801025390625
1.3728515625
1.353515625
1.3639892578125
1.3623779296874998
1.3728515625
1.3897705078125
1.3897705078125
1.4107177734374998
1.432470703125
1.4348876953124998
1.2665039062499999
1.2157470703125
1.1794921875
1.17626953125
1.16337890625
1.219775390625
1.313232421875
1.426025390625
1.5492919921875
1.619384765625
1.651611328125
1.6701416015625
1.6991455078125
1.6959228515625
1.7104248046875
1.6830322265625
1.6749755859375
1.6636962890625
1.6427490234375
1.63388671875
1.62744140625
1.8143554687499999
1.9005615234375
1.9142578124999998
1.9190917968749999
1.9134521484375
1.9078125
1.7458740234374999
1.538818359375
1.456640625
1.405078125
1.3801025390625
1.3631835937499999
1.364794921875
1.3639892578125
1.3688232421875
1.3752685546874999
1.384130859375
1.4058837890625
1.4107177734374998
1.4244140625
1.4791992187499998
1.2802001953125
1.2157470703125
1.1867431640625
1.155322265625
1.1706298828125
1.1738525390624999
1.2737548828124998
1.4445556640625
1.5275390624999998
1.5919921874999998
1.6556396484375
1.6669189453125
1.687060546875
1.7023681640625
1.7039794921875
1.703173828125
1.6935058593749999
1.674169921875
1.65
1.638720703125
1.625830078125
1.7982421874999999
1.8715576171875
1.9150634765624999
1.9231201171874999
1.9223144531249998
1.9110351562499999
1.74345703125
1.56943359375
1.4751708984374998
1.405078125
1.3849365234375
1.3712402343749999
1.3551269531249999
1.351904296875
1.3728515625
1.3728515625
1.3921875
1.3921875
1.40830078125
1.4147460937499998
1.4719482421874999
1.3390136718749999
1.2262207031249999
1.181103515625
1.1722412109375
1.1674072265625
1.181103515625
1.2665039062499999
1.3833251953124999
1.5235107421874998
1.5879638671874998
1.63388671875
1.6701416015625
1.6935058593749999
1.6959228515625
1.6959228515625
1.6854492187499999
1.6781982421875
1.6701416015625
1.6572509765624999
1.651611328125
1.590380859375
1.8006591796875
1.8780029296874998
1.9037841796875
1.9110351562499999
1.91748046875
1.8949218749999999
1.8506103515624999
1.611328125
1.5001464843749999
1.4348876953124998
1.3817138671875
1.3768798828125
1.3639892578125
1.3607666015625
1.3656005859375
1.3607666015625
1.3704345703124998
1.3897705078125
1.405078125
1.4091064453125
1.464697265625
1.3575439453125
1.2415283203124998
1.197216796875
1.173046875
1.1657958984374999
1.174658203125
1.2511962890625
1.3833251953124999
1.4888671875
1.5863525390625
1.6371093749999999
1.6612792968749999
1.69189453125
1.7015624999999999
1.706396484375
1.7023681640625
1.683837890625
1.6693359374999999
1.6604736328124998
1.64677734375
1.5847412109374999
1.7208984374999998
1.8635009765625
1.9078125
1.9142578124999998
1.920703125
1.909423828125
1.84013671875
1.6483886718749998
1.4800048828124999
1.4236083984374999
1.3954101562499999
1.3784912109374998
1.3543212890624998
1.3639892578125
1.3623779296874998
1.3672119140624999
1.3833251953124999
1.3994384765624999
1.40830078125
1.429248046875
1.432470703125
1.4228027343749998
1.2374999999999998
1.1947998046875
1.17626953125
1.1690185546875
1.1794921875
1.21494140625
1.3204833984375
1.480810546875
1.5605712890624999
1.6185791015625
1.6685302734374998
1.6886718749999998
1.6951171875
1.7007568359374998
1.6967285156249998
1.6862548828125
1.6749755859375
1.6604736328124998
1.6475830078125
1.6298583984375
1.7104248046875
1.8554443359375
1.8981445312499998
1.9198974609375
1.92392578125
1.912646484375
1.893310546875
1.6588623046875
1.5355957031249998
1.448583984375
1.4010498046875
1.3817138671875
1.3712402343749999
1.3664062499999998
1.3551269531249999
1.3623779296874998
1.3736572265625
1.393798828125
1.3978271484375
1.4123291015625
1.4284423828125
1.4381103515625
1.2737548828124998
1.213330078125
1.1794921875
1.174658203125
1.1778808593749999
1.2173583984375
1.316455078125
1.429248046875
1.5517089843749998
1.609716796875
1.65
1.67578125
1.69189453125
1.7015624999999999
1.699951171875
1.6862548828125
1.6717529296875
1.6636962890625
1.64677734375
1.6403320312499998
1.6290527343749999
1.815966796875
1.9053955078125
1.9110351562499999
1.9247314453125
1.920703125
1.8957275390625
1.7619873046874999
1.5525146484374999
1.4542236328125
1.4123291015625
1.3825195312499998
1.3623779296874998
1.3583496093749998
1.364794921875
1.3631835937499999
1.368017578125
1.3833251953124999
1.3905761718749998
1.4042724609375
1.4123291015625
1.47275390625
1.2834228515625
1.2157470703125
1.1859374999999999
1.1722412109375
1.1698242187499999
1.1883544921875
1.2737548828124998
1.4413330078125
1.5283447265624999
1.5984375
1.6459716796875
1.6725585937499998
1.6943115234375
1.706396484375
1.6959228515625
1.7015624999999999
1.6830322265625
1.66611328125
1.651611328125
1.6435546875
1.6218017578125
1.8062988281249999
1.8812255859375
1.9029785156249999
1.92392578125
1.925537109375
1.9118408203125
1.7378173828124999
1.5702392578125
1.4711425781249998
1.4010498046875
1.380908203125
1.3672119140624999
1.3607666015625
1.3575439453125
1.364794921875
1.36962890625
1.3881591796875
1.4066894531249998
1.4123291015625
1.4244140625
1.46953125
1.345458984375
1.239111328125
1.1947998046875
1.1690185546875
1.174658203125
1.1802978515625
1.2640869140625
1.3833251953124999
1.5114257812499998
1.5791015625
1.6282470703124998
1.667724609375
1.6991455078125
1.7023681640625
1.7015624999999999
1.7039794921875
1.67900390625
1.6733642578124999
1.654833984375
1.635498046875
1.585546875
1.7442626953125
1.8763916015625
1.90458984375
1.920703125
1.91748046875
1.9086181640625
1.8224121093749999
1.5911865234375
1.490478515625
1.4252197265625
1.393798828125
1.3728515625
1.3720458984375
1.3543212890624998
1.364794921875
1.3583496093749998
1.3768798828125
1.4010498046875
1.4074951171874999
1.413134765625
1.448583984375
1.3494873046875
1.2383056640624999
1.1915771484375
1.1738525390624999
1.1738525390624999
1.1754638671875
1.2592529296875
1.3728515625
1.4791992187499998
1.5621826171875
1.6290527343749999
1.6653076171874999
1.683837890625
1.7047851562499998
1.7055908203124999
1.69189453125
1.6806152343749998
1.6701416015625
1.6612792968749999
1.6508056640625
1.5887695312499999
1.7265380859375
1.864306640625
1.9086181640625
1.925537109375
1.91748046875
1.9037841796875
1.85947265625
1.6653076171874999
1.522705078125
1.4389160156249998
1.3913818359374999
1.3817138671875
1.3599609375
1.361572265625
1.361572265625
1.3704345703124998
1.3752685546874999
1.38896484375
1.4026611328124998
1.4091064453125
1.44052734375
1.4171630859375
1.2608642578125
1.198828125
1.174658203125
1.1698242187499999
1.184326171875
1.2286376953125
1.3269287109374999
1.4880615234374999
1.5645996093749999
1.609716796875
1.654833984375
1.6854492187499999
1.6991455078125
1.69833984375
1.7039794921875
1.690283203125
1.6773925781249999
1.6604736328124998
1.6491943359374999
1.622607421875
1.7120361328125
1.8586669921874999
1.8957275390625
1.915869140625
1.9247314453125
1.9118408203125
1.8941162109374998
1.638720703125
1.5186767578125
1.4501953125
1.397021484375
1.3712402343749999
1.3656005859375
1.3672119140624999
1.364794921875
1.3631835937499999
1.37607421875
1.3994384765624999
1.3994384765624999
1.4066894531249998
1.429248046875
1.4389160156249998
1.2705322265624999
1.2882568359375
1.184326171875
1.1706298828125
1.18271484375
1.206884765625
1.319677734375
1.4437499999999999
1.5573486328125
1.6072998046875
1.64677734375
1.6773925781249999
1.6959228515625
1.69833984375
1.6967285156249998
1.690283203125
1.6765869140624998
1.6612792968749999
1.64677734375
1.6346923828125
1.6435546875
1.8199951171875
1.8957275390625
1.9110351562499999
1.9263427734374998
1.9102294921874998
1.89169921875
1.7539306640624999
1.5404296874999999
1.4630859374999998
1.4091064453125
1.3825195312499998
1.3607666015625
1.3543212890624998
1.3583496093749998
1.351904296875
1.3664062499999998
1.384130859375
1.4058837890625
1.4155517578124999
1.416357421875
1.4719482421874999
1.287451171875
1.2060791015624999
1.19560546875
1.1625732421875
1.181103515625
1.1786865234375
1.2769775390625
1.4332763671875
1.5194824218749998
1.5879638671874998
1.651611328125
1.674169921875
1.69833984375
1.699951171875
1.6991455078125
1.6910888671875
1.6693359374999999
1.667724609375
1.65
1.6451660156249999
1.62744140625
1.80791015625
1.8868652343749999
1.9134521484375
1.925537109375
1.915869140625
1.9134521484375
1.7507080078125
1.5758789062499998
1.474365234375
1.4107177734374998
1.384130859375
1.3744628906249998
1.3672119140624999
1.364794921875
1.3664062499999998
1.3712402343749999
1.3825195312499998
1.3905761718749998
1.409912109375
1.41796875
1.4791992187499998
1.3382080078124998
1.2189697265625
1.1786865234375
1.1698242187499999
1.17626953125
1.1835205078125
1.2689208984375
1.3849365234375
1.53076171875
1.5895751953125
1.6282470703124998
1.670947265625
1.6878662109375
1.7088134765624998
1.6951171875
1.6959228515625
1.690283203125
