1.2189697265625
1.3414306640625
1.4655029296875
1.5509033203125
1.606494140625
1.6532226562499999
1.6830322265625
1.6951171875
1.7015624999999999
1.7039794921875
1.703173828125
1.670947265625
1.6645019531249998
1.6572509765624999
1.6363037109374998
1.7015624999999999
1.851416015625
1.8925048828125
1.9271484374999999
1.9376220703125
1.9247314453125
1.8820312499999998
1.6886718749999998
1.55009765625
1.4679199218749999
1.393798828125
1.3768798828125
1.368017578125
1.3551269531249999
1.3551269531249999
1.3575439453125
1.364794921875
1.3784912109374998
1.397021484375
1.405078125
1.4268310546874998
1.4510009765624998
1.27939453125
1.200439453125
1.18271484375
1.1690185546875
1.1738525390624999
1.2093017578125
1.2987304687499999
1.4171630859375
1.542041015625
1.6000488281249998
1.641943359375
1.6830322265625
1.6959228515625
1.703173828125
1.7023681640625
1.7039794921875
1.6806152343749998
1.6717529296875
1.658056640625
1.641943359375
1.619384765625
1.8457763671874998
1.896533203125
1.9198974609375
1.8546386718749999
1.9311767578124999
1.9311767578124999
1.7458740234374999
1.53076171875
1.4574462890625
1.409912109375
1.37607421875
1.36962890625
1.361572265625
1.353515625
1.3623779296874998
1.3720458984375
1.3817138671875
1.4066894531249998
1.409912109375
1.4195800781249999
1.458251953125
1.287451171875
1.2254150390625
1.1794921875
1.164990234375
1.16015625
1.171435546875
1.2906738281249999
1.4066894531249998
1.5186767578125
1.5984375
1.6435546875
1.6717529296875
1.6943115234375
1.7007568359374998
1.7055908203124999
1.7039794921875
1.690283203125
1.6685302734374998
1.6636962890625
1.6427490234375
1.609716796875
1.8054931640624998
1.88525390625
1.91748046875
1.9311767578124999
1.9231201171874999
1.9231201171874999
1.7370117187499998
1.5718505859374998
1.4622802734375
1.4123291015625
1.3873535156249999
1.3768798828125
1.35673828125
1.3599609375
1.3623779296874998
1.3607666015625
1.3744628906249998
1.3986328124999998
1.4171630859375
1.4203857421875
1.4791992187499998
1.3599609375
1.219775390625
1.1835205078125
1.1641845703125
1.164990234375
1.171435546875
1.2544189453124999
1.3559326171875
1.5106201171875
1.5758789062499998
1.6209960937499999
1.662890625
1.6991455078125
1.6967285156249998
1.699951171875
1.7015624999999999
1.6943115234375
1.6749755859375
1.6604736328124998
1.65
1.590380859375
1.7926025390625
1.877197265625
1.909423828125
1.8546386718749999
1.9384277343749998
1.9150634765624999
1.8578613281249998
1.603271484375
1.5082031249999999
1.43408203125
1.3857421875
1.3728515625
1.3656005859375
1.3664062499999998
1.3543212890624998
1.361572265625
1.3704345703124998
1.3881591796875
1.4042724609375
1.4268310546874998
1.4767822265625
1.3575439453125
1.2286376953125
1.19560546875
1.1641845703125
1.1609619140625
1.168212890625
1.2455566406249998
1.353515625
1.4711425781249998
1.5726562499999999
1.6242187499999998
1.651611328125
1.683837890625
1.7007568359374998
1.7047851562499998
1.6967285156249998
1.6814208984374999
1.6781982421875
1.667724609375
1.6451660156249999
1.5919921874999998
1.7104248046875
1.85625
1.9021728515624998
1.9198974609375
1.9303710937499998
1.9198974609375
1.867529296875
1.65966796875
1.493701171875
1.4381103515625
1.3962158203125
1.3833251953124999
1.3575439453125
1.3583496093749998
1.3631835937499999
1.364794921875
1.3825195312499998
1.3929931640625
1.3978271484375
1.4139404296875
1.4252197265625
1.4356933593749999
1.2383056640624999
1.2028564453125
1.1778808593749999
1.1617675781249999
1.1698242187499999
1.2020507812499999
1.3180664062499998
1.4606689453125
1.5517089843749998
1.6048828124999999
1.6572509765624999
1.67900390625
1.7088134765624998
1.6951171875
1.7039794921875
1.690283203125
1.6806152343749998
1.6620849609375
1.65
1.6314697265625
1.699951171875
1.85625
1.8900878906249998
1.9247314453125
1.9384277343749998
1.9198974609375
1.9118408203125
1.667724609375
1.5323730468749999
1.4638916015624999
1.400244140625
1.3825195312499998
1.36962890625
1.3575439453125
1.3583496093749998
1.3639892578125
1.3656005859375
1.3817138671875
1.3954101562499999
1.4155517578124999
1.4236083984374999
1.4437499999999999
1.2785888671874999
1.200439453125
1.1819091796874999
1.1617675781249999
1.1625732421875
1.2125244140625
1.3067871093749999
1.4236083984374999
1.538818359375
1.6040771484374998
1.64677734375
1.6773925781249999
1.6951171875
1.7015624999999999
1.6967285156249998
1.69189453125
1.6781982421875
1.6733642578124999
1.654833984375
1.6411376953124999
1.6314697265625
1.8546386718749999
1.9070068359374999
1.9231201171874999
1.93681640625
1.9223144531249998
1.9102294921874998
1.7579589843749999
1.5541259765625
1.461474609375
1.4195800781249999
1.3784912109374998
1.3712402343749999
1.3599609375
1.3599609375
1.3543212890624998
1.368017578125
1.3801025390625
1.3954101562499999
1.4147460937499998
1.41796875
1.4518066406249999
1.2777832031249998
1.216552734375
1.181103515625
1.1698242187499999
1.16015625
1.1770751953125
1.2963134765625
1.41796875
1.5194824218749998
1.6040771484374998
1.6435546875
1.6765869140624998
1.6943115234375
1.6967285156249998
1.7007568359374998
1.6991455078125
1.6878662109375
1.6717529296875
1.6508056640625
1.6435546875
1.6161621093749998
1.8038818359375
1.883642578125
1.9247314453125
1.93359375
1.9279541015625
1.9215087890625
1.754736328125
1.5863525390625
1.4606689453125
1.40830078125
1.384130859375
1.36962890625
1.361572265625
1.35673828125
1.3623779296874998
1.37607421875
1.3792968749999999
1.3954101562499999
1.4107177734374998
1.4228027343749998
1.4800048828124999
1.340625
1.2060791015624999
1.1899658203124999
1.1577392578124999
1.1641845703125
1.171435546875
1.264892578125
1.36962890625
1.5138427734375
1.5791015625
1.6306640625
1.670947265625
1.69833984375
1.7039794921875
1.7039794921875
1.699951171875
1.6951171875
1.6765869140624998
1.6588623046875
1.6483886718749998
1.5799072265624998
1.7958251953125
1.8860595703124998
1.9053955078125
1.9263427734374998
1.92392578125
1.9118408203125
1.8336914062499998
1.6000488281249998
1.49853515625
1.4373046875
1.3857421875
1.3744628906249998
1.35673828125
1.3599609375
1.3551269531249999
1.361572265625
1.3817138671875
1.3833251953124999
1.4091064453125
1.4091064453125
1.4687255859375
1.3510986328124999
1.2302490234374999
1.19560546875
1.1641845703125
1.1641845703125
1.1690185546875
1.2560302734375
1.3704345703124998
1.4751708984374998
1.577490234375
1.6218017578125
1.6612792968749999
1.6846435546874998
1.6991455078125
1.7055908203124999
1.6943115234375
1.6846435546874998
1.6765869140624998
1.6645019531249998
1.6564453124999998
1.5887695312499999
1.72734375
1.8659179687499998
1.9070068359374999
1.93359375
1.928759765625
1.9142578124999998
1.8683349609375
1.6717529296875
1.538818359375
1.44052734375
1.3994384765624999
1.3736572265625
1.3656005859375
1.3527099609375
1.3623779296874998
1.361572265625
1.36962890625
1.3825195312499998
1.3929931640625
1.409912109375
1.4381103515625
1.42119140625
1.2318603515625
1.1964111328125
1.1778808593749999
1.15693359375
1.1722412109375
1.2205810546875
1.3220947265624998
1.480810546875
1.5525146484374999
1.6081054687499998
1.6604736328124998
1.6854492187499999
1.7039794921875
1.699951171875
1.703173828125
1.690283203125
1.6781982421875
1.658056640625
1.651611328125
1.6282470703124998
1.7200927734375
1.8570556640625
1.8941162109374998
1.9190917968749999
1.9271484374999999
1.920703125
1.9053955078125
1.6588623046875
1.5243164062499999
1.4542236328125
1.3921875
1.3752685546874999
1.3631835937499999
1.3599609375
1.3559326171875
1.361572265625
1.3736572265625
1.38896484375
1.400244140625
1.4115234374999999
1.4348876953124998
1.43408203125
1.2737548828124998
1.2101074218749999
1.173046875
1.1617675781249999
1.158544921875
1.2028564453125
1.3067871093749999
1.4364990234375
1.55009765625
1.6040771484374998
1.64677734375
1.67900390625
1.6975341796874999
1.703173828125
1.7015624999999999
1.6943115234375
1.6773925781249999
1.6669189453125
1.6532226562499999
1.6314697265625
1.641943359375
1.8199951171875
1.8957275390625
1.9223144531249998
1.9303710937499998
1.915869140625
1.899755859375
1.7370117187499998
1.5396240234374998
1.4630859374999998
1.4123291015625
1.3873535156249999
1.3704345703124998
1.353515625
1.353515625
1.3599609375
1.3631835937499999
1.3792968749999999
1.393798828125
1.4042724609375
1.4268310546874998
1.4783935546875
1.2656982421874998
1.20849609375
1.1859374999999999
1.1625732421875
1.168212890625
1.1770751953125
1.2737548828124998
1.4219970703125
1.5194824218749998
1.585546875
1.63388671875
1.674169921875
1.6943115234375
1.7015624999999999
1.703173828125
1.6927001953124998
1.6781982421875
1.6733642578124999
1.6645019531249998
1.6443603515624998
1.6282470703124998
1.8143554687499999
1.88525390625
1.9279541015625
1.928759765625
1.9215087890625
1.912646484375
1.7587646484375
1.5847412109374999
1.490478515625
1.4155517578124999
1.3857421875
1.368017578125
1.3607666015625
1.3583496093749998
1.361572265625
1.3664062499999998
1.384130859375
1.3881591796875
1.4058837890625
1.4171630859375
1.480810546875
1.3309570312499999
1.2254150390625
1.1915771484375
1.1706298828125
1.15693359375
1.1794921875
1.268115234375
1.3897705078125
1.5194824218749998
1.587158203125
1.6282470703124998
1.6540283203125
1.6967285156249998
1.706396484375
1.706396484375
1.699951171875
1.6943115234375
1.6773925781249999
1.6556396484375
1.638720703125
1.590380859375
1.7571533203124998
1.8788085937499999
1.9150634765624999
1.9295654296875
1.9223144531249998
1.925537109375
1.8103271484374999
1.5807128906249999
1.4759765624999999
1.41796875
1.393798828125
1.3728515625
1.3631835937499999
1.3688232421875
1.3599609375
1.3664062499999998
1.3784912109374998
1.3986328124999998
1.4123291015625
1.4115234374999999
1.4558349609374999
1.34384765625
1.224609375
1.1939941406249999
1.1674072265625
1.1537109374999999
1.1794921875
1.2221923828124999
1.3736572265625
1.4783935546875
1.5637939453124998
1.6306640625
1.6564453124999998
1.6846435546874998
1.7039794921875
1.699951171875
1.6991455078125
1.6910888671875
1.6725585937499998
1.66611328125
1.654833984375
1.5895751953125
1.74345703125
1.8651123046875
1.9013671875
1.9247314453125
1.928759765625
1.9142578124999998
1.8570556640625
1.65966796875
1.5283447265624999
1.4469726562499998
1.4074951171874999
1.3825195312499998
1.3599609375
1.3639892578125
1.3543212890624998
1.3559326171875
1.3688232421875
1.3833251953124999
1.3946044921874998
1.4074951171874999
1.4381103515625
1.4091064453125
1.2286376953125
1.197216796875
1.1754638671875
1.1537109374999999
1.1778808593749999
1.22783203125
1.332568359375
1.4767822265625
1.5597656249999998
1.6121337890624998
1.6540283203125
1.6862548828125
1.7047851562499998
1.703173828125
1.7015624999999999
1.687060546875
1.6806152343749998
1.66611328125
1.6451660156249999
1.6169677734374999
1.6653076171874999
1.8651123046875
1.9078125
1.9279541015625
1.9432617187499999
1.9279541015625
1.912646484375
1.6451660156249999
1.5194824218749998
1.4477783203124999
1.4034667968749999
1.37607421875
1.3639892578125
1.3607666015625
1.3656005859375
1.3672119140624999
1.3672119140624999
1.38896484375
1.4058837890625
1.4115234374999999
1.4228027343749998
1.42119140625
1.252001953125
1.1996337890625
1.1722412109375
1.18271484375
1.1593505859375
1.2157470703125
1.3285400390625
1.44052734375
1.5323730468749999
1.6169677734374999
1.6443603515624998
1.6814208984374999
1.6975341796874999
1.7080078125
1.7136474609374999
1.703173828125
1.6798095703125
1.6717529296875
1.6435546875
1.6185791015625
1.6483886718749998
1.8264404296874999
1.9005615234375
1.92392578125
1.9327880859375
1.9303710937499998
1.8989501953124999
1.7136474609374999
1.5702392578125
1.4526123046875
1.4123291015625
1.3857421875
1.361572265625
1.3543212890624998
1.364794921875
1.361572265625
1.3607666015625
1.3833251953124999
1.393798828125
1.4107177734374998
1.4203857421875
1.4816162109375
1.2802001953125
1.2173583984375
1.18271484375
1.1625732421875
1.1657958984374999
1.1794921875
1.27939453125
1.4252197265625
1.509814453125
1.5670166015625
1.6363037109374998
1.6717529296875
1.7047851562499998
1.714453125
1.699951171875
1.6927001953124998
1.6806152343749998
1.6685302734374998
1.6685302734374998
1.6532226562499999
1.63388671875
1.8175781249999998
1.8860595703124998
1.9223144531249998
1.9376220703125
1.9360107421875
1.9247314453125
1.7692382812499998
1.593603515625
1.490478515625
1.42119140625
1.3857421875
1.3623779296874998
1.3510986328124999
1.3446533203125
1.351904296875
1.351904296875
1.37607421875
1.400244140625
1.409912109375
1.4268310546874998
1.47275390625
1.3204833984375
1.20849609375
1.1770751953125
1.15693359375
1.1593505859375
1.1835205078125
1.297119140625
1.409912109375
1.522705078125
1.5863525390625
1.6346923828125
1.6564453124999998
1.6733642578124999
1.6854492187499999
1.687060546875
1.6878662109375
1.6894775390624999
1.667724609375
1.654833984375
1.6604736328124998
1.6185791015625
1.783740234375
1.9150634765624999
1.9400390625
1.9408447265625
1.9263427734374998
1.9182861328124998
1.8119384765625
1.558154296875
1.429248046875
1.3543212890624998
1.3333740234375
1.3994384765624999
1.4010498046875
1.3825195312499998
1.3768798828125
1.380908203125
1.3849365234375
1.38896484375
1.400244140625
1.4107177734374998
1.4469726562499998
1.3301513671874998
1.2310546875
1.2052734375
1.171435546875
1.1561279296875
1.1698242187499999
1.2415283203124998
1.4026611328124998
1.4961181640624999
1.56943359375
1.6330810546874999
1.6604736328124998
1.6910888671875
1.7007568359374998
1.69833984375
1.7136474609374999
1.6943115234375
1.6975341796874999
1.670947265625
1.6572509765624999
1.58232421875
1.7490966796874998
1.8763916015625
1.8989501953124999
1.9021728515624998
1.9134521484375
1.8586669921874999
1.8312744140625
1.6483886718749998
1.5170654296875
1.4356933593749999
1.397021484375
1.3736572265625
1.3510986328124999
1.3510986328124999
1.3639892578125
1.36962890625
1.38896484375
1.3905761718749998
1.400244140625
1.4171630859375
1.4558349609374999
1.3954101562499999
1.2310546875
1.2044677734375
1.173046875
1.1529052734375
1.16015625
1.224609375
1.3309570312499999
1.4550292968749998
1.5541259765625
1.6185791015625
1.662890625
1.67900390625
1.6943115234375
1.7176757812499999
1.7080078125
1.6798095703125
1.6475830078125
1.6564453124999998
1.6556396484375
1.6137451171875
1.7652099609374998
1.8868652343749999
1.9053955078125
1.925537109375
1.941650390625
1.9263427734374998
1.8949218749999999
1.6314697265625
1.5267333984375
1.4622802734375
1.4091064453125
1.3833251953124999
1.3833251953124999
1.3656005859375
1.351904296875
1.3333740234375
1.3712402343749999
1.4107177734374998
1.4219970703125
1.4348876953124998
1.4638916015624999
1.4252197265625
1.2689208984375
1.1851318359375
1.1295410156249999
1.1335693359374999
1.1778808593749999
1.2366943359375
1.332568359375
1.4356933593749999
1.546875
1.6008544921874999
1.6943115234375
1.7652099609374998
1.7668212890625
1.7072021484375
1.6645019531249998
1.638720703125
1.62744140625
1.6185791015625
1.63388671875
1.6089111328124999
1.6564453124999998
1.8151611328125
1.8578613281249998
1.9779052734375
1.9787109374999998
1.9513183593749999
1.9263427734374998
1.7184814453125
1.5275390624999998
1.445361328125
1.42119140625
1.4010498046875
1.380908203125
1.3728515625
1.3744628906249998
1.3825195312499998
1.3744628906249998
1.3728515625
1.416357421875
1.4364990234375
1.4501953125
1.4945068359375
1.264892578125
1.2060791015624999
1.1883544921875
1.173046875
1.17626953125
1.1947998046875
1.2995361328125
1.46630859375
1.5517089843749998
1.6185791015625
1.6604736328124998
1.6894775390624999
1.7249267578124998
1.7104248046875
1.69833984375
1.683837890625
1.6798095703125
1.683837890625
1.6798095703125
1.740234375
1.7217041015624999
1.8892822265625
1.9247314453125
1.9489013671875
1.9311767578124999
1.9190917968749999
2.012548828125
1.719287109375
1.5315673828124998
1.44052734375
1.3817138671875
1.3559326171875
1.3543212890624998
1.3253173828125
1.335791015625
1.3470703124999999
1.3349853515624999
1.3720458984375
1.3768798828125
1.380908203125
1.397021484375
1.4920898437499999
1.2616699218749998
1.17626953125
1.1593505859375
1.1496826171874999
1.148876953125
1.1698242187499999
1.2802001953125
1.4187744140624998
1.522705078125
1.571044921875
1.6161621093749998
1.654833984375
1.6773925781249999
1.6854492187499999
1.6951171875
1.670947265625
1.6733642578124999
1.662890625
1.654833984375
1.6403320312499998
1.538818359375
1.7877685546875
1.883642578125
1.9118408203125
2.663525390625
2.7336181640625
2.2623046875
2.01416015625
1.6048828124999999
1.4719482421874999
1.3873535156249999
1.3212890625
1.2802001953125
1.2858398437499998
1.319677734375
1.303564453125
1.3019531249999998
1.3188720703124999
1.3083984375
1.3027587890624999
1.3873535156249999
1.5436523437499998
1.2374999999999998
1.1529052734375
1.1698242187499999
1.0948974609375
1.0981201171875
1.095703125
1.18271484375
1.3591552734374999
1.4848388671875
1.5605712890624999
1.6153564453125
1.6588623046875
1.6798095703125
1.667724609375
1.6588623046875
1.6588623046875
1.638720703125
1.63388671875
1.6282470703124998
1.6177734375
1.4123291015625
1.7740722656249999
1.8860595703124998
1.883642578125
1.9231201171874999
1.9384277343749998
1.9271484374999999
1.8264404296874999
1.5839355468749998
1.4518066406249999
1.38896484375
1.3599609375
1.36962890625
1.3430419921874999
1.3502929687499998
1.3462646484374998
1.351904296875
1.3704345703124998
1.3905761718749998
1.397021484375
1.4203857421875
1.5887695312499999
1.40830078125
1.1786865234375
1.1778808593749999
1.1512939453125
1.1400146484375
1.135986328125
1.173046875
1.3180664062499998
1.509814453125
1.585546875
1.63388671875
1.654833984375
1.6894775390624999
1.690283203125
1.690283203125
1.71123046875
1.6862548828125
1.6894775390624999
1.6765869140624998
1.658056640625
1.4501953125
1.611328125
1.9021728515624998
1.896533203125
1.9311767578124999
1.9400390625
1.9472900390624999
1.998046875
1.6282470703124998
1.490478515625
1.4364990234375
1.3817138671875
1.37607421875
1.3599609375
1.36962890625
1.364794921875
1.3502929687499998
1.36962890625
1.3849365234375
1.400244140625
1.3994384765624999
1.409912109375
1.4236083984374999
1.2044677734375
1.187548828125
1.1609619140625
1.1271240234375
1.1384033203125
1.19560546875
1.3341796874999998
1.47275390625
1.5645996093749999
1.6218017578125
1.6491943359374999
1.6854492187499999
1.7015624999999999
1.699951171875
1.7128417968749998
1.6822265625
1.670947265625
1.6798095703125
1.6749755859375
1.4920898437499999
1.6346923828125
1.8900878906249998
1.8860595703124998
1.9005615234375
1.9400390625
1.9658203125
2.0423583984375
1.699951171875
1.4872558593749998
1.4300537109375
1.3954101562499999
1.3736572265625
1.35673828125
1.3712402343749999
1.37607421875
1.3672119140624999
1.3752685546874999
1.37607421875
1.3801025390625
1.405078125
1.4300537109375
1.6105224609375
1.2366943359375
1.190771484375
1.187548828125
1.12470703125
1.1279296875
1.08603515625
1.2455566406249998
1.4783935546875
1.5702392578125
1.6250244140624999
1.654833984375
1.703173828125
1.7120361328125
1.71123046875
1.6959228515625
1.6935058593749999
1.6806152343749998
1.6604736328124998
1.651611328125
1.64677734375
1.6153564453125
1.8892822265625
1.896533203125
1.9215087890625
1.9489013671875
1.9472900390624999
2.0649169921875
1.6862548828125
1.5251220703125
1.4308593749999998
1.3728515625
1.377685546875
1.3792968749999999
1.3736572265625
1.3881591796875
1.368017578125
1.3784912109374998
1.3873535156249999
1.4034667968749999
1.400244140625
1.4268310546874998
1.593603515625
1.2415283203124998
1.1778808593749999
1.1819091796874999
1.164990234375
1.147265625
1.116650390625
1.26005859375
1.409912109375
1.5509033203125
1.5960205078124998
1.6443603515624998
1.6806152343749998
1.706396484375
1.69189453125
1.7088134765624998
1.6935058593749999
1.6765869140624998
1.6773925781249999
1.6532226562499999
1.6475830078125
1.448583984375
1.8336914062499998
1.9110351562499999
1.9279541015625
1.948095703125
1.948095703125
2.0044921875
1.8465820312499999
1.561376953125
1.4751708984374998
1.4236083984374999
1.3792968749999999
1.364794921875
1.3462646484374998
1.3414306640625
1.3551269531249999
1.348681640625
1.3575439453125
1.3978271484375
1.4066894531249998
1.413134765625
1.6379150390625
1.3253173828125
1.2455566406249998
1.1939941406249999
1.1375976562499999
1.1150390625
1.045751953125
1.1819091796874999
1.42119140625
1.5162597656249999
1.5895751953125
1.6572509765624999
1.64677734375
1.6814208984374999
1.6773925781249999
1.7104248046875
1.7055908203124999
1.6935058593749999
1.8183837890624999
1.8828369140624999
1.957763671875
0.026586914062499998
0.0281982421875
0.026586914062499998
0.02578125
0.0217529296875
0.330322265625
0.9643798828125
3.02607421875
3.0325195312499997
3.0244628906249997
3.029296875
3.029296875
3.0309082031249996
3.027685546875
3.0309082031249996
2.9720947265624997
2.7988769531249997
2.6192138671875
2.4556640625
2.2776123046875
2.0165771484375
3.029296875
3.027685546875
3.0284912109374997
3.0309082031249996
3.027685546875
2.8093505859374996
1.7660156249999999
0.41572265625
0.02900390625
0.026586914062499998
0.027392578124999997
0.0281982421875
0.02578125
0.02578125
0.024169921875
0.02578125
0.0652587890625
0.2263916015625
0.38591308593749996
0.52529296875
0.7468505859375
0.033032226562499996
0.026586914062499998
0.027392578124999997
0.02578125
0.0217529296875
0.233642578125
1.044140625
3.0325195312499997
3.0284912109374997
3.0252685546875
3.0301025390625
3.0284912109374997
3.02607421875
3.029296875
3.0301025390625
3.0252685546875
2.8874999999999997
2.7416748046875
2.5724853515625
2.30419921875
2.1406494140625
1.9682373046875
3.027685546875
3.0301025390625
3.0349365234374996
3.029296875
2.7787353515624997
2.2550537109374997
1.0288330078124999
0.026586914062499998
0.02900390625
0.02900390625
0.0298095703125
0.026586914062499998
0.026586914062499998
0.026586914062499998
0.027392578124999997
0.062841796875
0.127294921875
0.2296142578125
0.43747558593749997
0.594580078125
0.7097900390624999
0.027392578124999997
0.0314208984375
0.023364257812499997
0.0281982421875
0.2344482421875
0.7516845703124999
2.4169921875
3.0301025390625
3.029296875
3.029296875
3.0333251953125
3.029296875
3.029296875
3.0309082031249996
3.027685546875
3.0228515624999996
2.8029052734374997
2.5757080078124996
2.418603515625
2.270361328125
2.1140624999999997
3.02607421875
3.0325195312499997
3.0309082031249996
3.029296875
2.9455078125
2.5499267578125
1.09892578125
0.02900390625
0.026586914062499998
0.026586914062499998
0.026586914062499998
0.0281982421875
0.026586914062499998
0.026586914062499998
0.026586914062499998
0.027392578124999997
0.1699951171875
0.36093749999999997
0.5277099609375
0.6437255859375
0.81533203125
0.0281982421875
0.026586914062499998
0.023364257812499997
0.023364257812499997
0.06606445312499999
0.43828124999999996
2.4991699218749996
3.0333251953125
3.0301025390625
3.0301025390625
3.029296875
3.0301025390625
3.0317138671875
3.0309082031249996
3.0284912109374997
2.96484375
2.8190185546874997
2.6852783203125
2.5676513671874996
2.3791259765625
2.1382324218749997
3.027685546875
3.029296875
3.0301025390625
3.027685546875
3.027685546875
2.5885986328125
1.3994384765624999
0.307763671875
0.026586914062499998
0.0281982421875
0.030615234374999998
0.027392578124999997
0.026586914062499998
0.02578125
0.0281982421875
0.02578125
0.185302734375
0.29326171875
0.47050781249999996
0.6614501953124999
0.8016357421875
0.027392578124999997
0.027392578124999997
0.027392578124999997
0.027392578124999997
0.026586914062499998
0.48581542968749997
1.5509033203125
3.029296875
3.029296875
3.027685546875
3.0333251953125
3.0325195312499997
3.0301025390625
3.0301025390625
3.0317138671875
3.029296875
2.8705810546875
2.7320068359375
2.5499267578125
2.386376953125
2.204296875
2.9269775390625
3.0309082031249996
3.0309082031249996
3.029296875
3.0301025390625
2.7529541015624996
2.109228515625
0.41008300781249996
0.02578125
0.027392578124999997
0.030615234374999998
0.027392578124999997
0.02578125
0.0298095703125
0.027392578124999997
0.0281982421875
0.08217773437499999
0.1780517578125
0.37705078124999997
0.5277099609375
0.6832031249999999
0.022558593749999998
0.026586914062499998
0.022558593749999998
0.027392578124999997
0.030615234374999998
0.2771484375
0.781494140625
3.0317138671875
3.029296875
3.0333251953125
3.029296875
3.0244628906249997
3.0284912109374997
3.029296875
3.0284912109374997
3.02607421875
2.963232421875
2.7988769531249997
2.6143798828125
2.4661376953125
2.281640625
2.5636230468749996
3.029296875
3.0325195312499997
3.0325195312499997
3.0309082031249996
2.8681640625
2.1333984375
0.8773681640625
0.02578125
0.02578125
0.02900390625
0.026586914062499998
0.0281982421875
0.027392578124999997
0.027392578124999997
0.026586914062499998
0.0322265625
0.22316894531249998
0.330322265625
0.5228759765625
0.7339599609374999
0.25620117187499997
0.026586914062499998
0.026586914062499998
0.024169921875
0.027392578124999997
0.14501953125
0.7879394531249999
2.9358398437499997
3.0333251953125
3.0244628906249997
3.0301025390625
3.029296875
3.0333251953125
3.029296875
3.0309082031249996
3.0333251953125
2.947119140625
2.8149902343749997
2.7021972656249997
2.5031982421874996
2.2832519531249997
2.1132568359375
3.029296875
3.0333251953125
3.029296875
3.029296875
2.85849609375
2.4725830078124997
1.2093017578125
0.0281982421875
0.027392578124999997
0.027392578124999997
0.026586914062499998
0.02578125
0.030615234374999998
0.026586914062499998
0.026586914062499998
0.027392578124999997
0.1506591796875
0.29648437499999997
0.501123046875
0.6332519531249999
0.7806884765625
0.0281982421875
0.02900390625
0.0249755859375
0.026586914062499998
0.103125
0.5615478515625
2.08505859375
3.0325195312499997
3.029296875
3.0301025390625
3.0268798828124996
3.0252685546875
3.029296875
3.029296875
3.029296875
2.9946533203124996
2.8641357421875
2.68125
2.5265625
2.3307861328125
2.15595703125
3.0284912109374997
3.029296875
3.0268798828124996
3.0301025390625
3.0284912109374997
2.67158203125
1.397021484375
0.1554931640625
0.030615234374999998
0.02578125
0.024169921875
0.02900390625
0.026586914062499998
0.023364257812499997
0.026586914062499998
0.06767578125
0.153076171875
0.298095703125
0.456005859375
0.5994140625
0.81533203125
0.027392578124999997
0.02578125
0.0217529296875
0.0249755859375
0.027392578124999997
0.3681884765625
1.6733642578124999
3.029296875
3.029296875
3.0268798828124996
3.0309082031249996
3.029296875
3.0301025390625
3.029296875
3.0301025390625
3.027685546875
2.874609375
2.7166992187499996
2.55234375
2.37509765625
2.1849609375
3.0284912109374997
3.029296875
3.0268798828124996
3.0325195312499997
3.0365478515624997
2.66513671875
1.8973388671875
0.6195556640625
0.027392578124999997
0.026586914062499998
0.02900390625
0.0298095703125
0.023364257812499997
0.026586914062499998
0.026586914062499998
0.022558593749999998
0.120849609375
0.2441162109375
0.4004150390625
0.6324462890625
0.7774658203125
0.0217529296875
0.0314208984375
0.026586914062499998
0.02578125
0.02578125
0.3665771484375
1.0304443359375
3.0309082031249996
3.0325195312499997
3.0301025390625
3.0268798828124996
3.029296875
3.029296875
3.0333251953125
3.029296875
3.029296875
2.876220703125
2.7408691406249996
2.5386474609375
2.3501220703125
2.2107421874999997
2.0197998046875
3.0309082031249996
3.0309082031249996
3.0333251953125
3.0244628906249997
2.850439453125
2.3533447265625
0.75732421875
0.026586914062499998
0.026586914062499998
0.027392578124999997
0.027392578124999997
0.022558593749999998
0.02578125
0.026586914062499998
0.0249755859375
0.0652587890625
0.15146484375
0.310986328125
0.4890380859375
0.6437255859375
0.022558593749999998
0.0281982421875
0.026586914062499998
0.027392578124999997
0.027392578124999997
0.23203125
0.7114013671874999
3.0309082031249996
3.037353515625
3.0268798828124996
3.0244628906249997
3.0349365234374996
3.029296875
3.0301025390625
3.0268798828124996
3.027685546875
3.029296875
2.8302978515625
2.689306640625
2.51044921875
2.4202148437499997
2.147900390625
3.029296875
3.0301025390625
3.027685546875
3.0284912109374997
3.018017578125
2.37509765625
1.2374999999999998
0.02578125
0.026586914062499998
0.027392578124999997
0.026586914062499998
0.030615234374999998
0.0281982421875
0.026586914062499998
0.02578125
0.027392578124999997
0.1458251953125
0.30454101562499997
0.44956054687499997
0.6654785156249999
0.8000244140624999
0.024169921875
0.026586914062499998
0.0281982421875
0.022558593749999998
0.10634765624999999
0.66064453125
2.4169921875
3.0349365234374996
3.0244628906249997
3.02607421875
3.029296875
3.0301025390625
3.0284912109374997
3.0284912109374997
3.02607421875
2.963232421875
2.874609375
2.7207275390624996
2.495947265625
2.312255859375
2.147900390625
3.0309082031249996
3.0301025390625
3.0309082031249996
3.029296875
3.02607421875
2.63291015625
1.574267578125
0.0555908203125
0.033032226562499996
0.02900390625
0.026586914062499998
0.024169921875
0.02578125
0.0249755859375
0.024169921875
0.027392578124999997
0.1329345703125
0.252978515625
0.46567382812499997
0.6308349609374999
0.7782714843749999
0.026586914062499998
0.027392578124999997
0.026586914062499998
0.026586914062499998
0.069287109375
0.4197509765625
1.6943115234375
3.02607421875
3.0284912109374997
3.0333251953125
3.029296875
3.0301025390625
3.027685546875
3.029296875
3.0268798828124996
3.02607421875
2.8496337890624996
2.6441894531249996
2.5064208984375
2.3388427734375
2.1744873046874997
3.029296875
3.02607421875
3.0284912109374997
3.02607421875
3.029296875
2.7610107421874996
1.4638916015624999
0.4600341796875
0.0249755859375
0.027392578124999997
0.026586914062499998
0.0314208984375
0.0322265625
0.023364257812499997
0.022558593749999998
0.0322265625
0.0797607421875
0.2280029296875
0.34079589843749997
0.514013671875
0.7275146484374999
0.026586914062499998
0.02578125
0.0281982421875
0.026586914062499998
0.027392578124999997
0.30937499999999996
1.1142333984375
3.029296875
3.0284912109374997
3.027685546875
3.02607421875
3.0301025390625
3.0268798828124996
3.0252685546875
3.027685546875
3.0317138671875
2.921337890625
2.7892089843749996
2.6055175781249997
2.3468994140625
2.2131591796875
2.1374267578125
3.027685546875
3.0301025390625
3.0309082031249996
3.0301025390625
2.8375488281249996
2.23974609375
1.042529296875
0.02578125
0.026586914062499998
0.023364257812499997
0.0281982421875
0.027392578124999997
0.0281982421875
0.026586914062499998
0.027392578124999997
0.09023437499999999
0.20625
0.33515625
0.56396484375
0.758935546875
0.7001220703125
0.027392578124999997
0.0281982421875
0.026586914062499998
0.027392578124999997
0.21511230468749998
0.74443359375
2.8609130859375
3.0301025390625
3.029296875
3.02607421875
3.0301025390625
3.0301025390625
3.029296875
3.027685546875
3.0236572265625
2.924560546875
2.7747070312499997
2.5773193359374997
2.4290771484375
2.2905029296875
2.03994140625
3.0325195312499997
3.0284912109374997
3.029296875
3.0284912109374997
2.9479248046874997
2.5434814453124996
1.0731445312499999
0.0249755859375
0.026586914062499998
0.0217529296875
0.026586914062499998
0.030615234374999998
0.02578125
0.027392578124999997
0.024169921875
0.027392578124999997
0.136962890625
0.32871093749999997
0.45842285156249996
0.559130859375
0.800830078125
0.024169921875
0.024169921875
0.026586914062499998
0.02578125
0.111181640625
0.5349609375
2.8899169921874996
3.029296875
3.0268798828124996
3.0309082031249996
3.0349365234374996
3.02607421875
3.0301025390625
3.029296875
3.0309082031249996
3.0164062499999997
2.8214355468749996
2.7005859374999996
2.56201171875
2.32998046875
2.1470947265625
3.0317138671875
3.0309082031249996
3.0244628906249997
3.034130859375
3.029296875
2.634521484375
1.4993408203124998
0.32951660156249996
0.026586914062499998
0.026586914062499998
0.0314208984375
0.020947265625
0.0281982421875
0.0281982421875
0.026586914062499998
0.02900390625
0.1458251953125
0.24895019531249998
0.3746337890625
0.597802734375
0.7500732421874999
0.027392578124999997
0.027392578124999997
0.0281982421875
0.023364257812499997
0.027392578124999997
0.53818359375
1.5654052734375
3.0244628906249997
3.0301025390625
3.029296875
3.0325195312499997
3.0309082031249996
3.0325195312499997
3.029296875
3.0349365234374996
3.0284912109374997
2.9036132812499997
2.7755126953125
2.6103515625
2.4306884765625
2.2349121093749997
3.029296875
3.029296875
3.0301025390625
3.0309082031249996
3.02607421875
2.744091796875
1.7055908203124999
0.3673828125
0.026586914062499998
0.0298095703125
0.027392578124999997
0.0281982421875
0.026586914062499998
0.02578125
0.027392578124999997
0.030615234374999998
0.0620361328125
0.21672363281249998
0.4068603515625
0.549462890625
0.704150390625
0.030615234374999998
0.0298095703125
0.027392578124999997
0.0314208984375
0.026586914062499998
0.3037353515625
1.158544921875
3.0325195312499997
3.0268798828124996
3.0349365234374996
3.02607421875
3.0301025390625
3.0284912109374997
3.0284912109374997
3.029296875
2.9503417968749996
2.856884765625
2.7400634765625
2.5869873046875
2.43310546875
2.1922119140625
2.6836669921875
3.0252685546875
3.0317138671875
3.0301025390625
3.0325195312499997
2.9124755859375
2.13984375
0.8958984375
0.027392578124999997
0.02578125
0.026586914062499998
0.027392578124999997
0.0298095703125
0.0298095703125
0.027392578124999997
0.027392578124999997
0.058813476562499994
0.21108398437499998
0.362548828125
0.5164306640624999
0.720263671875
0.0281982421875
0.0281982421875
0.026586914062499998
0.023364257812499997
0.027392578124999997
0.182080078125
0.845947265625
3.0220458984375
3.0301025390625
3.0309082031249996
3.0309082031249996
3.029296875
3.0325195312499997
3.0309082031249996
3.0268798828124996
3.0333251953125
2.9543701171874996
2.7787353515624997
2.6337158203124997
2.4234375
2.2421630859375
2.086669921875
3.0244628906249997
3.027685546875
3.0301025390625
3.0301025390625
2.8955566406249997
2.4580810546875
1.3792968749999999
0.023364257812499997
0.026586914062499998
0.0249755859375
0.0298095703125
0.026586914062499998
0.0322265625
0.023364257812499997
0.026586914062499998
0.03544921875
0.12810058593749998
0.2505615234375
0.443115234375
0.6372802734374999
0.7871337890625
0.026586914062499998
0.026586914062499998
0.026586914062499998
0.027392578124999997
0.1232666015625
0.5349609375
1.9303710937499998
3.0284912109374997
3.029296875
3.029296875
3.0301025390625
3.0284912109374997
3.029296875
3.027685546875
3.0252685546875
3.0188232421874996
2.8939453124999996
2.72314453125
2.5595947265624996
2.3879882812499997
2.2018798828125
3.029296875
3.029296875
3.0333251953125
3.0268798828124996
3.0244628906249997
2.6441894531249996
1.3075927734375
0.111181640625
0.0314208984375
0.026586914062499998
0.02900390625
0.024169921875
0.020947265625
0.027392578124999997
0.02578125
0.02900390625
0.0708984375
0.269091796875
0.38107910156249997
0.5260986328125
0.7242919921875
0.022558593749999998
0.026586914062499998
0.020947265625
0.023364257812499997
0.0717041015625
0.4487548828125
2.2832519531249997
3.0309082031249996
3.0349365234374996
3.0228515624999996
3.027685546875
3.02607421875
3.029296875
3.029296875
3.0301025390625
3.0317138671875
2.8512451171874997
2.70703125
2.550732421875
2.386376953125
2.1922119140625
3.02607421875
3.029296875
3.0309082031249996
3.0309082031249996
3.0301025390625
2.68125
2.0085205078125
0.6759521484375
0.030615234374999998
0.027392578124999997
0.02578125
0.027392578124999997
0.023364257812499997
0.026586914062499998
0.0322265625
0.027392578124999997
0.09023437499999999
0.17885742187499998
0.35690917968749997
0.5260986328125
0.6767578125
0.02900390625
0.027392578124999997
0.026586914062499998
0.0281982421875
0.027392578124999997
0.35368652343749996
0.9740478515625
3.0284912109374997
3.0268798828124996
3.029296875
3.0325195312499997
3.0284912109374997
3.029296875
3.029296875
3.029296875
3.0268798828124996
2.88427734375
2.7303955078124997
2.566845703125
2.392822265625
2.2187988281249997
2.0471923828125
3.02607421875
3.0301025390625
3.0317138671875
3.02607421875
2.8351318359374997
2.358984375
0.6815917968749999
0.027392578124999997
0.020947265625
0.02900390625
0.026586914062499998
0.027392578124999997
0.026586914062499998
0.030615234374999998
0.023364257812499997
0.104736328125
0.167578125
0.3673828125
0.5220703125
0.6711181640624999
0.02900390625
0.0281982421875
0.0281982421875
0.022558593749999998
0.026586914062499998
0.2513671875
0.694482421875
3.034130859375
3.0317138671875
3.027685546875
3.0325195312499997
3.029296875
3.029296875
3.0301025390625
3.034130859375
3.0301025390625
2.9922363281249997
2.82626953125
2.6611083984375
2.4951416015624996
2.29775390625
2.035107421875
3.0309082031249996
3.0301025390625
3.0309082031249996
3.029296875
3.02607421875
2.410546875
1.173046875
0.0322265625
0.027392578124999997
0.02900390625
0.0281982421875
0.024169921875
0.027392578124999997
0.026586914062499998
0.026586914062499998
0.026586914062499998
0.193359375
0.3158203125
0.4833984375
0.6952880859374999
0.845947265625
0.027392578124999997
0.027392578124999997
0.0217529296875
0.02900390625
0.0765380859375
0.6332519531249999
2.4556640625
3.029296875
3.0284912109374997
3.0309082031249996
3.034130859375
3.029296875
3.0268798828124996
3.0284912109374997
3.034130859375
2.9753173828125
2.8681640625
2.7400634765625
2.4927246093749997
2.3227294921875
2.1325927734375
3.0284912109374997
3.0325195312499997
3.0309082031249996
3.0301025390625
3.029296875
2.6675537109375
1.493701171875
0.49306640625
0.0314208984375
0.023364257812499997
0.026586914062499998
0.023364257812499997
0.026586914062499998
0.030615234374999998
0.020947265625
0.02578125
0.095068359375
0.214306640625
0.39316406249999997
0.5728271484374999
0.7436279296874999
0.026586914062499998
0.02578125
0.030615234374999998
0.0249755859375
0.0717041015625
0.427001953125
1.173046875
3.0244628906249997
3.027685546875
3.0301025390625
3.0333251953125
3.029296875
3.0309082031249996
3.034130859375
3.0325195312499997
3.029296875
2.9414794921875
2.721533203125
2.550732421875
2.370263671875
2.1889892578125
3.029296875
3.0301025390625
3.0284912109374997
3.029296875
3.0317138671875
2.8149902343749997
1.6121337890624998
0.5212646484375
0.027392578124999997
0.02578125
0.026586914062499998
0.0322265625
0.027392578124999997
0.026586914062499998
0.027392578124999997
0.026586914062499998
0.09748535156249999
0.2513671875
0.37705078124999997
0.5148193359375
0.6807861328125
0.026586914062499998
0.0281982421875
0.026586914062499998
0.027392578124999997
0.026586914062499998
0.193359375
1.0465576171875
3.0301025390625
3.0309082031249996
3.0325195312499997
3.027685546875
3.0309082031249996
3.027685546875
3.027685546875
3.0301025390625
3.029296875
2.8858886718749996
2.784375
2.6337158203124997
2.56845703125
2.2614990234375
2.1760986328125
3.0284912109374997
3.0284912109374997
3.0301025390625
3.0172119140625
2.7996826171875
2.19140625
0.9168457031249999
0.026586914062499998
0.02900390625
0.0217529296875
0.027392578124999997
0.024169921875
0.0217529296875
0.02900390625
0.026586914062499998
0.0346435546875
0.1796630859375
0.3311279296875
0.526904296875
0.7234863281249999
0.7565185546875
0.022558593749999998
0.0281982421875
0.030615234374999998
0.026586914062499998
0.26022949218749997
0.7581298828124999
2.76826171875
3.029296875
3.0301025390625
3.029296875
3.0317138671875
3.0309082031249996
3.0333251953125
3.0309082031249996
3.0309082031249996
2.9285888671875
2.8061279296875
2.582958984375
2.4121582031249997
2.2534423828125
2.144677734375
3.0301025390625
3.0317138671875
3.029296875
3.0284912109374997
3.01318359375
2.6232421875
1.135986328125
0.0298095703125
0.022558593749999998
0.02578125
0.027392578124999997
0.026586914062499998
0.027392578124999997
0.023364257812499997
0.026586914062499998
0.03544921875
0.1458251953125
0.33676757812499997
0.49306640625
0.6614501953124999
0.797607421875
0.0298095703125
0.02578125
0.022558593749999998
0.026586914062499998
0.03544921875
0.4552001953125
2.3597900390624997
3.0284912109374997
3.029296875
3.029296875
3.029296875
3.0236572265625
3.0301025390625
3.0284912109374997
3.0268798828124996
3.0156005859375
2.8077392578125
2.682861328125
2.513671875
2.2534423828125
2.1148681640625
3.0284912109374997
3.0301025390625
3.0252685546875
3.029296875
3.029296875
2.6135742187499997
1.3921875
0.314208984375
0.02578125
0.026586914062499998
0.02578125
0.026586914062499998
0.026586914062499998
0.024169921875
0.027392578124999997
0.026586914062499998
0.153076171875
0.265869140625
0.4729248046875
0.6936767578124999
0.7806884765625
0.027392578124999997
0.027392578124999997
0.02900390625
0.027392578124999997
0.0281982421875
0.50595703125
1.7853515624999998
3.0301025390625
3.034130859375
3.02607421875
3.029296875
3.029296875
3.0325195312499997
3.0309082031249996
3.027685546875
2.953564453125
2.89072265625
2.7561767578125
2.5716796874999996
2.3952392578125
2.1954345703125
2.9527587890625
3.027685546875
3.029296875
3.029296875
3.0244628906249997
2.744091796875
2.1462890624999997
0.322265625
0.02900390625
0.024169921875
0.023364257812499997
0.02578125
0.023364257812499997
0.0322265625
0.0249755859375
0.0281982421875
0.10634765624999999
0.23283691406249998
0.443115234375
0.5889404296874999
0.7613525390625
0.0314208984375
0.0298095703125
0.02578125
0.0298095703125
0.02578125
0.2892333984375
0.8846191406249999
3.027685546875
3.029296875
3.0252685546875
3.02607421875
3.0244628906249997
3.027685546875
3.0301025390625
3.0357421875
3.0309082031249996
2.9011962890625
2.7481201171875
2.56201171875
2.4161865234374997
2.1793212890625
2.63291015625
3.029296875
3.029296875
3.027685546875
3.0301025390625
2.900390625
2.241357421875
0.9676025390624999
0.027392578124999997
0.030615234374999998
0.0281982421875
0.0322265625
0.02900390625
0.030615234374999998
0.027392578124999997
0.027392578124999997
0.043505859375
0.167578125
0.30937499999999996
0.45842285156249996
0.69287109375
0.265869140625
0.02900390625
0.026586914062499998
0.030615234374999998
0.024169921875
0.11359863281249999
0.765380859375
2.6772216796875
3.0301025390625
3.0317138671875
3.0284912109374997
3.0301025390625
3.0301025390625
3.0333251953125
3.0309082031249996
3.034130859375
2.95517578125
2.85205078125
2.7158935546875
2.4951416015624996
2.281640625
2.0657226562499997
3.027685546875
3.029296875
3.0333251953125
3.029296875
2.898779296875
2.4580810546875
1.264892578125
0.026586914062499998
0.0298095703125
0.027392578124999997
0.0298095703125
0.0281982421875
0.0281982421875
0.027392578124999997
0.027392578124999997
0.0249755859375
0.15227050781249998
0.3359619140625
0.488232421875
0.6832031249999999
0.77666015625
0.027392578124999997
0.027392578124999997
0.027392578124999997
0.02578125
0.1474365234375
0.5518798828125
2.3501220703125
3.0309082031249996
3.0309082031249996
3.0333251953125
3.029296875
3.0325195312499997
3.029296875
3.02607421875
3.0301025390625
2.9825683593749996
2.86494140625
2.68125
2.566845703125
2.4298828125
2.1197021484375
3.0309082031249996
3.0301025390625
3.0284912109374997
3.0301025390625
3.0309082031249996
2.6401611328124996
1.2157470703125
0.08217773437499999
0.022558593749999998
0.026586914062499998
0.026586914062499998
0.02900390625
0.02900390625
0.026586914062499998
0.0281982421875
0.02578125
0.159521484375
0.2892333984375
0.4229736328125
0.6123046875
0.8314453125
0.0281982421875
0.027392578124999997
0.0249755859375
0.0249755859375
0.04833984375
0.37382812499999996
1.980322265625
3.0252685546875
3.0301025390625
3.0309082031249996
3.029296875
3.0268798828124996
3.0317138671875
3.02607421875
3.029296875
3.0309082031249996
2.866552734375
2.7142822265624997
2.5644287109375
2.3517333984374997
2.1744873046874997
3.0309082031249996
3.0333251953125
3.0309082031249996
3.0333251953125
3.029296875
2.6659423828124997
1.6153564453125
0.5687988281249999
0.02900390625
0.0201416015625
0.027392578124999997
0.0281982421875
0.0322265625
0.02578125
0.024169921875
0.0298095703125
0.1007080078125
0.22719726562499998
0.348046875
0.539794921875
0.7162353515625
0.023364257812499997
0.027392578124999997
0.030615234374999998
0.024169921875
0.026586914062499998
0.36416015625
0.897509765625
3.027685546875
3.0365478515624997
3.029296875
3.029296875
3.0309082031249996
3.029296875
3.029296875
3.0252685546875
3.0349365234374996
2.9044189453125
2.860107421875
2.663525390625
2.489501953125
2.289697265625
2.0979492187499997
3.0268798828124996
3.029296875
3.0301025390625
3.027685546875
2.8512451171874997
2.3001708984375
0.6501708984375
0.026586914062499998
0.02578125
0.02900390625
0.024169921875
0.02900390625
0.026586914062499998
0.027392578124999997
0.026586914062499998
0.02900390625
0.1345458984375
0.372216796875
0.5406005859374999
0.7259033203124999
0.026586914062499998
0.02578125
0.027392578124999997
0.02578125
0.027392578124999997
0.2553955078125
0.6920654296875
3.0317138671875
3.0284912109374997
3.0301025390625
3.0301025390625
3.029296875
3.0317138671875
3.029296875
3.034130859375
3.0309082031249996
2.9704833984374996
2.8069335937499997
2.6836669921875
2.487890625
2.3138671875
2.0616943359374997
3.029296875
3.034130859375
3.029296875
3.0333251953125
3.011572265625
2.3646240234375
1.158544921875
0.027392578124999997
0.0298095703125
0.0322265625
0.024169921875
0.027392578124999997
0.0249755859375
0.026586914062499998
0.02578125
0.023364257812499997
0.1699951171875
0.2972900390625
0.427001953125
0.62197265625
0.7742431640624999
0.020947265625
0.0281982421875
0.026586914062499998
0.026586914062499998
0.0620361328125
0.6791748046874999
2.2760009765625
3.0309082031249996
3.0333251953125
3.029296875
3.029296875
3.0333251953125
3.029296875
3.034130859375
3.027685546875
3.0164062499999997
2.8456054687499996
2.7126708984374996
2.5563720703125
2.312255859375
2.1551513671875
3.0309082031249996
3.0301025390625
3.0309082031249996
3.0317138671875
3.029296875
2.6240478515624996
1.4888671875
0.38591308593749996
0.0249755859375
0.02578125
0.0298095703125
0.023364257812499997
0.0298095703125
0.027392578124999997
0.0249755859375
0.026586914062499998
0.1232666015625
0.2384765625
0.43344726562499997
0.5929687499999999
0.7371826171875
0.027392578124999997
0.0298095703125
0.0217529296875
0.027392578124999997
0.078955078125
0.44633789062499996
1.4123291015625
3.0284912109374997
3.029296875
3.0284912109374997
3.0268798828124996
3.0309082031249996
3.0317138671875
3.029296875
3.0309082031249996
3.0244628906249997
2.872998046875
2.70380859375
2.5732910156249997
2.3879882812499997
2.2187988281249997
3.0284912109374997
3.027685546875
3.0309082031249996
3.029296875
3.027685546875
2.7392578125
1.641943359375
0.4358642578125
0.02578125
0.0298095703125
0.026586914062499998
0.0217529296875
0.0281982421875
0.026586914062499998
0.02900390625
0.030615234374999998
0.0845947265625
0.26425781249999997
0.4165283203125
0.6002197265625
0.8121093749999999
0.0281982421875
0.027392578124999997
0.027392578124999997
0.027392578124999997
0.02578125
0.29326171875
1.4429443359374998
3.029296875
3.0309082031249996
3.029296875
3.0309082031249996
3.029296875
3.0252685546875
3.0301025390625
3.0301025390625
3.0244628906249997
2.924560546875
2.8077392578125
2.6321044921874996
2.487890625
2.18818359375
2.2534423828125
3.0301025390625
3.029296875
3.02607421875
3.0301025390625
2.81015625
2.2751953124999997
1.019970703125
0.02578125
0.026586914062499998
0.024169921875
0.0249755859375
0.026586914062499998
0.026586914062499998
0.0249755859375
0.027392578124999997
0.072509765625
0.14501953125
0.24895019531249998
0.4680908203125
0.5994140625
0.5776611328125
0.027392578124999997
0.030615234374999998
0.027392578124999997
0.02578125
0.28681640625
0.800830078125
2.5958496093749996
3.0317138671875
3.0301025390625
3.0284912109374997
3.0301025390625
3.027685546875
3.0301025390625
3.0325195312499997
3.0301025390625
3.0043212890624997
2.8375488281249996
2.7030029296875
2.45888671875
2.2792236328124997
2.1213134765625
3.0301025390625
3.0309082031249996
3.034130859375
3.0309082031249996
2.9011962890625
2.502392578125
1.3253173828125
0.026586914062499998
0.026586914062499998
0.023364257812499997
0.0298095703125
0.0249755859375
0.0281982421875
0.023364257812499997
0.030615234374999998
0.026586914062499998
0.1619384765625
0.3544921875
0.51884765625
0.6767578125
0.8322509765624999
0.027392578124999997
0.027392578124999997
0.023364257812499997
0.026586914062499998
0.12165527343749999
0.5349609375
2.6514404296875
3.0244628906249997
3.0309082031249996
3.0301025390625
3.0284912109374997
3.02607421875
3.0268798828124996
3.0301025390625
3.029296875
2.9382568359374996
2.8391601562499997
2.6675537109375
2.4943359375
2.31708984375
2.093115234375
3.0309082031249996
3.029296875
3.0268798828124996
3.0333251953125
3.0309082031249996
2.666748046875
1.2310546875
0.20302734374999998
0.0314208984375
0.030615234374999998
0.026586914062499998
0.026586914062499998
0.0281982421875
0.0314208984375
0.027392578124999997
0.023364257812499997
0.1248779296875
0.29326171875
0.46567382812499997
0.6832031249999999
0.8515869140625
0.02900390625
0.0281982421875
0.02578125
0.027392578124999997
0.02900390625
0.48259277343749996
1.9432617187499999
3.029296875
3.0309082031249996
3.027685546875
3.0317138671875
3.0236572265625
3.0325195312499997
3.0325195312499997
3.029296875
3.034130859375
2.85849609375
2.7521484375
2.6176025390624997
2.3839599609374997
2.2099365234375
3.0301025390625
3.0228515624999996
3.0228515624999996
3.029296875
3.0317138671875
2.7247558593749996
1.8667236328124999
0.72509765625
0.0217529296875
0.033032226562499996
0.0281982421875
0.02578125
0.027392578124999997
0.02900390625
0.02578125
0.023364257812499997
0.11762695312499999
0.21511230468749998
0.3794677734375
0.5526855468749999
0.684814453125
0.023364257812499997
0.0281982421875
0.027392578124999997
0.0298095703125
0.022558593749999998
0.35368652343749996
0.91201171875
3.0284912109374997
3.0301025390625
3.0244628906249997
3.0301025390625
3.0309082031249996
3.0284912109374997
3.02607421875
3.0317138671875
3.0325195312499997
2.8866943359375
2.80048828125
2.6240478515624996
2.4258544921875
2.2502197265625
2.8995849609374997
3.02607421875
3.0333251953125
3.0284912109374997
3.029296875
2.8399658203125
2.2969482421875
0.7194580078124999
0.026586914062499998
0.022558593749999998
0.027392578124999997
0.026586914062499998
0.02900390625
0.023364257812499997
0.0314208984375
0.026586914062499998
0.0515625
0.2360595703125
0.4125
0.5599365234375
0.7460449218749999
0.027392578124999997
0.026586914062499998
0.0217529296875
0.027392578124999997
0.0281982421875
0.17644042968749998
0.8282226562499999
3.0268798828124996
3.029296875
3.0325195312499997
3.027685546875
3.02607421875
3.0301025390625
3.029296875
3.0309082031249996
3.0309082031249996
2.8979736328124996
2.7972656249999996
2.7086425781249996
2.5152832031249996
2.270361328125
2.1116455078125
3.0188232421874996
3.0309082031249996
3.0236572265625
3.0309082031249996
2.8778320312499996
2.418603515625
1.1609619140625
0.0298095703125
0.026586914062499998
0.026586914062499998
0.026586914062499998
0.027392578124999997
0.02900390625
0.027392578124999997
0.0281982421875
0.02578125
0.17241210937499998
0.3029296875
0.5406005859374999
0.684814453125
0.816943359375
0.0281982421875
0.026586914062499998
0.027392578124999997
0.026586914062499998
0.16274414062499998
0.6243896484375
2.26552734375
3.0309082031249996
3.0333251953125
3.029296875
3.0309082031249996
3.02607421875
3.0301025390625
3.029296875
3.0325195312499997
3.0244628906249997
2.8713867187499997
2.631298828125
2.45888671875
2.26875
2.0625
3.0284912109374997
3.0301025390625
3.02607421875
3.0284912109374997
3.0284912109374997
2.6321044921874996
1.27939453125
0.042700195312499994
0.0314208984375
0.027392578124999997
0.027392578124999997
0.02578125
0.027392578124999997
0.022558593749999998
0.0281982421875
0.06606445312499999
0.165966796875
0.281982421875
0.410888671875
0.5905517578125
0.7959960937499999
0.026586914062499998
0.027392578124999997
0.027392578124999997
0.027392578124999997
0.0636474609375
0.456005859375
1.869140625
3.034130859375
3.029296875
3.0244628906249997
3.0309082031249996
3.029296875
3.0317138671875
3.0333251953125
3.029296875
3.029296875
2.8109619140624997
2.6981689453124997
2.553955078125
2.3033935546874997
2.1084228515625
3.0381591796875
3.0301025390625
3.0309082031249996
3.029296875
3.029296875
2.6546630859375
1.7619873046874999
0.5373779296875
0.024169921875
0.0298095703125
0.0249755859375
0.027392578124999997
0.023364257812499997
0.02578125
0.0298095703125
0.026586914062499998
0.1409912109375
0.2553955078125
0.41008300781249996
0.6260009765625
0.8096923828125
0.033837890625
0.0314208984375
0.02900390625
0.027392578124999997
0.026586914062499998
0.36979980468749996
1.0546142578125
3.0301025390625
3.0236572265625
3.034130859375
3.0325195312499997
3.0325195312499997
3.029296875
3.034130859375
3.0301025390625
3.0301025390625
2.8802490234375
2.80048828125
2.616796875
2.4258544921875
2.2421630859375
2.0415527343749997
3.0309082031249996
3.0284912109374997
3.0301025390625
3.0309082031249996
2.7666503906249997
2.2357177734375
0.5003173828124999
0.0217529296875
0.023364257812499997
0.024169921875
0.026586914062499998
0.02578125
0.026586914062499998
0.0281982421875
0.0298095703125
0.027392578124999997
0.19899902343749998
0.41008300781249996
0.5760498046875
0.7629638671875
0.02578125
0.0314208984375
0.022558593749999998
0.0281982421875
0.02578125
0.25620117187499997
0.8314453125
3.0309082031249996
3.029296875
3.0317138671875
3.029296875
3.0252685546875
3.027685546875
3.0284912109374997
3.029296875
3.0301025390625
3.0107666015624996
2.7247558593749996
2.5757080078124996
2.43310546875
2.2244384765625
1.9843505859375
3.029296875
3.0268798828124996
3.027685546875
3.0309082031249996
2.8939453124999996
2.302587890625
1.0973144531249999
0.027392578124999997
0.027392578124999997
0.0281982421875
0.0314208984375
0.0281982421875
0.024169921875
0.0281982421875
0.023364257812499997
0.0765380859375
0.22236328125
0.356103515625
0.5228759765625
0.7315429687499999
0.88623046875
0.0314208984375
0.0314208984375
0.0217529296875
0.0217529296875
0.1152099609375
3.027685546875
3.0284912109374997
3.0301025390625
1.0401123046875
1.224609375
2.167236328125
2.12373046875
1.9529296875
1.8957275390625
1.848193359375
1.8248291015625
1.78857421875
1.77890625
1.7619873046874999
1.74345703125
1.7362060546875
1.8820312499999998
1.5492919921875
1.464697265625
1.4236083984374999
1.3865478515624998
1.3599609375
1.3269287109374999
1.445361328125
1.585546875
1.67900390625
1.7426513671875
1.7772949218749998
1.7990478515625
1.819189453125
1.8071044921875
1.8119384765625
1.8071044921875
1.77568359375
1.7579589843749999
1.7362060546875
1.7410400390624998
0.026586914062499998
1.0594482421875
2.0649169921875
1.751513671875
1.7772949218749998
1.96904296875
2.12373046875
1.9303710937499998
1.7668212890625
1.6645019531249998
1.5734619140625
1.55009765625
1.5428466796875
1.5025634765625
1.4767822265625
1.4783935546875
1.4872558593749998
1.482421875
1.4912841796874998
1.4912841796874998
1.4896728515625
1.5960205078124998
1.442138671875
1.2906738281249999
1.26328125
1.2254150390625
1.2157470703125
1.2020507812499999
1.2818115234374998
1.3913818359374999
1.5484863281249999
1.622607421875
1.641943359375
1.69833984375
1.7297607421874999
1.7200927734375
1.7337890624999999
1.7257324218749999
1.7136474609374999
1.7015624999999999
1.6886718749999998
1.6733642578124999
1.5927978515624999
1.8111328125
1.8989501953124999
1.92392578125
1.9513183593749999
1.9505126953124998
1.9343994140624998
1.9021728515624998
1.635498046875
1.5364013671874999
1.461474609375
1.409912109375
1.3865478515624998
1.3752685546874999
1.3752685546874999
1.3728515625
1.3639892578125
1.3736572265625
1.3897705078125
1.40185546875
1.4091064453125
1.4719482421874999
1.3631835937499999
1.2423339843749999
1.2012451171875
1.173046875
1.173046875
1.1802978515625
1.2568359375
1.3672119140624999
1.477587890625
1.5766845703124999
1.619384765625
1.662890625
1.6830322265625
1.6959228515625
1.6951171875
1.7023681640625
1.6935058593749999
1.6862548828125
1.66611328125
1.6572509765624999
1.5654052734375
1.714453125
1.8626953124999999
1.909423828125
1.9215087890625
1.9311767578124999
1.9029785156249999
1.877197265625
1.6717529296875
1.5090087890625
1.4526123046875
1.3929931640625
1.3913818359374999
1.3728515625
1.37607421875
1.3575439453125
1.364794921875
1.3768798828125
1.3978271484375
1.3913818359374999
1.4066894531249998
1.4236083984374999
1.4445556640625
1.2423339843749999
1.200439453125
1.1754638671875
1.1770751953125
1.18271484375
1.1996337890625
1.353515625
1.464697265625
1.5533203125
1.5984375
1.6242187499999998
1.625830078125
1.6927001953124998
1.7088134765624998
1.7015624999999999
1.6975341796874999
1.6798095703125
1.6556396484375
1.65
1.6411376953124999
1.6975341796874999
1.8522216796875
1.88525390625
1.928759765625
1.9400390625
1.925537109375
1.8844482421875
1.67578125
1.5444580078124999
1.4679199218749999
1.4115234374999999
1.384130859375
1.364794921875
1.364794921875
1.3688232421875
1.380908203125
1.3704345703124998
1.384130859375
1.3946044921874998
1.4058837890625
1.4373046875
1.4542236328125
1.276171875
1.200439453125
1.1738525390624999
1.1641845703125
1.1698242187499999
1.2020507812499999
1.30517578125
1.409912109375
1.5299560546875
1.5992431640625
1.64677734375
1.6886718749999998
1.703173828125
1.7080078125
1.7007568359374998
1.6967285156249998
1.6878662109375
1.6725585937499998
1.6572509765624999
1.63388671875
1.6105224609375
1.8554443359375
1.89169921875
1.9215087890625
1.9360107421875
1.9223144531249998
1.9102294921874998
1.7724609375
1.5645996093749999
1.477587890625
1.4219970703125
1.3825195312499998
1.3728515625
1.353515625
1.3543212890624998
1.35673828125
1.3688232421875
1.3905761718749998
1.3954101562499999
1.4074951171874999
1.416357421875
1.4558349609374999
1.2858398437499998
1.213330078125
1.1786865234375
1.16337890625
1.1674072265625
1.171435546875
1.2914794921875
1.4195800781249999
1.5114257812499998
1.5919921874999998
1.63388671875
1.6588623046875
1.6910888671875
1.6967285156249998
1.706396484375
1.69833984375
1.67578125
1.6636962890625
1.6532226562499999
1.6443603515624998
1.6072998046875
1.80791015625
1.8820312499999998
1.9150634765624999
1.9271484374999999
1.931982421875
1.9271484374999999
1.7764892578125
1.593603515625
1.4719482421874999
1.4252197265625
1.3897705078125
1.3672119140624999
1.3639892578125
1.35673828125
1.3672119140624999
1.36962890625
1.3857421875
1.3913818359374999
1.40830078125
1.4187744140624998
1.482421875
1.297119140625
1.2270263671875
1.18916015625
1.1641845703125
1.1657958984374999
1.1698242187499999
1.2592529296875
1.4115234374999999
1.506591796875
1.577490234375
1.6395263671875
1.6636962890625
1.69189453125
1.7007568359374998
1.7007568359374998
1.6975341796874999
1.683837890625
1.6669189453125
1.6612792968749999
1.6475830078125
1.6048828124999999
1.7829345703125
1.8763916015625
1.9118408203125
1.9295654296875
1.9303710937499998
1.9118408203125
1.7740722656249999
1.6089111328124999
1.5017578125
1.4219970703125
1.3986328124999998
1.3712402343749999
1.3704345703124998
1.35673828125
1.3656005859375
1.3688232421875
1.3873535156249999
1.3929931640625
1.4010498046875
1.4203857421875
1.47275390625
1.3591552734374999
1.2439453125
1.1859374999999999
1.1738525390624999
1.1641845703125
1.18271484375
1.255224609375
1.35673828125
1.50498046875
1.5678222656249998
1.6218017578125
1.6556396484375
1.6935058593749999
1.6943115234375
1.6975341796874999
1.690283203125
1.6822265625
1.670947265625
1.658056640625
1.6564453124999998
1.585546875
1.722509765625
1.8747802734374999
1.9086181640625
1.9198974609375
1.9263427734374998
1.920703125
1.8844482421875
1.62744140625
1.5122314453124999
1.4381103515625
1.40830078125
1.37607421875
1.3631835937499999
1.361572265625
1.3559326171875
1.3599609375
1.377685546875
1.3865478515624998
1.405078125
1.413134765625
1.4268310546874998
1.3543212890624998
1.239111328125
1.1939941406249999
1.1609619140625
1.16015625
1.1754638671875
1.2141357421874999
1.3583496093749998
1.4759765624999999
1.5557373046874998
1.6250244140624999
1.6564453124999998
1.6830322265625
1.69189453125
1.7023681640625
1.69833984375
1.6894775390624999
1.6725585937499998
1.654833984375
1.6451660156249999
1.585546875
1.7104248046875
1.861083984375
1.9013671875
1.928759765625
1.931982421875
1.920703125
1.8626953124999999
1.6669189453125
1.5331787109375
1.4316650390624999
1.40185546875
1.380908203125
1.3599609375
1.3599609375
1.3639892578125
1.3720458984375
1.380908203125
1.38896484375
1.397021484375
1.413134765625
1.4244140625
1.4397216796874999
1.2495849609374998
1.2044677734375
1.1794921875
1.1674072265625
1.1666015625
1.2052734375
1.3059814453124998
1.46630859375
1.546875
1.6048828124999999
1.6483886718749998
1.6822265625
1.69833984375
1.6959228515625
1.7023681640625
1.6814208984374999
1.6830322265625
1.6636962890625
1.64677734375
1.638720703125
1.6967285156249998
1.848193359375
1.8844482421875
1.915869140625
1.9263427734374998
1.912646484375
1.9070068359374999
1.6927001953124998
1.5509033203125
1.4622802734375
1.3994384765624999
1.3849365234375
1.3688232421875
1.3672119140624999
1.3656005859375
1.364794921875
1.3712402343749999
1.3825195312499998
1.3929931640625
1.40830078125
1.4187744140624998
1.445361328125
1.281005859375
1.2189697265625
1.1859374999999999
1.168212890625
1.1657958984374999
1.213330078125
1.303564453125
1.4187744140624998
1.53720703125
1.5992431640625
1.6395263671875
1.662890625
1.7015624999999999
1.6943115234375
1.7023681640625
1.690283203125
1.6822265625
1.6645019531249998
1.65
1.64677734375
1.6201904296874998
1.8119384765625
1.8876708984375
1.9182861328124998
1.931982421875
1.9247314453125
1.9062011718749998
1.7740722656249999
1.5645996093749999
1.4671142578124998
1.42119140625
1.3929931640625
1.3736572265625
1.368017578125
1.3575439453125
1.3591552734374999
1.3664062499999998
1.3857421875
1.3986328124999998
1.416357421875
1.4228027343749998
1.482421875
1.2890625
1.216552734375
1.1867431640625
1.1609619140625
1.1625732421875
1.17626953125
1.3092041015625
1.4155517578124999
1.5146484375
1.5702392578125
1.6322753906249998
1.6612792968749999
1.6878662109375
1.6910888671875
1.7055908203124999
1.6951171875
1.6773925781249999
1.662890625
1.6588623046875
1.6403320312499998
1.6161621093749998
1.7942138671874999
1.877197265625
1.9198974609375
1.9231201171874999
1.9198974609375
1.9247314453125
1.7611816406249998
1.5984375
1.4880615234374999
1.4123291015625
1.3873535156249999
1.3728515625
1.3688232421875
1.353515625
1.3664062499999998
1.3736572265625
1.3833251953124999
1.3962158203125
1.40185546875
1.41796875
1.4751708984374998
1.3551269531249999
1.229443359375
1.1964111328125
1.1698242187499999
1.1666015625
1.1778808593749999
1.2576416015624998
1.3704345703124998
1.5057861328125
1.574267578125
1.6209960937499999
1.66611328125
1.6878662109375
1.6991455078125
1.6943115234375
1.6951171875
1.6846435546874998
1.6725585937499998
1.662890625
1.641943359375
1.5839355468749998
1.7909912109375
1.8860595703124998
1.9070068359374999
1.931982421875
1.9223144531249998
1.912646484375
1.8489990234375
1.609716796875
1.5033691406249998
1.4381103515625
1.4010498046875
1.3720458984375
1.361572265625
1.3559326171875
1.35673828125
1.368017578125
1.377685546875
1.397021484375
1.405078125
1.4066894531249998
1.47275390625
1.3510986328124999
1.2366943359375
1.1939941406249999
1.1698242187499999
1.1625732421875
1.173046875
1.2455566406249998
1.3575439453125
1.4711425781249998
1.5718505859374998
1.6209960937499999
1.6459716796875
1.683837890625
1.7007568359374998
1.703173828125
1.6959228515625
1.6886718749999998
1.67578125
1.6604736328124998
1.6459716796875
1.5927978515624999
1.7200927734375
1.8626953124999999
1.9102294921874998
1.925537109375
1.931982421875
1.9182861328124998
1.861083984375
1.6645019531249998
1.5033691406249998
1.4381103515625
1.3994384765624999
1.3849365234375
1.3631835937499999
1.3656005859375
1.3543212890624998
1.3688232421875
1.377685546875
1.3929931640625
1.40185546875
1.4123291015625
1.4332763671875
1.4308593749999998
1.2415283203124998
1.2020507812499999
1.184326171875
1.155322265625
1.174658203125
1.2125244140625
1.364794921875
1.4759765624999999
1.558154296875
1.6072998046875
1.6524169921874998
1.683837890625
1.6967285156249998
1.6951171875
1.7015624999999999
1.7015624999999999
1.6806152343749998
1.6636962890625
1.6459716796875
1.6346923828125
1.71123046875
1.8489990234375
1.8941162109374998
1.9198974609375
1.92392578125
1.9150634765624999
1.931982421875
1.6572509765624999
1.5275390624999998
1.456640625
1.4010498046875
1.3881591796875
1.3672119140624999
1.3656005859375
1.35673828125
1.364794921875
1.377685546875
1.38896484375
1.4010498046875
1.4155517578124999
1.4236083984374999
1.4356933593749999
1.284228515625
1.19560546875
1.1851318359375
1.164990234375
1.1657958984374999
1.21171875
1.3100097656249998
1.4147460937499998
1.5396240234374998
1.6081054687499998
1.6403320312499998
1.6894775390624999
1.6951171875
1.6951171875
1.690283203125
1.6927001953124998
1.6765869140624998
1.670947265625
1.6508056640625
1.6403320312499998
1.625830078125
1.8522216796875
1.8957275390625
1.9190917968749999
1.9271484374999999
1.9215087890625
1.9142578124999998
1.7587646484375
1.5517089843749998
1.4679199218749999
1.4139404296875
1.3849365234375
1.3728515625
1.3607666015625
1.3591552734374999
1.3656005859375
1.3728515625
1.3768798828125
1.393798828125
1.405078125
1.41796875
1.4429443359374998
1.2826171874999999
1.20849609375
1.197216796875
1.1625732421875
1.168212890625
1.1770751953125
1.2979248046874998
1.4139404296875
1.5186767578125
1.6000488281249998
1.6459716796875
1.6693359374999999
1.69833984375
1.690283203125
1.6959228515625
1.6886718749999998
1.6846435546874998
1.667724609375
1.651611328125
1.6451660156249999
1.6121337890624998
1.8038818359375
1.8868652343749999
1.9198974609375
1.9247314453125
1.91748046875
1.92392578125
1.7555419921875
1.593603515625
1.4630859374999998
1.4123291015625
1.38896484375
1.3752685546874999
1.361572265625
1.3639892578125
1.3688232421875
1.3768798828125
1.3881591796875
1.3905761718749998
1.4091064453125
1.4228027343749998
1.480810546875
1.3430419921874999
1.2109130859375
1.1835205078125
1.1770751953125
1.164990234375
1.174658203125
1.2608642578125
1.409912109375
1.513037109375
1.577490234375
1.6266357421875
1.667724609375
1.6935058593749999
1.6967285156249998
1.69833984375
1.6967285156249998
1.6765869140624998
1.6620849609375
1.6572509765624999
1.651611328125
1.58232421875
1.7982421874999999
1.8755859375
1.9078125
1.931982421875
1.925537109375
1.9182861328124998
1.7619873046874999
1.587158203125
1.4928955078125
1.4348876953124998
1.393798828125
1.3688232421875
1.364794921875
1.351904296875
1.3631835937499999
1.3656005859375
1.3865478515624998
1.3962158203125
1.413134765625
1.4219970703125
1.4767822265625
1.3583496093749998
1.235888671875
1.1931884765625
1.1698242187499999
1.164990234375
1.1794921875
1.2568359375
1.3664062499999998
1.477587890625
1.571044921875
1.6290527343749999
1.6524169921874998
1.6886718749999998
1.6781982421875
1.7015624999999999
1.6927001953124998
1.6773925781249999
1.6725585937499998
1.662890625
1.6451660156249999
1.5839355468749998
1.7337890624999999
1.8812255859375
1.9134521484375
1.931982421875
1.925537109375
1.9102294921874998
1.8586669921874999
1.667724609375
1.5025634765625
1.4332763671875
1.40185546875
1.3801025390625
1.3664062499999998
1.361572265625
1.3607666015625
1.3631835937499999
1.36962890625
1.3881591796875
1.3986328124999998
1.4147460937499998
1.4316650390624999
1.3639892578125
1.2310546875
1.2012451171875
1.1674072265625
1.1617675781249999
1.1754638671875
1.219775390625
1.3672119140624999
1.47275390625
1.5460693359375
1.622607421875
1.65
1.6854492187499999
1.703173828125
1.699951171875
1.6967285156249998
1.69189453125
1.674169921875
1.662890625
1.64677734375
1.5879638671874998
1.7184814453125
1.8554443359375
1.8957275390625
1.920703125
1.9303710937499998
1.9086181640625
1.85302734375
1.6572509765624999
1.53720703125
1.4332763671875
1.3954101562499999
1.3817138671875
1.3583496093749998
1.3664062499999998
1.3623779296874998
1.3736572265625
1.3825195312499998
1.393798828125
1.3986328124999998
1.4123291015625
1.429248046875
1.4397216796874999
1.2826171874999999
1.203662109375
1.1819091796874999
1.164990234375
1.174658203125
1.2157470703125
1.313232421875
1.4606689453125
1.5484863281249999
1.6048828124999999
