1.2818115234374998
1.3978271484375
1.49853515625
1.590380859375
1.6306640625
1.6733642578124999
1.69833984375
1.69833984375
1.6967285156249998
1.6959228515625
1.683837890625
1.66611328125
1.651611328125
1.6435546875
1.5887695312499999
1.764404296875
1.8747802734374999
1.9166748046875
1.920703125
1.93359375
1.9182861328124998
1.8054931640624998
1.6177734375
1.4735595703125
1.4236083984374999
1.3865478515624998
1.3688232421875
1.3688232421875
1.3631835937499999
1.3607666015625
1.3656005859375
1.3857421875
1.393798828125
1.405078125
1.4228027343749998
1.4630859374999998
1.40185546875
1.2205810546875
1.1947998046875
1.1770751953125
1.1657958984374999
1.1770751953125
1.252001953125
1.3583496093749998
1.5041748046874999
1.5750732421875
1.6234130859375
1.6653076171874999
1.6943115234375
1.6927001953124998
1.6967285156249998
1.7047851562499998
1.687060546875
1.67578125
1.658056640625
1.6435546875
1.590380859375
1.7490966796874998
1.8699462890624998
1.9037841796875
1.9166748046875
1.9303710937499998
1.9102294921874998
1.851416015625
1.6081054687499998
1.4832275390624998
1.42119140625
1.3817138671875
1.3712402343749999
1.361572265625
1.3688232421875
1.3664062499999998
1.3664062499999998
1.377685546875
1.4026611328124998
1.3986328124999998
1.416357421875
1.461474609375
1.3986328124999998
1.2544189453124999
1.2093017578125
1.1883544921875
1.1625732421875
1.1794921875
1.2366943359375
1.34384765625
1.4638916015624999
1.5799072265624998
1.6218017578125
1.6645019531249998
1.6878662109375
1.7023681640625
1.6959228515625
1.7055908203124999
1.6846435546874998
1.6725585937499998
1.654833984375
1.6451660156249999
1.5927978515624999
1.6693359374999999
1.8683349609375
1.8989501953124999
1.91748046875
1.92392578125
1.920703125
1.8626953124999999
1.6669189453125
1.4953124999999998
1.43408203125
1.3986328124999998
1.3688232421875
1.3639892578125
1.364794921875
1.3688232421875
1.3591552734374999
1.3752685546874999
1.38896484375
1.4058837890625
1.416357421875
1.4244140625
1.42119140625
1.2592529296875
1.2109130859375
1.18271484375
1.171435546875
1.184326171875
1.21494140625
1.3414306640625
1.4493896484375
1.5404296874999999
1.6089111328124999
1.654833984375
1.6806152343749998
1.7047851562499998
1.6975341796874999
1.7015624999999999
1.6878662109375
1.6725585937499998
1.65966796875
1.6508056640625
1.6137451171875
1.65966796875
1.8425537109374999
1.8908935546874999
1.9062011718749998
1.91748046875
1.915869140625
1.9013671875
1.716064453125
1.5533203125
1.442138671875
1.40185546875
1.3833251953124999
1.3591552734374999
1.3599609375
1.3591552734374999
1.3664062499999998
1.3752685546874999
1.3825195312499998
1.3962158203125
1.4147460937499998
1.4236083984374999
1.464697265625
1.300341796875
1.21171875
1.18916015625
1.1690185546875
1.1778808593749999
1.2052734375
1.2979248046874998
1.4493896484375
1.5460693359375
1.6008544921874999
1.6411376953124999
1.6862548828125
1.6935058593749999
1.7047851562499998
1.6967285156249998
1.6894775390624999
1.6878662109375
1.6604736328124998
1.6540283203125
1.641943359375
1.5927978515624999
1.8224121093749999
1.8844482421875
1.912646484375
1.925537109375
1.9223144531249998
1.9223144531249998
1.6935058593749999
1.5436523437499998
1.461474609375
1.4066894531249998
1.3688232421875
1.3672119140624999
1.3583496093749998
1.3672119140624999
1.3728515625
1.3752685546874999
1.3913818359374999
1.4058837890625
1.4091064453125
1.4155517578124999
1.4783935546875
1.3124267578125
1.2221923828124999
1.1883544921875
1.1722412109375
1.1617675781249999
1.1867431640625
1.2914794921875
1.4091064453125
1.5009521484375
1.603271484375
1.6435546875
1.6693359374999999
1.6959228515625
1.7007568359374998
1.706396484375
1.6935058593749999
1.683837890625
1.6798095703125
1.654833984375
1.6379150390625
1.59521484375
1.7764892578125
1.8884765625
1.909423828125
1.915869140625
1.928759765625
1.9150634765624999
1.7861572265624999
1.5984375
1.474365234375
1.4147460937499998
1.384130859375
1.3736572265625
1.3672119140624999
1.3591552734374999
1.3607666015625
1.3672119140624999
1.3736572265625
1.397021484375
1.4091064453125
1.4171630859375
1.474365234375
1.3140380859374998
1.2254150390625
1.1899658203124999
1.1738525390624999
1.1690185546875
1.17626953125
1.2511962890625
1.4074951171874999
1.5082031249999999
1.5782958984375
1.6435546875
1.66611328125
1.6967285156249998
1.7088134765624998
1.7015624999999999
1.69833984375
1.6814208984374999
1.66611328125
1.6588623046875
1.6403320312499998
1.5960205078124998
1.770849609375
1.8707519531249999
1.9005615234375
1.931982421875
1.9190917968749999
1.8989501953124999
1.799853515625
1.61455078125
1.4864501953125
1.4074951171874999
1.3873535156249999
1.3736572265625
1.3656005859375
1.3607666015625
1.3664062499999998
1.36962890625
1.3825195312499998
1.3962158203125
1.405078125
1.4171630859375
1.4679199218749999
1.3744628906249998
1.2415283203124998
1.1923828125
1.1722412109375
1.1657958984374999
1.184326171875
1.252001953125
1.3639892578125
1.50498046875
1.5782958984375
1.6242187499999998
1.6588623046875
1.6935058593749999
1.703173828125
1.7047851562499998
1.6975341796874999
1.6781982421875
1.6733642578124999
1.6604736328124998
1.6427490234375
1.5895751953125
1.690283203125
1.8626953124999999
1.9013671875
1.9182861328124998
1.91748046875
1.9029785156249999
1.8602783203125
1.6056884765625
1.493701171875
1.43408203125
1.3913818359374999
1.37607421875
1.3664062499999998
1.35673828125
1.3631835937499999
1.368017578125
1.3704345703124998
1.393798828125
1.4026611328124998
1.4155517578124999
1.42119140625
1.400244140625
1.2463623046874999
1.2060791015624999
1.1738525390624999
1.1706298828125
1.184326171875
1.2423339843749999
1.3502929687499998
1.4590576171874998
1.5476806640624998
1.6161621093749998
1.65966796875
1.6846435546874998
1.6951171875
1.6975341796874999
1.6975341796874999
1.6894775390624999
1.6765869140624998
1.667724609375
1.651611328125
1.5960205078124998
1.6878662109375
1.8586669921874999
1.9070068359374999
1.9311767578124999
1.9279541015625
1.9062011718749998
1.8707519531249999
1.6886718749999998
1.5355957031249998
1.4308593749999998
1.405078125
1.3744628906249998
1.353515625
1.3591552734374999
1.3672119140624999
1.3631835937499999
1.3720458984375
1.3849365234375
1.3913818359374999
1.4107177734374998
1.42119140625
1.4550292968749998
1.2576416015624998
1.2020507812499999
1.1859374999999999
1.1674072265625
1.173046875
1.213330078125
1.3059814453124998
1.4703369140625
1.5436523437499998
1.6072998046875
1.6540283203125
1.6765869140624998
1.69189453125
1.6991455078125
1.703173828125
1.6886718749999998
1.6806152343749998
1.6653076171874999
1.6443603515624998
1.6491943359374999
1.670947265625
1.832080078125
1.8900878906249998
1.915869140625
1.925537109375
1.9166748046875
1.9182861328124998
1.6894775390624999
1.5355957031249998
1.45341796875
1.393798828125
1.3752685546874999
1.368017578125
1.35673828125
1.3736572265625
1.3631835937499999
1.3744628906249998
1.3905761718749998
1.400244140625
1.4074951171874999
1.4244140625
1.4630859374999998
1.2963134765625
1.2093017578125
1.18271484375
1.1641845703125
1.1698242187499999
1.1939941406249999
1.3124267578125
1.416357421875
1.5509033203125
1.6048828124999999
1.641943359375
1.67578125
1.6967285156249998
1.6951171875
1.6991455078125
1.6927001953124998
1.6862548828125
1.6701416015625
1.6508056640625
1.6443603515624998
1.5992431640625
1.78857421875
1.8844482421875
1.9053955078125
1.9150634765624999
1.915869140625
1.912646484375
1.7571533203124998
1.5517089843749998
1.4574462890625
1.41796875
1.380908203125
1.3623779296874998
1.3559326171875
1.3631835937499999
1.3623779296874998
1.3736572265625
1.3801025390625
1.4010498046875
1.413134765625
1.42119140625
1.477587890625
1.3027587890624999
1.2189697265625
1.1964111328125
1.171435546875
1.1666015625
1.187548828125
1.3059814453124998
1.4107177734374998
1.506591796875
1.5831298828125
1.641943359375
1.6725585937499998
1.69833984375
1.7015624999999999
1.69833984375
1.6935058593749999
1.6733642578124999
1.6612792968749999
1.6620849609375
1.6451660156249999
1.6048828124999999
1.791796875
1.8828369140624999
1.9110351562499999
1.9247314453125
1.928759765625
1.9215087890625
1.783740234375
1.603271484375
1.4888671875
1.4147460937499998
1.3825195312499998
1.3704345703124998
1.364794921875
1.3583496093749998
1.3583496093749998
1.3599609375
1.3801025390625
1.3873535156249999
1.4115234374999999
1.4236083984374999
1.4751708984374998
1.3639892578125
1.2262207031249999
1.1939941406249999
1.171435546875
1.1698242187499999
1.1851318359375
1.2608642578125
1.3752685546874999
1.5041748046874999
1.58232421875
1.6282470703124998
1.6693359374999999
1.6935058593749999
1.706396484375
1.69833984375
1.6991455078125
1.6894775390624999
1.6636962890625
1.6483886718749998
1.63388671875
1.5831298828125
1.770849609375
1.8715576171875
1.9005615234375
1.92392578125
1.9271484374999999
1.9062011718749998
1.8554443359375
1.606494140625
1.482421875
1.4300537109375
1.3849365234375
1.3752685546874999
1.3575439453125
1.3656005859375
1.3599609375
1.36962890625
1.3801025390625
1.3905761718749998
1.40830078125
1.4147460937499998
1.4719482421874999
1.3768798828125
1.2495849609374998
1.1931884765625
1.171435546875
1.158544921875
1.1786865234375
1.2463623046874999
1.3631835937499999
1.4759765624999999
1.58232421875
1.6282470703124998
1.6645019531249998
1.6927001953124998
1.6959228515625
1.703173828125
1.6967285156249998
1.6878662109375
1.683837890625
1.6564453124999998
1.6403320312499998
1.593603515625
1.6935058593749999
1.87236328125
1.9062011718749998
1.9166748046875
1.9303710937499998
1.8957275390625
1.85625
1.65966796875
1.4977294921875
1.4397216796874999
1.3929931640625
1.3672119140624999
1.3543212890624998
1.3607666015625
1.368017578125
1.3631835937499999
1.3784912109374998
1.3962158203125
1.4026611328124998
1.4228027343749998
1.4219970703125
1.3873535156249999
1.2536132812499998
1.2052734375
1.1867431640625
1.1666015625
1.181103515625
1.2173583984375
1.3583496093749998
1.4655029296875
1.5541259765625
1.6242187499999998
1.6475830078125
1.6830322265625
1.6943115234375
1.703173828125
1.6927001953124998
1.69189453125
1.6725585937499998
1.6588623046875
1.64677734375
1.5992431640625
1.687060546875
1.8393310546875
1.9029785156249999
1.9150634765624999
1.9247314453125
1.9070068359374999
1.880419921875
1.703173828125
1.5412353515625
1.4381103515625
1.3978271484375
1.3744628906249998
1.364794921875
1.361572265625
1.3575439453125
1.364794921875
1.3736572265625
1.3857421875
1.393798828125
1.4123291015625
1.41796875
1.4542236328125
1.284228515625
1.2044677734375
1.1786865234375
1.168212890625
1.171435546875
1.2157470703125
1.3124267578125
1.4638916015624999
1.55009765625
1.6177734375
1.638720703125
1.6798095703125
1.6975341796874999
1.7080078125
1.7080078125
1.7015624999999999
1.6822265625
1.6572509765624999
1.641943359375
1.6346923828125
1.6105224609375
1.8409423828125
1.899755859375
1.9118408203125
1.92392578125
1.915869140625
1.9142578124999998
1.6532226562499999
1.53076171875
1.4501953125
1.3994384765624999
1.37607421875
1.3639892578125
1.3688232421875
1.36962890625
1.3704345703124998
1.3801025390625
1.3913818359374999
1.40830078125
1.4171630859375
1.416357421875
1.464697265625
1.2979248046874998
1.216552734375
1.1931884765625
1.173046875
1.1722412109375
1.187548828125
1.3019531249999998
1.4195800781249999
1.5170654296875
1.609716796875
1.6532226562499999
1.6725585937499998
1.699951171875
1.7047851562499998
1.6991455078125
1.6991455078125
1.69189453125
1.6636962890625
1.6653076171874999
1.6298583984375
1.603271484375
1.7934082031249998
1.8892822265625
1.912646484375
1.925537109375
1.9150634765624999
1.920703125
1.7603759765625
1.5750732421875
1.4671142578124998
1.405078125
1.3817138671875
1.3672119140624999
1.3591552734374999
1.3599609375
1.3591552734374999
1.3639892578125
1.3865478515624998
1.400244140625
1.4058837890625
1.4268310546874998
1.4840332031249999
1.300341796875
1.2221923828124999
1.1915771484375
1.16337890625
1.174658203125
1.1883544921875
1.264892578125
1.40830078125
1.51787109375
1.5815185546875
1.635498046875
1.667724609375
1.69189453125
1.6943115234375
1.7039794921875
1.6975341796874999
1.6830322265625
1.65966796875
1.6620849609375
1.6459716796875
1.593603515625
1.7861572265624999
1.8739746093749998
1.899755859375
1.92392578125
1.91748046875
1.9013671875
1.8054931640624998
1.61455078125
1.4977294921875
1.4139404296875
1.3712402343749999
1.3623779296874998
1.3631835937499999
1.3704345703124998
1.368017578125
1.36962890625
1.3865478515624998
1.3857421875
1.3994384765624999
1.4058837890625
1.4783935546875
1.368017578125
1.224609375
1.1923828125
1.1770751953125
1.1738525390624999
1.1851318359375
1.2616699218749998
1.364794921875
1.5170654296875
1.5879638671874998
1.6459716796875
1.6693359374999999
1.6806152343749998
1.6910888671875
1.699951171875
1.7120361328125
1.6951171875
1.6685302734374998
1.6491943359374999
1.6346923828125
1.5815185546875
1.7080078125
1.8780029296874998
1.9102294921874998
1.9311767578124999
1.9263427734374998
1.9062011718749998
1.8377197265624998
1.585546875
1.4759765624999999
1.4252197265625
1.3954101562499999
1.3639892578125
1.3446533203125
1.3543212890624998
1.364794921875
1.3736572265625
1.3825195312499998
1.3921875
1.4058837890625
1.4316650390624999
1.4373046875
1.37607421875
1.2479736328125
1.2044677734375
1.1786865234375
1.16015625
1.184326171875
1.2528076171875
1.3639892578125
1.4832275390624998
1.5597656249999998
1.6234130859375
1.6604736328124998
1.690283203125
1.6975341796874999
1.6967285156249998
1.6927001953124998
1.6806152343749998
1.6749755859375
1.6685302734374998
1.6636962890625
1.5976318359375
1.7088134765624998
1.85947265625
1.8981445312499998
1.9231201171874999
1.925537109375
1.8989501953124999
1.8699462890624998
1.6765869140624998
1.53076171875
1.4429443359374998
1.3905761718749998
1.3744628906249998
1.3607666015625
1.3551269531249999
1.3527099609375
1.3631835937499999
1.3664062499999998
1.38896484375
1.38896484375
1.4195800781249999
1.4228027343749998
1.4348876953124998
1.2455566406249998
1.21171875
1.18271484375
1.1722412109375
1.1738525390624999
1.2181640624999999
1.3140380859374998
1.4703369140625
1.5573486328125
1.6040771484374998
1.6564453124999998
1.6854492187499999
1.6991455078125
1.6935058593749999
1.703173828125
1.6846435546874998
1.674169921875
1.6620849609375
1.6451660156249999
1.638720703125
1.6822265625
1.8473876953125
1.8957275390625
1.9078125
1.9190917968749999
1.9150634765624999
1.9142578124999998
1.6798095703125
1.533984375
1.456640625
1.393798828125
1.3744628906249998
1.3607666015625
1.3591552734374999
1.3599609375
1.368017578125
1.36962890625
1.3897705078125
1.4066894531249998
1.4147460937499998
1.4348876953124998
1.4518066406249999
1.2947021484374999
1.2310546875
1.1883544921875
1.1690185546875
1.184326171875
1.2181640624999999
1.3075927734375
1.432470703125
1.5484863281249999
1.611328125
1.6330810546874999
1.662890625
1.6975341796874999
1.699951171875
1.6951171875
1.6959228515625
1.67900390625
1.662890625
1.6443603515624998
1.638720703125
1.6201904296874998
1.7958251953125
1.8868652343749999
1.9110351562499999
1.920703125
1.9142578124999998
1.909423828125
1.7362060546875
1.5275390624999998
1.4542236328125
1.432470703125
1.38896484375
1.3607666015625
1.3599609375
1.3607666015625
1.3599609375
1.3672119140624999
1.3913818359374999
1.3954101562499999
1.4195800781249999
1.41796875
1.482421875
1.2955078125
1.2181640624999999
1.190771484375
1.1674072265625
1.1786865234375
1.1794921875
1.3075927734375
1.4187744140624998
1.522705078125
1.5911865234375
1.6491943359374999
1.6685302734374998
1.6943115234375
1.6967285156249998
1.6943115234375
1.690283203125
1.6733642578124999
1.6636962890625
1.6540283203125
1.6491943359374999
1.6105224609375
1.7974365234374998
1.8739746093749998
1.9078125
1.9142578124999998
1.912646484375
1.9013671875
1.7813232421874998
1.5968261718749999
1.4993408203124998
1.4155517578124999
1.3897705078125
1.3704345703124998
1.3599609375
1.353515625
1.3656005859375
1.3664062499999998
1.3752685546874999
1.397021484375
1.4066894531249998
1.4219970703125
1.4840332031249999
1.3494873046875
1.22138671875
1.18916015625
1.171435546875
1.164990234375
1.184326171875
1.2697265624999998
1.38896484375
1.51787109375
1.5766845703124999
1.6282470703124998
1.6717529296875
1.6943115234375
1.69833984375
1.6951171875
1.6975341796874999
1.6822265625
1.670947265625
1.6564453124999998
1.6443603515624998
1.585546875
1.7781005859374999
1.8739746093749998
1.9021728515624998
1.920703125
1.9247314453125
1.899755859375
1.7716552734375
1.5944091796875
1.48564453125
1.4228027343749998
1.3825195312499998
1.3639892578125
1.36962890625
1.3591552734374999
1.3575439453125
1.3688232421875
1.384130859375
1.397021484375
1.4123291015625
1.4115234374999999
1.477587890625
1.3664062499999998
1.2447509765625
1.2012451171875
1.173046875
1.1674072265625
1.187548828125
1.2536132812499998
1.3752685546874999
1.496923828125
1.5944091796875
1.6234130859375
1.6532226562499999
1.6959228515625
1.6927001953124998
1.6975341796874999
1.6975341796874999
1.6822265625
1.6725585937499998
1.65966796875
1.6363037109374998
1.58232421875
1.7104248046875
1.87236328125
1.9013671875
1.9231201171874999
1.9150634765624999
1.893310546875
1.8369140625
1.651611328125
1.482421875
1.4300537109375
1.3929931640625
1.3672119140624999
1.35673828125
1.361572265625
1.368017578125
1.36962890625
1.3752685546874999
1.3986328124999998
1.4066894531249998
1.4155517578124999
1.4397216796874999
1.3728515625
1.2455566406249998
1.2020507812499999
1.181103515625
1.1722412109375
1.1794921875
1.222998046875
1.3631835937499999
1.474365234375
1.5557373046874998
1.62744140625
1.6588623046875
1.6806152343749998
1.6927001953124998
1.7047851562499998
1.699951171875
1.683837890625
1.6725585937499998
1.6588623046875
1.6475830078125
1.5944091796875
1.7023681640625
1.8538330078124998
1.9013671875
1.9134521484375
1.9190917968749999
1.912646484375
1.869140625
1.6725585937499998
1.5355957031249998
1.4364990234375
1.3962158203125
1.3768798828125
1.3583496093749998
1.3639892578125
1.3583496093749998
1.3559326171875
1.3744628906249998
1.384130859375
1.4026611328124998
1.4107177734374998
1.4219970703125
1.44052734375
1.281005859375
1.2044677734375
1.184326171875
1.168212890625
1.1778808593749999
1.2205810546875
1.3180664062499998
1.477587890625
1.554931640625
1.6048828124999999
1.6459716796875
1.6830322265625
1.69833984375
1.6830322265625
1.6975341796874999
1.6822265625
1.670947265625
1.6636962890625
1.64677734375
1.6346923828125
1.6290527343749999
1.8506103515624999
1.8908935546874999
1.9110351562499999
1.9263427734374998
1.9078125
1.9037841796875
1.6701416015625
1.5299560546875
1.45341796875
1.4107177734374998
1.37607421875
1.351904296875
1.3583496093749998
1.3631835937499999
1.3656005859375
1.380908203125
1.3905761718749998
1.3994384765624999
1.4115234374999999
1.4236083984374999
1.4510009765624998
1.2914794921875
1.224609375
1.190771484375
1.168212890625
1.1754638671875
1.2060791015624999
1.3148437499999999
1.4373046875
1.53076171875
1.6105224609375
1.65
1.6733642578124999
1.703173828125
1.69833984375
1.6951171875
1.6935058593749999
1.67578125
1.6620849609375
1.6588623046875
1.641943359375
1.6177734375
1.8095214843749998
1.89169921875
1.9086181640625
1.92392578125
1.9110351562499999
1.9021728515624998
1.751513671875
1.5380126953125
1.448583984375
1.40830078125
1.380908203125
1.3639892578125
1.37607421875
1.361572265625
1.3575439453125
1.3712402343749999
1.3768798828125
1.3921875
1.409912109375
1.42119140625
1.4832275390624998
1.2866455078124999
1.2173583984375
1.1915771484375
1.1674072265625
1.1617675781249999
1.1915771484375
1.2769775390625
1.41796875
1.5202880859374999
1.5968261718749999
1.641943359375
1.6653076171874999
1.6975341796874999
1.6935058593749999
1.690283203125
1.6886718749999998
1.6749755859375
1.6717529296875
1.6483886718749998
1.6371093749999999
1.5992431640625
1.7942138671874999
1.877197265625
1.9150634765624999
1.9360107421875
1.928759765625
1.9021728515624998
1.7853515624999998
1.5895751953125
1.4864501953125
1.4147460937499998
1.3825195312499998
1.368017578125
1.3551269531249999
1.345458984375
1.3494873046875
1.3607666015625
1.3833251953124999
1.3962158203125
1.4066894531249998
1.4252197265625
1.490478515625
1.3382080078124998
1.2189697265625
1.197216796875
1.1706298828125
1.1666015625
1.1923828125
1.2673095703125
1.3744628906249998
1.5114257812499998
1.5887695312499999
1.6395263671875
1.6653076171874999
1.69833984375
1.7152587890625
1.7128417968749998
1.7249267578124998
1.706396484375
1.6773925781249999
1.6411376953124999
1.6266357421875
1.5573486328125
1.7772949218749998
1.8755859375
1.9005615234375
1.9166748046875
1.899755859375
1.8925048828125
1.8071044921875
1.58232421875
1.4872558593749998
1.426025390625
1.3994384765624999
1.384130859375
1.3623779296874998
1.3744628906249998
1.3664062499999998
1.3768798828125
1.3849365234375
1.3857421875
1.397021484375
1.4195800781249999
1.4711425781249998
1.3527099609375
1.2399169921875
1.2052734375
1.1754638671875
1.174658203125
1.18916015625
1.2689208984375
1.3744628906249998
1.4816162109375
1.5911865234375
1.635498046875
1.6669189453125
1.6846435546874998
1.690283203125
1.6910888671875
1.6943115234375
1.674169921875
1.6685302734374998
1.6564453124999998
1.6524169921874998
1.6040771484374998
1.7313720703125
1.8820312499999998
1.912646484375
1.9247314453125
1.9182861328124998
1.9029785156249999
1.8489990234375
1.6508056640625
1.4872558593749998
1.413134765625
1.3688232421875
1.3575439453125
1.3422363281249998
1.3599609375
1.36962890625
1.368017578125
1.3801025390625
1.3825195312499998
1.4074951171874999
1.4147460937499998
1.4364990234375
1.4219970703125
1.2415283203124998
1.2076904296875
1.1835205078125
1.1674072265625
1.1899658203124999
1.2310546875
1.3229003906249999
1.4953124999999998
1.5645996093749999
1.6298583984375
1.6532226562499999
1.66611328125
1.6878662109375
1.69189453125
1.690283203125
1.6854492187499999
1.6894775390624999
1.6773925781249999
1.66611328125
1.6395263671875
1.7152587890625
1.85625
1.8908935546874999
1.9247314453125
1.9247314453125
1.8981445312499998
1.87236328125
1.6443603515624998
1.5057861328125
1.4526123046875
1.3825195312499998
1.3656005859375
1.348681640625
1.3736572265625
1.37607421875
1.37607421875
1.3849365234375
1.3881591796875
1.397021484375
1.4195800781249999
1.4598632812499999
1.4751708984374998
1.2898681640624998
1.184326171875
1.1593505859375
1.1593505859375
1.1738525390624999
1.21171875
1.3043701171875
1.4236083984374999
1.5573486328125
1.6234130859375
1.654833984375
1.699951171875
1.719287109375
1.7088134765624998
1.6991455078125
1.6894775390624999
1.6693359374999999
1.6508056640625
1.6242187499999998
1.625830078125
1.62744140625
1.8635009765625
1.8860595703124998
1.9102294921874998
1.9182861328124998
1.9005615234375
1.9037841796875
1.7200927734375
1.542041015625
1.4687255859375
1.4397216796874999
1.4123291015625
1.4123291015625
1.3849365234375
1.3704345703124998
1.329345703125
1.319677734375
1.3591552734374999
1.397021484375
1.4066894531249998
1.384130859375
1.413134765625
1.24716796875
1.198828125
1.1996337890625
1.1947998046875
1.1706298828125
1.1867431640625
1.3261230468749998
1.4477783203124999
1.53720703125
1.609716796875
1.641943359375
1.6822265625
1.6943115234375
1.6959228515625
1.6943115234375
1.690283203125
1.6781982421875
1.6717529296875
1.658056640625
1.65966796875
1.6411376953124999
1.8143554687499999
1.8981445312499998
1.9215087890625
1.9215087890625
1.9053955078125
1.9021728515624998
1.751513671875
1.5670166015625
1.43408203125
1.4026611328124998
1.38896484375
1.3881591796875
1.3672119140624999
1.3583496093749998
1.3494873046875
1.3656005859375
1.384130859375
1.4155517578124999
1.445361328125
1.41796875
1.4759765624999999
1.3269287109374999
1.1996337890625
1.158544921875
1.1464599609375
1.1867431640625
1.213330078125
1.2898681640624998
1.43408203125
1.5154541015624998
1.5807128906249999
1.6266357421875
1.6636962890625
1.6943115234375
1.7023681640625
1.7007568359374998
1.7007568359374998
1.6830322265625
1.6636962890625
1.64677734375
1.638720703125
1.6072998046875
1.8054931640624998
1.896533203125
1.92392578125
1.92392578125
1.920703125
1.8949218749999999
1.7490966796874998
1.5541259765625
1.456640625
1.409912109375
1.3954101562499999
1.3954101562499999
1.384130859375
1.3736572265625
1.3559326171875
1.3623779296874998
1.3792968749999999
1.3921875
1.3946044921874998
1.4244140625
1.4872558593749998
1.3559326171875
1.2697265624999998
1.22138671875
1.1706298828125
1.15693359375
1.1674072265625
1.248779296875
1.3639892578125
1.477587890625
1.5968261718749999
1.6572509765624999
1.670947265625
1.6645019531249998
1.667724609375
1.699951171875
1.7370117187499998
1.7442626953125
1.6935058593749999
1.6894775390624999
1.6830322265625
1.5758789062499998
1.706396484375
1.8264404296874999
1.8884765625
1.8925048828125
1.9102294921874998
1.9231201171874999
1.8095214843749998
1.60166015625
1.4598632812499999
1.4364990234375
1.4171630859375
1.40185546875
1.3744628906249998
1.3656005859375
1.3607666015625
1.3784912109374998
1.38896484375
1.3825195312499998
1.4147460937499998
1.4147460937499998
1.4461669921875
1.3688232421875
1.2447509765625
1.198828125
1.1794921875
1.17626953125
1.1899658203124999
1.2479736328125
1.380908203125
1.5162597656249999
1.5919921874999998
1.6298583984375
1.651611328125
1.670947265625
1.683837890625
1.6814208984374999
1.6943115234375
1.6910888671875
1.6765869140624998
1.6620849609375
1.635498046875
1.5750732421875
1.7281494140625
1.8635009765625
1.9150634765624999
1.9440673828125
1.9327880859375
1.9134521484375
1.8586669921874999
1.670947265625
1.522705078125
1.4284423828125
1.3921875
1.3784912109374998
1.353515625
1.3510986328124999
1.3559326171875
1.3510986328124999
1.3736572265625
1.3744628906249998
1.38896484375
1.4171630859375
1.4429443359374998
1.4364990234375
1.2495849609374998
1.2189697265625
1.1859374999999999
1.168212890625
1.1617675781249999
1.2109130859375
1.313232421875
1.4751708984374998
1.5702392578125
1.6209960937499999
1.651611328125
1.6814208984374999
1.6967285156249998
1.7023681640625
1.6991455078125
1.6878662109375
1.6822265625
1.6604736328124998
1.6451660156249999
1.6290527343749999
1.699951171875
1.8546386718749999
1.8755859375
1.9102294921874998
1.9190917968749999
1.9078125
1.9223144531249998
1.6572509765624999
1.5315673828124998
1.4356933593749999
1.3825195312499998
1.432470703125
1.4107177734374998
1.3712402343749999
1.36962890625
1.3543212890624998
1.3446533203125
1.3962158203125
1.4195800781249999
1.4115234374999999
1.413134765625
1.4477783203124999
1.2979248046874998
1.2238037109375
1.18916015625
1.17626953125
1.1722412109375
1.2076904296875
1.3075927734375
1.448583984375
1.5654052734375
1.6137451171875
1.6814208984374999
1.67578125
1.662890625
1.670947265625
1.6846435546874998
1.6717529296875
1.6653076171874999
1.6927001953124998
1.6459716796875
1.625830078125
1.6081054687499998
1.8071044921875
1.8820312499999998
1.9166748046875
1.9537353515625
1.9392333984374999
1.92392578125
1.7337890624999999
1.5331787109375
1.448583984375
1.400244140625
1.36962890625
1.364794921875
1.3664062499999998
1.377685546875
1.3664062499999998
1.364794921875
1.3744628906249998
1.3833251953124999
1.4074951171874999
1.4244140625
1.5025634765625
1.2987304687499999
1.2286376953125
1.21171875
1.1859374999999999
1.174658203125
1.1456542968749999
1.2826171874999999
1.4501953125
1.585546875
1.6129394531249999
1.6451660156249999
1.6878662109375
1.69189453125
1.6886718749999998
1.6910888671875
1.6822265625
1.667724609375
1.6572509765624999
1.65
1.64677734375
1.5927978515624999
1.812744140625
1.8796142578125
1.90458984375
1.9215087890625
1.92392578125
1.92392578125
1.7692382812499998
1.5984375
1.4622802734375
1.4228027343749998
1.3978271484375
1.37607421875
1.353515625
1.368017578125
1.3744628906249998
1.384130859375
1.4066894531249998
1.4171630859375
1.4195800781249999
1.4574462890625
1.5194824218749998
1.3462646484374998
1.200439453125
1.187548828125
1.18916015625
1.1947998046875
1.1939941406249999
1.2826171874999999
1.384130859375
1.5251220703125
1.606494140625
1.6564453124999998
1.6991455078125
1.735400390625
1.7249267578124998
1.7313720703125
1.7603759765625
1.7370117187499998
1.7652099609374998
1.6806152343749998
1.67578125
1.5645996093749999
1.8111328125
1.877197265625
1.8844482421875
1.9037841796875
1.9086181640625
1.9150634765624999
1.7257324218749999
1.5428466796875
1.4493896484375
1.397021484375
1.3591552734374999
1.35673828125
1.3398193359375
1.335791015625
1.348681640625
1.345458984375
1.377685546875
1.397021484375
1.4034667968749999
1.4066894531249998
1.5122314453124999
1.332568359375
1.213330078125
1.18271484375
1.1706298828125
1.16015625
1.1698242187499999
1.24716796875
1.37607421875
1.4872558593749998
1.5718505859374998
1.6177734375
1.6411376953124999
1.690283203125
1.6951171875
1.699951171875
1.7700439453124999
1.6588623046875
1.6532226562499999
1.6540283203125
1.6306640625
1.496923828125
1.7015624999999999
1.8747802734374999
1.8876708984375
1.9182861328124998
1.9513183593749999
1.9440673828125
1.8651123046875
1.6024658203125
1.4276367187499999
1.393798828125
1.40830078125
1.384130859375
1.3333740234375
1.340625
1.361572265625
1.3720458984375
1.3768798828125
1.409912109375
1.4171630859375
1.4252197265625
1.4558349609374999
1.3543212890624998
1.22138671875
1.187548828125
1.1698242187499999
1.1641845703125
1.168212890625
1.2125244140625
1.3736572265625
1.477587890625
1.5533203125
1.638720703125
1.65966796875
1.6935058593749999
1.6959228515625
1.6951171875
1.6959228515625
1.690283203125
1.6717529296875
1.6620849609375
1.6427490234375
1.5323730468749999
1.71123046875
1.8667236328124999
1.9037841796875
1.9311767578124999
1.931982421875
1.915869140625
1.899755859375
1.662890625
1.5283447265624999
1.42119140625
1.38896484375
1.3728515625
1.3382080078124998
1.3623779296874998
1.3744628906249998
1.3825195312499998
2.3904052734375
1.9110351562499999
1.5766845703124999
1.4679199218749999
1.4961181640624999
1.5114257812499998
1.22138671875
1.173046875
1.155322265625
1.126318359375
1.090869140625
1.1158447265625
1.2318603515625
1.4107177734374998
1.5347900390625
1.5831298828125
1.6242187499999998
1.6427490234375
1.64677734375
1.622607421875
1.6475830078125
1.6322753906249998
1.6379150390625
1.635498046875
1.6161621093749998
1.5702392578125
1.5444580078124999
1.8328857421875
1.8780029296874998
1.8957275390625
1.899755859375
1.9013671875
1.9489013671875
1.6330810546874999
1.4840332031249999
1.4042724609375
1.380908203125
1.3502929687499998
1.353515625
1.34384765625
1.345458984375
1.348681640625
1.3607666015625
1.380908203125
1.3921875
1.3929931640625
1.4244140625
1.493701171875
1.2528076171875
1.1939941406249999
1.1770751953125
1.1496826171874999
1.1367919921875
1.1545166015625
1.3019531249999998
1.432470703125
1.5460693359375
1.611328125
1.6540283203125
1.6854492187499999
1.6943115234375
1.6854492187499999
1.7023681640625
1.6862548828125
1.6701416015625
1.6459716796875
1.6604736328124998
1.622607421875
1.5355957031249998
1.848193359375
1.9118408203125
1.91748046875
1.9343994140624998
1.9110351562499999
1.9658203125
1.7797119140625
1.5702392578125
1.4308593749999998
1.4115234374999999
1.3825195312499998
1.348681640625
1.3502929687499998
1.3470703124999999
1.3623779296874998
1.3849365234375
1.4236083984374999
1.4300537109375
1.4147460937499998
1.4203857421875
1.561376953125
1.26005859375
1.2012451171875
1.1706298828125
1.1464599609375
1.1561279296875
1.1593505859375
1.2576416015624998
1.4219970703125
1.5194824218749998
1.5911865234375
1.6483886718749998
1.6854492187499999
1.7249267578124998
1.7120361328125
1.7184814453125
1.69833984375
1.6733642578124999
1.670947265625
1.6645019531249998
1.65
1.5275390624999998
1.8369140625
1.9102294921874998
1.9231201171874999
1.9408447265625
1.9360107421875
1.9650146484375
1.7982421874999999
1.5799072265624998
1.4606689453125
1.3978271484375
1.3994384765624999
1.38896484375
1.364794921875
1.3551269531249999
1.345458984375
1.3583496093749998
1.3897705078125
1.3921875
1.4115234374999999
1.4356933593749999
1.606494140625
1.3301513671874998
1.2012451171875
1.1859374999999999
1.1674072265625
1.1456542968749999
1.1110107421875
1.22783203125
1.3656005859375
1.574267578125
1.625830078125
1.66611328125
1.7055908203124999
1.714453125
1.662890625
1.66611328125
1.7023681640625
1.67900390625
1.6363037109374998
1.622607421875
1.6153564453125
1.3712402343749999
1.8369140625
1.9062011718749998
1.9142578124999998
1.9271484374999999
1.9295654296875
2.0278564453125
1.867529296875
1.53720703125
1.4501953125
1.405078125
1.3768798828125
1.3865478515624998
1.3656005859375
1.351904296875
1.3430419921874999
1.353515625
1.3728515625
1.3881591796875
1.4276367187499999
1.4284423828125
1.6532226562499999
1.3599609375
1.1867431640625
1.1819091796874999
1.1529052734375
1.1375976562499999
1.1464599609375
1.2238037109375
1.3664062499999998
1.5162597656249999
1.6121337890624998
1.622607421875
1.6427490234375
1.7023681640625
1.7072021484375
1.6967285156249998
1.7184814453125
1.67578125
1.658056640625
1.651611328125
1.622607421875
1.3712402343749999
1.71123046875
1.9198974609375
1.941650390625
1.9545410156249998
1.9513183593749999
1.9875732421874999
1.9835449218749999
1.6201904296874998
1.4630859374999998
1.4219970703125
1.3865478515624998
1.3712402343749999
1.3422363281249998
1.3510986328124999
1.3430419921874999
1.3631835937499999
1.3688232421875
1.3929931640625
1.4268310546874998
1.41796875
1.4864501953125
1.477587890625
1.2020507812499999
1.1754638671875
1.15048828125
1.1690185546875
1.1625732421875
1.1923828125
1.33740234375
1.4912841796874998
1.5750732421875
1.6218017578125
1.6717529296875
1.714453125
1.7265380859375
1.6894775390624999
1.699951171875
1.687060546875
1.6645019531249998
1.6532226562499999
1.6475830078125
1.5476806640624998
1.706396484375
1.9029785156249999
1.9150634765624999
1.9327880859375
1.9593749999999999
1.9650146484375
1.9456787109375
1.625830078125
1.4671142578124998
1.4034667968749999
1.35673828125
1.3688232421875
1.3631835937499999
1.3688232421875
1.3599609375
1.3704345703124998
1.3833251953124999
1.3946044921874998
1.4147460937499998
1.4010498046875
1.46630859375
1.5251220703125
1.2334716796875
1.1859374999999999
1.1786865234375
1.1561279296875
1.147265625
1.1641845703125
1.2995361328125
1.4550292968749998
1.5799072265624998
1.61455078125
1.6524169921874998
1.7047851562499998
1.706396484375
1.7120361328125
1.7072021484375
1.703173828125
1.67900390625
1.6620849609375
1.6427490234375
1.6008544921874999
1.5323730468749999
1.9029785156249999
1.9134521484375
1.912646484375
1.9352050781249999
1.93681640625
2.03994140625
1.719287109375
1.5001464843749999
1.429248046875
1.3978271484375
1.3849365234375
1.353515625
1.3656005859375
1.3502929687499998
1.368017578125
1.3728515625
1.377685546875
1.3905761718749998
1.400244140625
1.4300537109375
1.5654052734375
1.2366943359375
1.2205810546875
1.1883544921875
1.1287353515625
1.1045654296875
1.1158447265625
1.3188720703124999
1.4437499999999999
1.5347900390625
1.5976318359375
1.6556396484375
1.6927001953124998
1.714453125
1.6927001953124998
1.7096191406249999
1.6927001953124998
1.6749755859375
1.670947265625
1.654833984375
1.6427490234375
1.5194824218749998
1.8699462890624998
1.8949218749999999
1.9102294921874998
1.9352050781249999
1.9634033203124999
2.02060546875
1.7692382812499998
1.5218994140625
1.4348876953124998
1.4244140625
1.393798828125
1.3543212890624998
1.340625
1.3527099609375
1.3551269531249999
1.3768798828125
1.4115234374999999
1.40830078125
1.4155517578124999
1.413134765625
1.6475830078125
1.2479736328125
1.1883544921875
1.1770751953125
1.1529052734375
1.1432373046875
1.106982421875
1.255224609375
1.432470703125
1.5364013671874999
1.5887695312499999
1.65
1.6645019531249998
1.7055908203124999
1.716064453125
1.7088134765624998
1.7072021484375
1.6773925781249999
1.6612792968749999
1.6572509765624999
1.6532226562499999
1.482421875
1.8538330078124998
1.93359375
1.9295654296875
1.8949218749999999
1.9102294921874998
2.0496093749999997
1.7499023437499999
1.5355957031249998
1.4703369140625
1.413134765625
1.397021484375
1.384130859375
1.3446533203125
1.348681640625
1.3398193359375
1.3333740234375
1.3744628906249998
1.4147460937499998
1.432470703125
1.4155517578124999
1.641943359375
1.31162109375
1.19560546875
1.1802978515625
1.15693359375
1.1448486328125
1.0973144531249999
1.235888671875
1.3784912109374998
1.4558349609374999
1.606494140625
1.6475830078125
1.6685302734374998
1.7047851562499998
1.6943115234375
1.690283203125
1.7168701171874998
1.6806152343749998
1.6669189453125
1.662890625
1.6475830078125
1.416357421875
1.7652099609374998
1.93359375
1.912646484375
1.9223144531249998
1.9408447265625
1.9996582031249999
1.9029785156249999
1.6137451171875
1.46953125
1.4195800781249999
1.3704345703124998
1.3712402343749999
1.345458984375
1.3543212890624998
1.3575439453125
1.3502929687499998
1.3833251953124999
1.377685546875
1.3825195312499998
1.3752685546874999
1.5146484375
1.368017578125
1.2205810546875
1.22138671875
1.2189697265625
1.1883544921875
1.134375
1.1722412109375
1.345458984375
1.4848388671875
1.2238037109375
1.03447265625
0.800830078125
0.7871337890625
0.8749511718749999
0.87333984375
1.1053710937499999
1.222998046875
1.405078125
1.5412353515625
1.6491943359374999
0.08137207031249999
0.02578125
0.024169921875
0.022558593749999998
0.024169921875
0.095068359375
0.5422119140625
3.0268798828124996
3.0317138671875
3.0301025390625
3.029296875
3.029296875
3.0301025390625
3.0268798828124996
3.0309082031249996
3.029296875
3.0252685546875
2.940673828125
2.8713867187499997
2.7819580078125
2.6296874999999997
3.0284912109374997
3.0301025390625
3.027685546875
3.0309082031249996
3.0301025390625
3.0333251953125
2.384765625
1.1690185546875
0.053173828124999996
0.0314208984375
0.027392578124999997
0.02900390625
0.026586914062499998
0.027392578124999997
0.02578125
0.0249755859375
0.026586914062499998
0.033837890625
0.0910400390625
0.2022216796875
0.37785644531249996
0.027392578124999997
0.026586914062499998
0.024169921875
0.027392578124999997
0.02578125
0.02578125
0.44553222656249997
2.6949462890625
3.0268798828124996
3.029296875
3.0268798828124996
3.027685546875
3.02607421875
3.0244628906249997
3.029296875
3.027685546875
3.0284912109374997
2.98095703125
2.8963623046875
2.8109619140624997
2.6337158203124997
2.495947265625
3.0301025390625
3.029296875
3.0268798828124996
3.0284912109374997
3.0284912109374997
2.7021972656249997
1.577490234375
0.5164306640624999
0.024169921875
0.027392578124999997
0.026586914062499998
0.026586914062499998
0.02578125
0.0298095703125
0.027392578124999997
0.0281982421875
0.033837890625
0.0966796875
0.2135009765625
0.343212890625
0.4390869140625
0.0298095703125
0.026586914062499998
0.027392578124999997
0.02578125
0.0322265625
0.33757324218749996
1.7595703125
3.027685546875
3.029296875
3.0301025390625
3.0301025390625
3.029296875
3.0309082031249996
3.0429931640624996
3.029296875
3.029296875
2.9575927734375
2.876220703125
2.73603515625
2.6063232421875
2.4749999999999996
3.029296875
3.029296875
3.0301025390625
3.0268798828124996
3.029296875
2.8528564453125
1.6927001953124998
0.581689453125
0.0249755859375
0.0281982421875
0.026586914062499998
0.027392578124999997
0.02578125
0.0249755859375
0.02578125
0.026586914062499998
0.027392578124999997
0.0749267578125
0.130517578125
0.24492187499999998
0.37785644531249996
0.0281982421875
0.026586914062499998
0.0281982421875
0.027392578124999997
0.026586914062499998
0.1345458984375
1.5186767578125
3.029296875
3.029296875
3.0268798828124996
3.0301025390625
3.027685546875
3.0333251953125
3.029296875
3.034130859375
3.0268798828124996
3.0252685546875
2.9366455078125
2.872998046875
2.7432861328125
2.6200195312499996
3.027685546875
3.0309082031249996
3.0252685546875
3.0268798828124996
3.0252685546875
2.8383544921875
2.1229248046875
0.966796875
0.027392578124999997
0.027392578124999997
0.027392578124999997
0.026586914062499998
0.027392578124999997
0.026586914062499998
0.027392578124999997
0.0298095703125
0.027392578124999997
0.10634765624999999
0.175634765625
0.32145996093749996
0.420556640625
0.026586914062499998
0.02578125
0.030615234374999998
0.024169921875
0.0298095703125
0.0829833984375
0.855615234375
2.8713867187499997
3.029296875
3.0333251953125
3.0284912109374997
3.029296875
3.0301025390625
3.029296875
3.027685546875
3.029296875
2.9962646484374997
2.9688720703125
2.843994140625
2.7005859374999996
2.5692626953124997
2.4274658203125
3.029296875
3.029296875
3.02607421875
3.0268798828124996
3.029296875
2.566845703125
1.0111083984375
0.027392578124999997
0.020947265625
0.02578125
0.02578125
0.026586914062499998
0.027392578124999997
0.026586914062499998
0.0217529296875
0.026586914062499998
0.0765380859375
0.15791015625
0.2360595703125
0.3262939453125
0.0298095703125
0.024169921875
0.0249755859375
0.024169921875
0.02900390625
0.02578125
0.43505859375
2.6627197265625
3.0268798828124996
3.0284912109374997
3.0325195312499997
3.029296875
3.0301025390625
3.0462158203125
3.0317138671875
3.0309082031249996
3.034130859375
2.921337890625
2.840771484375
2.7013916015625
2.52978515625
2.3477050781249997
3.0284912109374997
3.029296875
3.0333251953125
3.0333251953125
3.0309082031249996
2.56845703125
1.5009521484375
0.314208984375
0.024169921875
0.0314208984375
0.026586914062499998
0.0298095703125
0.02578125
0.026586914062499998
0.030615234374999998
0.02578125
0.027392578124999997
0.0990966796875
0.17885742187499998
0.33273925781249997
0.459228515625
0.0281982421875
0.030615234374999998
0.0298095703125
0.02900390625
0.0249755859375
0.3424072265625
1.9279541015625
3.0301025390625
3.0268798828124996
3.0301025390625
3.027685546875
3.0333251953125
3.0357421875
3.034130859375
3.029296875
3.0268798828124996
2.9656494140625
2.9197265624999997
2.7803466796875
2.66513671875
2.5475097656249996
3.0284912109374997
3.0349365234374996
3.0268798828124996
3.029296875
3.0228515624999996
2.763427734375
1.7128417968749998
0.3843017578125
0.027392578124999997
0.02578125
0.0217529296875
0.0249755859375
0.02900390625
0.027392578124999997
0.027392578124999997
0.0249755859375
0.03544921875
0.103125
0.2425048828125
0.33757324218749996
0.4197509765625
0.0298095703125
0.038671874999999994
0.0281982421875
0.026586914062499998
0.0298095703125
0.1377685546875
1.3172607421875
3.0284912109374997
3.027685546875
3.0309082031249996
3.0284912109374997
3.034130859375
3.029296875
3.027685546875
3.02607421875
3.0284912109374997
2.969677734375
2.8480224609375
2.7851806640624996
2.63291015625
2.5338134765625
3.0301025390625
3.029296875
3.0333251953125
3.029296875
3.0309082031249996
2.9608154296875
1.8441650390625
0.8838134765625
0.026586914062499998
0.026586914062499998
0.02578125
0.0249755859375
0.02578125
0.026586914062499998
0.027392578124999997
0.027392578124999997
0.026586914062499998
0.0684814453125
0.149853515625
0.2940673828125
0.4149169921875
0.030615234374999998
0.02578125
0.0281982421875
0.0298095703125
0.02900390625
0.02578125
0.8403076171874999
2.92939453125
3.0268798828124996
3.02607421875
3.0301025390625
3.02607421875
3.0301025390625
3.0317138671875
3.027685546875
3.027685546875
3.029296875
2.937451171875
2.848828125
2.6885009765624996
2.5080322265625
2.608740234375
3.0268798828124996
3.0284912109374997
3.02607421875
3.02607421875
3.0204345703124997
2.466943359375
1.2947021484374999
0.02578125
0.0249755859375
0.027392578124999997
0.02900390625
0.0217529296875
0.0217529296875
0.026586914062499998
0.020947265625
0.0249755859375
0.09023437499999999
0.1200439453125
0.270703125
0.3601318359375
0.249755859375
0.02578125
0.02578125
0.027392578124999997
0.02578125
0.0281982421875
0.44794921875
2.2590820312499997
3.0301025390625
3.0333251953125
3.029296875
3.0268798828124996
3.0284912109374997
3.0325195312499997
3.0301025390625
3.0268798828124996
3.0284912109374997
2.972900390625
2.9028076171875
2.7739013671875
2.68125
2.4814453125
3.0333251953125
3.029296875
3.029296875
3.029296875
3.0268798828124996
2.7142822265624997
1.3261230468749998
0.20625
0.023364257812499997
0.0281982421875
0.023364257812499997
0.026586914062499998
0.026586914062499998
0.026586914062499998
0.0281982421875
0.026586914062499998
0.08056640625
0.1071533203125
0.19497070312499998
0.29970703125
0.40524902343749997
0.0281982421875
0.0298095703125
0.026586914062499998
0.02578125
0.0249755859375
0.2215576171875
2.205908203125
3.02607421875
3.0349365234374996
3.0284912109374997
3.0244628906249997
3.0252685546875
3.0301025390625
3.029296875
3.029296875
3.0284912109374997
2.9318115234374997
2.8633300781249997
2.7569824218749996
2.6055175781249997
2.4596923828125
3.0252685546875
3.0236572265625
3.0317138671875
3.0325195312499997
3.029296875
2.7424804687499997
1.6967285156249998
0.6670898437499999
0.027392578124999997
0.0281982421875
0.02578125
0.0281982421875
0.0281982421875
0.026586914062499998
0.0249755859375
0.026586914062499998
0.026586914062499998
0.0708984375
0.15629882812499998
0.2827880859375
0.391552734375
0.02578125
0.026586914062499998
0.02578125
0.0298095703125
0.02578125
0.22316894531249998
1.06669921875
3.0236572265625
3.0309082031249996
3.029296875
3.0333251953125
3.0325195312499997
3.0301025390625
3.0325195312499997
3.0309082031249996
3.0301025390625
2.9592041015625
2.9011962890625
2.7948486328124997
2.67158203125
2.5370361328124997
3.0301025390625
3.0252685546875
3.029296875
3.0301025390625
3.029296875
2.8794433593749997
2.2550537109374997
0.6968994140625
0.02578125
0.026586914062499998
0.0249755859375
0.027392578124999997
0.027392578124999997
0.027392578124999997
0.0217529296875
0.026586914062499998
0.0314208984375
0.0668701171875
0.20463867187499998
0.2811767578125
0.40283203125
0.0217529296875
0.026586914062499998
0.02900390625
0.026586914062499998
0.026586914062499998
0.027392578124999997
0.5083740234374999
3.029296875
3.0381591796875
3.0284912109374997
3.0301025390625
3.029296875
3.029296875
3.029296875
3.0333251953125
3.0244628906249997
3.027685546875
2.9020019531249996
2.8141845703125
2.715087890625
2.534619140625
3.0244628906249997
3.029296875
3.0309082031249996
3.029296875
3.027685546875
3.0317138671875
2.4121582031249997
1.13115234375
0.08137207031249999
0.026586914062499998
0.030615234374999998
0.026586914062499998
0.026586914062499998
0.026586914062499998
0.02578125
0.027392578124999997
0.0217529296875
0.040283203125
0.13615722656249998
0.198193359375
0.3673828125
0.026586914062499998
0.02578125
0.02578125
0.02578125
0.02578125
0.023364257812499997
0.5293212890625
2.5338134765625
3.029296875
3.0284912109374997
3.029296875
3.0309082031249996
3.0429931640624996
3.0317138671875
3.02607421875
3.0284912109374997
3.029296875
2.9076416015624997
2.8109619140624997
2.6611083984375
2.5249511718749997
2.3807373046875
3.0284912109374997
3.0309082031249996
3.0228515624999996
3.0301025390625
3.0284912109374997
2.657080078125
1.6242187499999998
0.207861328125
0.02578125
0.0249755859375
0.030615234374999998
0.026586914062499998
0.0298095703125
0.02578125
0.030615234374999998
0.027392578124999997
0.0555908203125
0.0717041015625
0.136962890625
0.2537841796875
0.3182373046875
0.030615234374999998
0.027392578124999997
0.027392578124999997
0.0201416015625
0.026586914062499998
0.3150146484375
1.6943115234375
3.0284912109374997
3.029296875
3.0317138671875
3.029296875
3.0325195312499997
3.029296875
3.0309082031249996
3.0309082031249996
3.0301025390625
2.9600097656249997
2.876220703125
2.7489257812499996
2.6232421875
2.4685546874999997
3.0268798828124996
3.029296875
3.0244628906249997
3.0284912109374997
3.0301025390625
2.8383544921875
1.5412353515625
0.45439453124999996
0.0298095703125
0.026586914062499998
0.0281982421875
0.023364257812499997
0.026586914062499998
0.02578125
0.02900390625
0.0322265625
0.0314208984375
0.11359863281249999
0.22075195312499998
0.362548828125
0.5083740234374999
0.0249755859375
0.02578125
0.0281982421875
0.026586914062499998
0.0281982421875
0.1506591796875
1.8546386718749999
3.029296875
3.0325195312499997
3.0228515624999996
3.02607421875
3.0236572265625
3.029296875
3.0244628906249997
3.0333251953125
3.0333251953125
3.0067382812499996
2.9326171875
2.827880859375
2.6820556640624997
2.518505859375
3.0301025390625
3.029296875
3.0317138671875
3.029296875
3.0301025390625
2.8472167968749997
2.1406494140625
0.9353759765624999
0.023364257812499997
0.02900390625
0.0322265625
0.0249755859375
0.0281982421875
0.02578125
0.02578125
0.02578125
0.026586914062499998
0.0362548828125
0.0878173828125
0.21914062499999998
0.3359619140625
0.022558593749999998
0.030615234374999998
0.02578125
0.027392578124999997
0.0249755859375
0.185302734375
0.7194580078124999
2.7585937499999997
3.029296875
3.027685546875
3.029296875
3.0268798828124996
3.0284912109374997
3.029296875
3.0309082031249996
3.029296875
3.0252685546875
2.9197265624999997
2.7916259765625
2.6691650390625
2.5313964843749996
2.3855712890625
3.029296875
3.0268798828124996
3.02607421875
3.0301025390625
3.027685546875
2.512060546875
0.9949951171875
0.026586914062499998
0.0281982421875
0.026586914062499998
0.02578125
0.026586914062499998
0.026586914062499998
0.026586914062499998
0.026586914062499998
0.027392578124999997
0.02900390625
0.14018554687499998
0.1893310546875
0.31259765624999997
0.027392578124999997
0.02578125
0.027392578124999997
0.0314208984375
0.030615234374999998
0.027392578124999997
0.42539062499999997
2.811767578125
3.0268798828124996
3.0325195312499997
3.034130859375
3.029296875
3.0284912109374997
3.029296875
3.0268798828124996
3.0284912109374997
3.0228515624999996
2.914892578125
2.8238525390625
2.70380859375
2.5877929687499996
2.4226318359375
3.0309082031249996
3.0244628906249997
3.0357421875
3.0301025390625
3.027685546875
2.5475097656249996
1.4252197265625
0.2441162109375
0.027392578124999997
0.024169921875
0.0314208984375
0.02578125
0.02578125
0.02578125
0.02578125
0.02900390625
0.0636474609375
0.1393798828125
0.23525390624999998
0.39396972656249996
0.485009765625
0.0249755859375
0.0322265625
0.026586914062499998
0.027392578124999997
0.030615234374999998
0.41008300781249996
2.2131591796875
3.034130859375
3.0301025390625
3.0309082031249996
3.0244628906249997
3.0301025390625
3.0236572265625
3.0317138671875
3.0244628906249997
3.029296875
2.937451171875
2.8770263671875
2.776318359375
2.616796875
2.4951416015624996
3.0284912109374997
3.0317138671875
3.0301025390625
3.0252685546875
3.0317138671875
2.7577880859375
1.638720703125
0.6968994140625
0.030615234374999998
0.023364257812499997
0.027392578124999997
0.02578125
0.027392578124999997
0.0281982421875
0.0217529296875
0.027392578124999997
0.030615234374999998
0.0523681640625
0.17644042968749998
0.24733886718749998
0.3311279296875
0.0217529296875
0.027392578124999997
0.02578125
0.026586914062499998
0.0217529296875
0.21914062499999998
1.0191650390625
3.0325195312499997
3.029296875
3.0301025390625
3.0317138671875
3.027685546875
3.029296875
3.0301025390625
3.029296875
3.0284912109374997
2.9817626953125
2.8738037109374996
2.7690673828124996
2.6530517578125
2.5193115234374996
3.0301025390625
3.0301025390625
3.029296875
3.0309082031249996
3.0284912109374997
2.8778320312499996
1.7619873046874999
0.7065673828125
0.027392578124999997
0.026586914062499998
0.02578125
0.027392578124999997
0.026586914062499998
0.023364257812499997
0.026586914062499998
0.027392578124999997
0.027392578124999997
0.08137207031249999
0.1699951171875
0.265869140625
0.420556640625
0.026586914062499998
0.02900390625
0.026586914062499998
0.026586914062499998
0.02900390625
0.0281982421875
1.2584472656249999
3.029296875
3.0309082031249996
3.0268798828124996
3.0301025390625
3.029296875
3.027685546875
3.029296875
3.029296875
3.0309082031249996
2.9906249999999996
2.9076416015624997
2.8174072265624996
2.7086425781249996
2.4927246093749997
2.9447021484375
3.0309082031249996
3.034130859375
3.029296875
3.027685546875
2.92294921875
2.3887939453125
1.116650390625
0.027392578124999997
0.0249755859375
0.026586914062499998
0.027392578124999997
0.026586914062499998
0.02578125
0.02578125
0.024169921875
0.02578125
0.0555908203125
0.1458251953125
0.30937499999999996
0.44150390624999997
0.026586914062499998
0.0249755859375
0.0298095703125
0.0249755859375
0.0322265625
0.0443115234375
0.5293212890625
2.5555664062499996
3.02607421875
3.027685546875
3.0284912109374997
3.029296875
3.029296875
3.0333251953125
3.029296875
3.029296875
3.029296875
2.9511474609375
2.8915283203124997
2.7384521484374997
2.586181640625
2.44599609375
3.034130859375
3.0301025390625
3.029296875
3.0301025390625
3.0284912109374997
2.6707763671875
1.6459716796875
0.169189453125
0.0249755859375
0.02578125
0.0281982421875
0.0281982421875
0.024169921875
0.027392578124999997
0.0249755859375
0.02578125
0.027392578124999997
0.10957031249999999
0.25620117187499997
0.346435546875
0.2118896484375
0.0314208984375
0.0281982421875
0.0249755859375
0.0314208984375
0.02578125
0.2900390625
2.2276611328125
3.029296875
3.0301025390625
3.029296875
3.034130859375
3.029296875
3.0301025390625
3.02607421875
3.0325195312499997
3.0309082031249996
2.92939453125
2.818212890625
2.7247558593749996
2.6119628906249996
2.408935546875
3.0244628906249997
3.0333251953125
3.0284912109374997
3.02607421875
3.029296875
2.719921875
1.6645019531249998
0.5663818359375
0.0217529296875
0.02578125
0.0314208984375
0.0281982421875
0.0249755859375
0.026586914062499998
0.023364257812499997
0.022558593749999998
0.0555908203125
0.0910400390625
0.1812744140625
0.33676757812499997
0.4447265625
0.023364257812499997
0.0281982421875
0.02578125
0.027392578124999997
0.026586914062499998
0.24169921875
1.7088134765624998
3.0325195312499997
3.0309082031249996
3.0284912109374997
3.029296875
3.0429931640624996
3.0309082031249996
3.02607421875
3.0301025390625
3.02607421875
3.0156005859375
2.900390625
2.81982421875
2.666748046875
2.5531494140624997
3.029296875
3.0309082031249996
3.0325195312499997
3.029296875
3.0284912109374997
2.8778320312499996
2.2018798828125
0.9434326171874999
0.026586914062499998
0.02578125
0.0346435546875
0.026586914062499998
0.020947265625
0.02578125
0.023364257812499997
0.02578125
0.023364257812499997
0.0515625
0.14018554687499998
0.207861328125
0.2989013671875
0.024169921875
0.0298095703125
0.027392578124999997
0.027392578124999997
0.02578125
0.1071533203125
0.655810546875
2.8681640625
3.0284912109374997
3.027685546875
3.029296875
3.0284912109374997
3.0284912109374997
3.02607421875
3.0268798828124996
3.029296875
2.9994873046875
2.92939453125
2.8351318359374997
2.70703125
2.5813476562499997
3.029296875
3.029296875
3.029296875
3.0317138671875
3.02607421875
3.0309082031249996
2.5813476562499997
1.0433349609375
0.022558593749999998
0.02578125
0.0249755859375
0.026586914062499998
0.026586914062499998
0.02578125
0.0314208984375
0.026586914062499998
0.0314208984375
0.027392578124999997
0.08942871093749999
0.185302734375
0.246533203125
0.026586914062499998
0.02578125
0.0314208984375
0.0249755859375
0.02578125
0.027392578124999997
0.3746337890625
2.624853515625
3.0252685546875
3.029296875
3.0301025390625
3.0236572265625
3.0284912109374997
3.029296875
3.0301025390625
3.0309082031249996
3.029296875
2.9342285156249996
2.8617187499999996
2.7336181640625
2.5958496093749996
2.43955078125
3.0309082031249996
3.02607421875
3.0309082031249996
3.0301025390625
3.029296875
2.52978515625
1.40185546875
0.2360595703125
0.026586914062499998
0.026586914062499998
0.0322265625
0.023364257812499997
0.026586914062499998
0.027392578124999997
0.0217529296875
0.0314208984375
0.026586914062499998
0.0845947265625
0.23203125
0.3681884765625
0.472119140625
0.02578125
0.023364257812499997
0.026586914062499998
0.026586914062499998
0.02578125
0.36979980468749996
2.1052001953125
3.02607421875
3.029296875
3.0309082031249996
3.029296875
3.0284912109374997
3.0309082031249996
3.0301025390625
3.0301025390625
3.0309082031249996
2.9527587890625
2.8657470703124996
2.7175048828125
2.6135742187499997
2.434716796875
3.029296875
3.0301025390625
3.029296875
3.027685546875
3.0301025390625
2.785986328125
1.6645019531249998
0.3150146484375
0.02578125
0.026586914062499998
0.027392578124999997
0.0322265625
0.024169921875
0.026586914062499998
0.026586914062499998
0.030615234374999998
0.043505859375
0.1409912109375
0.2360595703125
0.34160156249999996
0.43425292968749996
0.027392578124999997
0.026586914062499998
0.026586914062499998
0.023364257812499997
0.020947265625
0.21672363281249998
2.022216796875
3.029296875
3.027685546875
3.029296875
3.0284912109374997
3.029296875
3.0309082031249996
3.0284912109374997
3.0268798828124996
3.0301025390625
2.9495361328125
2.81982421875
2.7344238281249997
2.6441894531249996
2.3960449218749997
3.029296875
3.0325195312499997
3.027685546875
3.0301025390625
3.0309082031249996
2.85205078125
1.7579589843749999
0.7581298828124999
0.023364257812499997
0.026586914062499998
0.030615234374999998
0.02578125
0.026586914062499998
0.026586914062499998
0.02578125
0.022558593749999998
0.027392578124999997
0.02900390625
0.14421386718749998
0.270703125
0.026586914062499998
1.12470703125
2.1422607421874997
2.20107421875
2.13662109375
2.160791015625
2.160791015625
2.1454833984375
2.16884765625
1.8304687499999999
1.6379150390625
1.5645996093749999
1.5218994140625
1.5114257812499998
1.48564453125
1.4735595703125
1.46953125
1.4477783203124999
1.456640625
1.4703369140625
1.482421875
1.4912841796874998
1.5162597656249999
1.4598632812499999
1.2785888671874999
1.2423339843749999
1.1996337890625
1.2020507812499999
1.19560546875
1.219775390625
1.38896484375
1.5275390624999998
1.5927978515624999
1.6781982421875
1.6975341796874999
1.7233154296875
1.7329833984374998
1.72734375
1.7281494140625
1.7128417968749998
1.699951171875
1.687060546875
1.6854492187499999
1.5057861328125
1.6959228515625
1.8949218749999999
1.915869140625
1.9408447265625
1.9545410156249998
1.9521240234375
1.9392333984374999
1.6645019531249998
1.5275390624999998
1.4389160156249998
1.38896484375
1.377685546875
1.364794921875
1.3527099609375
1.3583496093749998
1.3752685546874999
1.3857421875
1.3768798828125
1.413134765625
1.4155517578124999
1.4228027343749998
1.5090087890625
1.2189697265625
1.1899658203124999
1.1867431640625
1.15048828125
1.1561279296875
1.164990234375
1.2769775390625
1.464697265625
1.55009765625
1.5968261718749999
1.6604736328124998
1.7015624999999999
1.7120361328125
1.7055908203124999
1.7007568359374998
1.7047851562499998
1.687060546875
1.662890625
1.6588623046875
1.6451660156249999
1.658056640625
1.8820312499999998
1.909423828125
1.920703125
1.9432617187499999
1.95615234375
2.018994140625
1.6886718749999998
1.53720703125
1.456640625
1.3978271484375
1.37607421875
1.3704345703124998
1.3583496093749998
0.027392578124999997
0.0604248046875
1.3502929687499998
1.461474609375
1.456640625
1.4800048828124999
1.477587890625
1.522705078125
1.2665039062499999
1.200439453125
1.1496826171874999
1.069921875
1.0094970703125
1.14404296875
1.2850341796875
1.4397216796874999
1.6056884765625
1.6806152343749998
1.7265380859375
1.748291015625
1.7781005859374999
1.7668212890625
1.7410400390624998
1.7394287109375
1.76279296875
1.735400390625
1.7120361328125
1.687060546875
1.6306640625
1.85625
1.9432617187499999
1.9730712890625
1.9682373046875
1.9666259765624998
1.977099609375
1.8135498046874998
1.577490234375
1.48564453125
1.4413330078125
1.4147460937499998
1.393798828125
1.3929931640625
1.3873535156249999
1.3825195312499998
1.37607421875
1.3784912109374998
1.393798828125
1.42119140625
1.3865478515624998
1.482421875
1.2995361328125
1.219775390625
1.190771484375
1.1706298828125
1.1416259765624999
1.1706298828125
1.3019531249999998
1.4268310546874998
1.5275390624999998
1.5919921874999998
1.64677734375
1.67900390625
1.7080078125
1.7096191406249999
1.69833984375
1.716064453125
1.699951171875
1.6798095703125
1.662890625
1.6524169921874998
1.60166015625
1.8062988281249999
1.893310546875
1.9198974609375
1.9384277343749998
1.93359375
1.94970703125
1.7829345703125
1.5927978515624999
1.4630859374999998
1.40830078125
1.3728515625
1.3664062499999998
1.35673828125
1.348681640625
1.364794921875
1.3623779296874998
1.3873535156249999
1.3921875
1.4228027343749998
1.4115234374999999
1.49853515625
1.353515625
1.2141357421874999
1.1939941406249999
1.1674072265625
1.1577392578124999
1.1641845703125
1.232666015625
1.3575439453125
1.49853515625
1.5766845703124999
1.62744140625
1.66611328125
1.7015624999999999
1.7039794921875
1.619384765625
1.65966796875
1.6951171875
1.6773925781249999
1.6564453124999998
1.6524169921874998
1.5637939453124998
1.7934082031249998
1.8908935546874999
1.9150634765624999
1.9432617187499999
1.93681640625
1.92392578125
1.8828369140624999
1.6056884765625
1.4961181640624999
1.4348876953124998
1.384130859375
1.3591552734374999
1.3502929687499998
1.3599609375
1.3672119140624999
1.3664062499999998
1.3688232421875
1.3921875
1.4058837890625
1.4171630859375
1.4791992187499998
1.3688232421875
1.229443359375
1.18271484375
1.1690185546875
1.158544921875
1.1609619140625
1.2439453125
1.3575439453125
1.4800048828124999
1.585546875
1.6266357421875
1.6612792968749999
1.6927001953124998
1.7007568359374998
1.7104248046875
1.7072021484375
1.6935058593749999
1.683837890625
1.6669189453125
1.64677734375
1.5863525390625
1.706396484375
1.8892822265625
1.91748046875
1.9271484374999999
1.9360107421875
1.9279541015625
1.8715576171875
1.6991455078125
1.5001464843749999
1.4276367187499999
1.4123291015625
1.37607421875
1.3752685546874999
1.3672119140624999
1.368017578125
1.36962890625
1.3849365234375
1.3954101562499999
1.3913818359374999
1.40830078125
1.4268310546874998
1.3768798828125
1.2399169921875
1.19560546875
1.173046875
1.15048828125
1.148876953125
1.1947998046875
1.3551269531249999
1.4735595703125
1.5525146484374999
1.6266357421875
1.658056640625
1.6846435546874998
1.69833984375
1.7055908203124999
1.7007568359374998
1.6951171875
1.690283203125
1.6701416015625
1.6524169921874998
1.5831298828125
1.7023681640625
1.85625
1.8949218749999999
1.9247314453125
1.9303710937499998
1.9295654296875
1.8747802734374999
1.6645019531249998
1.5364013671874999
1.4300537109375
1.400244140625
1.380908203125
1.36962890625
1.37607421875
1.3599609375
1.3559326171875
1.3656005859375
1.3817138671875
1.3986328124999998
1.4139404296875
1.4244140625
1.4510009765624998
1.271337890625
1.1964111328125
1.1802978515625
1.1617675781249999
1.1690185546875
1.1964111328125
1.300341796875
1.4501953125
1.542041015625
1.590380859375
1.6379150390625
1.6846435546874998
1.703173828125
1.6991455078125
1.706396484375
1.6991455078125
1.6781982421875
1.6653076171874999
1.6564453124999998
1.6435546875
1.619384765625
1.8578613281249998
1.9029785156249999
1.920703125
1.9384277343749998
1.9327880859375
1.9247314453125
1.7007568359374998
1.55009765625
1.4590576171874998
1.4139404296875
1.3728515625
1.3607666015625
1.351904296875
1.3559326171875
1.3623779296874998
1.3639892578125
1.3792968749999999
1.3905761718749998
1.4115234374999999
1.4187744140624998
1.4638916015624999
1.2898681640624998
1.2101074218749999
1.1698242187499999
1.1593505859375
1.1529052734375
1.1786865234375
1.2955078125
1.429248046875
1.52109375
1.5992431640625
1.6459716796875
1.6717529296875
1.7015624999999999
1.69833984375
1.6975341796874999
1.7023681640625
1.6806152343749998
1.6725585937499998
1.65966796875
1.6459716796875
1.6072998046875
1.8095214843749998
1.8957275390625
1.9223144531249998
1.92392578125
1.9279541015625
1.9279541015625
1.7611816406249998
1.5839355468749998
1.4590576171874998
1.4042724609375
1.3792968749999999
1.3623779296874998
1.3559326171875
1.3470703124999999
1.3551269531249999
1.3801025390625
1.3865478515624998
1.40185546875
1.4195800781249999
1.4228027343749998
1.4791992187499998
1.297119140625
1.2173583984375
1.1794921875
1.1641845703125
1.1496826171874999
1.1674072265625
1.2568359375
1.4155517578124999
1.5114257812499998
1.5895751953125
1.6435546875
1.6717529296875
1.69833984375
1.7023681640625
1.703173828125
1.706396484375
1.6822265625
1.6653076171874999
1.667724609375
1.64677734375
1.5944091796875
1.7926025390625
1.883642578125
1.9134521484375
1.9400390625
1.9360107421875
1.9142578124999998
1.7781005859374999
1.60166015625
1.5017578125
1.4171630859375
1.3865478515624998
1.364794921875
1.3527099609375
1.348681640625
1.3502929687499998
1.3502929687499998
1.3825195312499998
1.38896484375
1.4147460937499998
1.432470703125
1.4888671875
1.3559326171875
1.2157470703125
1.1859374999999999
1.168212890625
1.1496826171874999
1.1561279296875
1.2544189453124999
1.3575439453125
1.5122314453124999
1.5807128906249999
1.6282470703124998
1.6604736328124998
1.6927001953124998
1.7023681640625
1.6975341796874999
1.69189453125
1.6822265625
1.6765869140624998
1.6612792968749999
1.6604736328124998
1.585546875
1.7080078125
1.8884765625
1.9053955078125
1.928759765625
1.9352050781249999
1.9190917968749999
1.8683349609375
1.63388671875
1.5057861328125
1.4276367187499999
1.397021484375
1.3744628906249998
1.3639892578125
1.3559326171875
1.3591552734374999
1.3583496093749998
1.364794921875
1.3825195312499998
1.3962158203125
1.4107177734374998
1.384130859375
1.364794921875
1.2399169921875
1.190771484375
1.1666015625
1.16015625
1.1674072265625
1.24716796875
1.3631835937499999
1.4735595703125
1.554931640625
1.6379150390625
1.6685302734374998
1.6806152343749998
1.6967285156249998
1.6991455078125
1.7096191406249999
1.6943115234375
1.6765869140624998
1.6620849609375
1.6556396484375
1.5782958984375
1.7176757812499999
1.8651123046875
1.9118408203125
1.9343994140624998
1.9295654296875
1.931982421875
1.8473876953125
1.6435546875
1.5162597656249999
1.4203857421875
1.384130859375
1.3664062499999998
1.3607666015625
1.3543212890624998
1.3551269531249999
1.37607421875
1.377685546875
1.3897705078125
1.3954101562499999
1.4147460937499998
1.429248046875
1.4373046875
1.2479736328125
1.1964111328125
1.174658203125
1.1529052734375
1.1706298828125
1.2020507812499999
1.31162109375
1.4687255859375
1.5557373046874998
1.6081054687499998
1.6620849609375
1.6910888671875
1.6991455078125
1.7047851562499998
1.7055908203124999
1.69189453125
1.6846435546874998
1.6645019531249998
1.6508056640625
1.6371093749999999
1.7096191406249999
1.8626953124999999
1.8989501953124999
1.9360107421875
1.93681640625
1.9295654296875
1.920703125
1.674169921875
1.533984375
1.4606689453125
1.3994384765624999
1.3720458984375
1.368017578125
1.3664062499999998
1.34384765625
1.3639892578125
1.364794921875
1.3994384765624999
1.3954101562499999
1.40185546875
1.42119140625
1.4445556640625
1.2745605468749999
1.2101074218749999
1.1867431640625
1.15693359375
1.1561279296875
1.2101074218749999
1.3092041015625
1.4195800781249999
1.542041015625
1.603271484375
1.635498046875
1.6822265625
1.6975341796874999
1.69833984375
1.7080078125
1.6951171875
1.6798095703125
1.6717529296875
1.6524169921874998
1.6459716796875
1.6298583984375
1.786962890625
1.9078125
1.9231201171874999
1.9327880859375
1.931982421875
1.9231201171874999
1.76279296875
1.542041015625
1.46630859375
1.4123291015625
1.37607421875
1.3631835937499999
1.3543212890624998
1.35673828125
1.3583496093749998
1.3639892578125
1.377685546875
1.3913818359374999
1.405078125
1.4139404296875
1.4558349609374999
1.2834228515625
1.2076904296875
1.1770751953125
1.152099609375
1.1529052734375
1.1722412109375
1.303564453125
1.426025390625
1.529150390625
1.587158203125
1.6475830078125
1.6814208984374999
1.6943115234375
1.7055908203124999
1.7015624999999999
1.703173828125
1.690283203125
1.6645019531249998
1.65
1.6532226562499999
1.603271484375
1.796630859375
1.8844482421875
1.9223144531249998
1.9343994140624998
1.9456787109375
1.9279541015625
1.7345947265625
1.5734619140625
1.4550292968749998
1.40830078125
1.384130859375
1.36962890625
1.3575439453125
1.3559326171875
1.3543212890624998
1.3736572265625
1.3865478515624998
1.4010498046875
1.405078125
1.4171630859375
1.48564453125
1.3446533203125
1.2060791015624999
1.184326171875
1.15693359375
1.16337890625
1.168212890625
1.2584472656249999
1.3744628906249998
1.5114257812499998
1.5879638671874998
1.63388671875
1.6645019531249998
1.6959228515625
