1.3801025390625
1.3897705078125
1.4026611328124998
1.4147460937499998
1.4236083984374999
1.4228027343749998
1.482421875
1.4332763671875
1.252001953125
1.2286376953125
1.2125244140625
1.200439453125
1.21171875
1.2834228515625
1.397021484375
1.5001464843749999
1.571044921875
1.6177734375
1.6435546875
1.6773925781249999
1.6927001953124998
1.6806152343749998
1.6822265625
1.66611328125
1.658056640625
1.64677734375
1.6435546875
1.58232421875
1.7265380859375
1.8425537109374999
1.8699462890624998
1.88525390625
1.8908935546874999
1.8699462890624998
1.7974365234374998
1.5992431640625
1.4888671875
1.4300537109375
1.3881591796875
1.3736572265625
1.3704345703124998
1.3817138671875
1.3768798828125
1.3849365234375
1.3994384765624999
1.405078125
1.4147460937499998
1.4300537109375
1.4638916015624999
1.4348876953124998
1.2930908203125
1.2350830078125
1.2141357421874999
1.2052734375
1.20849609375
1.2665039062499999
1.3502929687499998
1.4574462890625
1.5734619140625
1.6081054687499998
1.651611328125
1.6830322265625
1.6894775390624999
1.683837890625
1.6765869140624998
1.6749755859375
1.6532226562499999
1.658056640625
1.638720703125
1.587158203125
1.6443603515624998
1.8506103515624999
1.8715576171875
1.88525390625
1.88525390625
1.8812255859375
1.8473876953125
1.6459716796875
1.490478515625
1.4356933593749999
1.3978271484375
1.3833251953124999
1.3728515625
1.3664062499999998
1.3817138671875
1.38896484375
1.3881591796875
1.4091064453125
1.4147460937499998
1.4389160156249998
1.4389160156249998
1.4429443359374998
1.2898681640624998
1.2455566406249998
1.222998046875
1.2093017578125
1.219775390625
1.2157470703125
1.3446533203125
1.4518066406249999
1.545263671875
1.6129394531249999
1.638720703125
1.667724609375
1.6886718749999998
1.6943115234375
1.6822265625
1.667724609375
1.6645019531249998
1.6524169921874998
1.6371093749999999
1.6040771484374998
1.6314697265625
1.803076171875
1.8618896484374998
1.8788085937499999
1.8812255859375
1.8683349609375
1.8707519531249999
1.670947265625
1.5315673828124998
1.432470703125
1.3994384765624999
1.3865478515624998
1.3817138671875
1.36962890625
1.3825195312499998
1.3913818359374999
1.3905761718749998
1.4091064453125
1.4187744140624998
1.4203857421875
1.4332763671875
1.5025634765625
1.297119140625
1.2511962890625
1.2254150390625
1.203662109375
1.20849609375
1.2270263671875
1.3124267578125
1.4477783203124999
1.5380126953125
1.59521484375
1.6459716796875
1.6612792968749999
1.6822265625
1.6886718749999998
1.683837890625
1.6701416015625
1.658056640625
1.6451660156249999
1.63388671875
1.6314697265625
1.6089111328124999
1.7982421874999999
1.8602783203125
1.877197265625
1.8763916015625
1.8763916015625
1.8739746093749998
1.714453125
1.55009765625
1.4719482421874999
1.405078125
1.377685546875
1.3873535156249999
1.3712402343749999
1.3801025390625
1.380908203125
1.3849365234375
1.4107177734374998
1.4195800781249999
1.42119140625
1.4356933593749999
1.5017578125
1.3446533203125
1.248779296875
1.2262207031249999
1.21171875
1.206884765625
1.2181640624999999
1.31162109375
1.400244140625
1.5347900390625
1.5887695312499999
1.635498046875
1.6636962890625
1.6894775390624999
1.6894775390624999
1.6806152343749998
1.66611328125
1.6540283203125
1.6645019531249998
1.65
1.6250244140624999
1.554931640625
1.7974365234374998
1.85947265625
1.8796142578125
1.88525390625
1.8820312499999998
1.89169921875
1.7845458984375
1.5492919921875
1.4606689453125
1.416357421875
1.3784912109374998
1.3849365234375
1.37607421875
1.3704345703124998
1.3801025390625
1.38896484375
1.405078125
1.4115234374999999
1.4252197265625
1.4284423828125
1.5122314453124999
1.3551269531249999
1.2616699218749998
1.22783203125
1.2060791015624999
1.2044677734375
1.2141357421874999
1.3011474609375
1.3986328124999998
1.506591796875
1.5662109375
1.62744140625
1.6443603515624998
1.6733642578124999
1.69189453125
1.6798095703125
1.687060546875
1.6685302734374998
1.6556396484375
1.64677734375
1.62744140625
1.5589599609375
1.7184814453125
1.84013671875
1.8820312499999998
1.8860595703124998
1.8860595703124998
1.8763916015625
1.8062988281249999
1.6089111328124999
1.496923828125
1.4195800781249999
1.38896484375
1.3817138671875
1.3728515625
1.37607421875
1.3768798828125
1.393798828125
1.3946044921874998
1.409912109375
1.4187744140624998
1.426025390625
1.4687255859375
1.4332763671875
1.2673095703125
1.2262207031249999
1.2189697265625
1.1980224609374999
1.206884765625
1.26005859375
1.3631835937499999
1.506591796875
1.5734619140625
1.6153564453125
1.6556396484375
1.6773925781249999
1.6862548828125
1.6846435546874998
1.6685302734374998
1.670947265625
1.65966796875
1.6443603515624998
1.6435546875
1.5791015625
1.7176757812499999
1.8441650390625
1.8635009765625
1.8755859375
1.880419921875
1.8602783203125
1.9013671875
1.6161621093749998
1.5033691406249998
1.4445556640625
1.3946044921874998
1.3833251953124999
1.3736572265625
1.3720458984375
1.3744628906249998
1.384130859375
1.3962158203125
1.4123291015625
1.4195800781249999
1.4171630859375
1.46953125
1.4429443359374998
1.2906738281249999
1.224609375
1.2109130859375
1.2101074218749999
1.2181640624999999
1.252001953125
1.3510986328124999
1.458251953125
1.5589599609375
1.6089111328124999
1.6532226562499999
1.6725585937499998
1.6806152343749998
1.6886718749999998
1.6717529296875
1.66611328125
1.6524169921874998
1.6483886718749998
1.625830078125
1.5960205078124998
1.6306640625
1.8336914062499998
1.864306640625
1.8844482421875
1.8925048828125
1.8659179687499998
1.8715576171875
1.690283203125
1.5090087890625
1.442138671875
1.40185546875
1.3825195312499998
1.3744628906249998
1.37607421875
1.3849365234375
1.3881591796875
1.3954101562499999
1.3994384765624999
1.4195800781249999
1.426025390625
1.4373046875
1.456640625
1.2938964843749998
1.239111328125
1.2181640624999999
1.198828125
1.21494140625
1.216552734375
1.348681640625
1.4526123046875
1.5404296874999999
1.6153564453125
1.6475830078125
1.65966796875
1.6927001953124998
1.6878662109375
1.6798095703125
1.6701416015625
1.6636962890625
1.651611328125
1.635498046875
1.606494140625
1.6048828124999999
1.7958251953125
1.861083984375
1.8780029296874998
1.8884765625
1.8739746093749998
1.8707519531249999
1.7072021484375
1.5605712890624999
1.4445556640625
1.4058837890625
1.3833251953124999
1.3728515625
1.3623779296874998
1.3736572265625
1.3817138671875
1.393798828125
1.4066894531249998
1.4236083984374999
1.429248046875
1.4397216796874999
1.4953124999999998
1.2995361328125
1.2383056640624999
1.2157470703125
1.2020507812499999
1.2101074218749999
1.2141357421874999
1.3172607421875
1.4558349609374999
1.5355957031249998
1.5927978515624999
1.6290527343749999
1.6556396484375
1.6854492187499999
1.69833984375
1.6773925781249999
1.67578125
1.6669189453125
1.6459716796875
1.6395263671875
1.62744140625
1.571044921875
1.8054931640624998
1.8626953124999999
1.8731689453125
1.8820312499999998
1.8820312499999998
1.8868652343749999
1.7120361328125
1.5597656249999998
1.4703369140625
1.4034667968749999
1.3792968749999999
1.3664062499999998
1.36962890625
1.3825195312499998
1.3881591796875
1.3897705078125
1.4010498046875
1.4147460937499998
1.4284423828125
1.432470703125
1.5017578125
1.351904296875
1.2584472656249999
1.2262207031249999
1.2109130859375
1.2052734375
1.21494140625
1.2995361328125
1.4139404296875
1.5025634765625
1.5919921874999998
1.6290527343749999
1.6556396484375
1.6781982421875
1.6935058593749999
1.6846435546874998
1.6636962890625
1.6693359374999999
1.651611328125
1.6371093749999999
1.6306640625
1.5605712890624999
1.732177734375
1.85947265625
1.8659179687499998
1.8763916015625
1.883642578125
1.8828369140624999
1.803076171875
1.6072998046875
1.4759765624999999
1.4284423828125
1.3881591796875
1.37607421875
1.3736572265625
1.3801025390625
1.3817138671875
1.393798828125
1.3929931640625
1.4123291015625
1.4268310546874998
1.426025390625
1.4759765624999999
1.3704345703124998
1.2584472656249999
1.2350830078125
1.20849609375
1.197216796875
1.2181640624999999
1.2737548828124998
1.3994384765624999
1.5033691406249998
1.5662109375
1.6330810546874999
1.6540283203125
1.683837890625
1.6943115234375
1.6798095703125
1.687060546875
1.6669189453125
1.654833984375
1.651611328125
1.638720703125
1.558154296875
1.7233154296875
1.848193359375
1.869140625
1.8796142578125
1.8868652343749999
1.8763916015625
1.7926025390625
1.5968261718749999
1.4953124999999998
1.4195800781249999
1.393798828125
1.377685546875
1.3801025390625
1.3744628906249998
1.3849365234375
1.377685546875
1.3962158203125
1.4107177734374998
1.413134765625
1.4389160156249998
1.4759765624999999
1.4437499999999999
1.2665039062499999
1.24716796875
1.2141357421874999
1.203662109375
1.2093017578125
1.2616699218749998
1.3599609375
1.49853515625
1.5678222656249998
1.6000488281249998
1.6532226562499999
1.6814208984374999
1.690283203125
1.6806152343749998
1.670947265625
1.658056640625
1.654833984375
1.6346923828125
1.6395263671875
1.59521484375
1.71123046875
1.8409423828125
1.861083984375
1.8707519531249999
1.8820312499999998
1.8755859375
1.8731689453125
1.6314697265625
1.5017578125
1.432470703125
1.405078125
1.38896484375
1.380908203125
1.3784912109374998
1.3768798828125
1.380908203125
1.3954101562499999
1.400244140625
1.4123291015625
1.4219970703125
1.4622802734375
1.44052734375
1.2955078125
1.2342773437499999
1.2157470703125
1.2012451171875
1.2060791015624999
1.2777832031249998
1.3502929687499998
1.4590576171874998
1.558154296875
1.6129394531249999
1.6395263671875
1.6701416015625
1.6894775390624999
1.6806152343749998
1.6830322265625
1.6701416015625
1.6556396484375
1.65
1.6403320312499998
1.611328125
1.635498046875
1.8103271484374999
1.861083984375
1.8755859375
1.8844482421875
1.8780029296874998
1.85947265625
1.6701416015625
1.4953124999999998
1.43408203125
1.3978271484375
1.384130859375
1.3728515625
1.377685546875
1.3712402343749999
1.380908203125
1.4034667968749999
1.40830078125
1.4171630859375
1.426025390625
1.4413330078125
1.5009521484375
1.2938964843749998
1.2374999999999998
1.2189697265625
1.20849609375
1.216552734375
1.219775390625
1.3446533203125
1.456640625
1.5428466796875
1.5968261718749999
1.6459716796875
1.6773925781249999
1.6886718749999998
1.6822265625
1.674169921875
1.6725585937499998
1.6540283203125
1.654833984375
1.635498046875
1.625830078125
1.6161621093749998
1.7901855468749999
1.8570556640625
1.877197265625
1.8828369140624999
1.8780029296874998
1.8820312499999998
1.714453125
1.554931640625
1.4711425781249998
1.40830078125
1.380908203125
1.377685546875
1.3792968749999999
1.3752685546874999
1.3825195312499998
1.3929931640625
1.4066894531249998
1.4123291015625
1.4252197265625
1.4356933593749999
1.5025634765625
1.3494873046875
1.2447509765625
1.21494140625
1.2012451171875
1.2101074218749999
1.219775390625
1.3100097656249998
1.4091064453125
1.533984375
1.5944091796875
1.635498046875
1.6669189453125
1.6814208984374999
1.683837890625
1.687060546875
1.6733642578124999
1.6604736328124998
1.6483886718749998
1.6403320312499998
1.6346923828125
1.5589599609375
1.79501953125
1.8578613281249998
1.877197265625
1.8812255859375
1.8731689453125
1.8755859375
1.7926025390625
1.5597656249999998
1.46630859375
1.4195800781249999
1.38896484375
1.3833251953124999
1.3672119140624999
1.3801025390625
1.3744628906249998
1.3897705078125
1.4010498046875
1.4123291015625
1.4187744140624998
1.4300537109375
1.5041748046874999
1.3631835937499999
1.2608642578125
1.22138671875
1.21171875
1.206884765625
1.216552734375
1.3067871093749999
1.4042724609375
1.5090087890625
1.5879638671874998
1.6218017578125
1.651611328125
1.6894775390624999
1.690283203125
1.6806152343749998
1.6822265625
1.6612792968749999
1.658056640625
1.6435546875
1.6242187499999998
1.5565429687499999
1.7289550781249998
1.8498046874999998
1.8747802734374999
1.8796142578125
1.877197265625
1.85625
1.815966796875
1.6169677734374999
1.4751708984374998
1.4228027343749998
1.38896484375
1.3768798828125
1.377685546875
1.3744628906249998
1.380908203125
1.3905761718749998
1.397021484375
1.3994384765624999
1.4252197265625
1.4373046875
1.4711425781249998
1.3672119140624999
1.2528076171875
1.235888671875
1.213330078125
1.2101074218749999
1.213330078125
1.26328125
1.4026611328124998
1.5017578125
1.5702392578125
1.63388671875
1.658056640625
1.6822265625
1.687060546875
1.6798095703125
1.6773925781249999
1.6669189453125
1.6556396484375
1.64677734375
1.635498046875
1.561376953125
1.7184814453125
1.828857421875
1.8522216796875
1.8812255859375
1.8812255859375
1.8699462890624998
1.819189453125
1.6330810546874999
1.496923828125
1.4252197265625
1.3986328124999998
1.3929931640625
1.3712402343749999
1.3744628906249998
1.3736572265625
1.3905761718749998
1.400244140625
1.4074951171874999
1.416357421875
1.4300537109375
1.46630859375
1.4364990234375
1.2906738281249999
1.2383056640624999
1.2173583984375
1.2052734375
1.2189697265625
1.2608642578125
1.3559326171875
1.5057861328125
1.5718505859374998
1.6169677734374999
1.654833984375
1.67900390625
1.6878662109375
1.6830322265625
1.6773925781249999
1.662890625
1.658056640625
1.6451660156249999
1.635498046875
1.603271484375
1.6282470703124998
1.8336914062499998
1.851416015625
1.8747802734374999
1.8828369140624999
1.8715576171875
1.864306640625
1.641943359375
1.5090087890625
1.4493896484375
1.3978271484375
1.3849365234375
1.380908203125
1.37607421875
1.3784912109374998
1.37607421875
1.393798828125
1.409912109375
1.4228027343749998
1.4195800781249999
1.4348876953124998
1.442138671875
1.2955078125
1.2447509765625
1.2157470703125
1.203662109375
1.2101074218749999
1.2568359375
1.353515625
1.4703369140625
1.5525146484374999
1.611328125
1.6524169921874998
1.6564453124999998
1.6878662109375
1.6765869140624998
1.6725585937499998
1.662890625
1.65966796875
1.6475830078125
1.6346923828125
1.603271484375
1.619384765625
1.7772949218749998
1.8618896484374998
1.8820312499999998
1.8844482421875
1.880419921875
1.8707519531249999
1.716064453125
1.5525146484374999
1.4397216796874999
1.409912109375
1.380908203125
1.37607421875
1.3801025390625
1.3720458984375
1.380908203125
1.3986328124999998
1.3994384765624999
1.4244140625
1.4252197265625
1.4356933593749999
1.506591796875
1.300341796875
1.24072265625
1.2205810546875
1.203662109375
1.2012451171875
1.2101074218749999
1.313232421875
1.4501953125
1.5412353515625
1.6008544921874999
1.6443603515624998
1.6636962890625
1.6798095703125
1.6886718749999998
1.67900390625
1.6701416015625
1.654833984375
1.6483886718749998
1.638720703125
1.6266357421875
1.611328125
1.8022705078124999
1.85947265625
1.8763916015625
1.8755859375
1.8755859375
1.8618896484374998
1.7208984374999998
1.5517089843749998
1.46953125
1.4034667968749999
1.3881591796875
1.36962890625
1.3656005859375
1.3664062499999998
1.3929931640625
1.393798828125
1.4107177734374998
1.4115234374999999
1.4252197265625
1.44052734375
1.4945068359375
1.348681640625
1.2423339843749999
1.2173583984375
1.1931884765625
1.2060791015624999
1.219775390625
1.3140380859374998
1.416357421875
1.5283447265624999
1.5911865234375
1.6371093749999999
1.6636962890625
1.6862548828125
1.6781982421875
1.6814208984374999
1.6733642578124999
1.6612792968749999
1.6636962890625
1.6322753906249998
1.62744140625
1.5605712890624999
1.7893798828124998
1.85302734375
1.877197265625
1.8908935546874999
1.8747802734374999
1.8626953124999999
1.8038818359375
1.5645996093749999
1.4671142578124998
1.42119140625
1.3954101562499999
1.3825195312499998
1.3728515625
1.368017578125
1.3728515625
1.38896484375
1.3978271484375
1.4074951171874999
1.4187744140624998
1.4268310546874998
1.4945068359375
1.3494873046875
1.26005859375
1.2374999999999998
1.2262207031249999
1.213330078125
1.219775390625
1.300341796875
1.4058837890625
1.5114257812499998
1.5782958984375
1.6250244140624999
1.6540283203125
1.6781982421875
1.6935058593749999
1.6862548828125
1.6781982421875
1.6620849609375
1.6483886718749998
1.6443603515624998
1.6290527343749999
1.5662109375
1.7281494140625
1.843359375
1.8715576171875
1.8739746093749998
1.8796142578125
1.8570556640625
1.8175781249999998
1.6201904296874998
1.4783935546875
1.4147460937499998
1.3897705078125
1.3768798828125
1.3672119140624999
1.377685546875
1.3792968749999999
1.3881591796875
1.3986328124999998
1.405078125
1.4228027343749998
1.4284423828125
1.4711425781249998
1.426025390625
1.2656982421874998
1.2350830078125
1.2093017578125
1.206884765625
1.2205810546875
1.264892578125
1.3986328124999998
1.5025634765625
1.5718505859374998
1.6153564453125
1.641943359375
1.67578125
1.6894775390624999
1.6854492187499999
1.6773925781249999
1.6645019531249998
1.6612792968749999
1.64677734375
1.6306640625
1.5847412109374999
1.7265380859375
1.848193359375
1.864306640625
1.8747802734374999
1.8812255859375
1.867529296875
1.80791015625
1.6177734375
1.4993408203124998
1.445361328125
1.393798828125
1.3752685546874999
1.3792968749999999
1.3784912109374998
1.3752685546874999
1.38896484375
1.3865478515624998
1.393798828125
1.4074951171874999
1.4195800781249999
1.4590576171874998
1.43408203125
1.2938964843749998
1.2415283203124998
1.2302490234374999
1.21171875
1.2205810546875
1.2592529296875
1.3583496093749998
1.4703369140625
1.5726562499999999
1.6322753906249998
1.6459716796875
1.65966796875
1.6733642578124999
1.6822265625
1.6806152343749998
1.6645019531249998
1.6588623046875
1.65
1.6290527343749999
1.6000488281249998
1.6282470703124998
1.8385253906249999
1.8699462890624998
1.8876708984375
1.8788085937499999
1.8747802734374999
1.8667236328124999
1.6894775390624999
1.513037109375
1.44052734375
1.405078125
1.38896484375
1.37607421875
1.3672119140624999
1.3825195312499998
1.3857421875
1.4026611328124998
1.4026611328124998
1.4155517578124999
1.4244140625
1.4300537109375
1.4461669921875
1.3148437499999999
1.2503906249999999
1.2173583984375
1.2052734375
1.2093017578125
1.219775390625
1.3478759765625
1.4493896484375
1.529150390625
1.6137451171875
1.64677734375
1.6733642578124999
1.690283203125
1.6773925781249999
1.6830322265625
1.6749755859375
1.6588623046875
1.6540283203125
1.6346923828125
1.6072998046875
1.6234130859375
1.8095214843749998
1.8667236328124999
1.8812255859375
1.8820312499999998
1.8739746093749998
1.87236328125
1.7015624999999999
1.5476806640624998
1.4493896484375
1.4107177734374998
1.3921875
1.37607421875
1.377685546875
1.380908203125
1.3801025390625
1.3946044921874998
1.400244140625
1.4187744140624998
1.4276367187499999
1.4316650390624999
1.5001464843749999
1.3043701171875
1.2616699218749998
1.2254150390625
1.2012451171875
1.1931884765625
1.206884765625
1.303564453125
1.4542236328125
1.5476806640624998
1.5944091796875
1.6346923828125
1.6524169921874998
1.6886718749999998
1.6967285156249998
1.690283203125
1.6814208984374999
1.670947265625
1.6556396484375
1.6483886718749998
1.6298583984375
1.5927978515624999
1.7813232421874998
1.8554443359375
1.869140625
1.883642578125
1.8780029296874998
1.8763916015625
1.7072021484375
1.55009765625
1.4630859374999998
1.4042724609375
1.3801025390625
1.393798828125
1.3905761718749998
1.3946044921874998
1.4042724609375
1.409912109375
1.40830078125
1.4123291015625
1.3978271484375
1.416357421875
1.5017578125
1.3470703124999999
1.252001953125
1.216552734375
1.1899658203124999
1.1996337890625
1.216552734375
1.2947021484374999
1.4034667968749999
1.5315673828124998
1.5895751953125
1.6411376953124999
1.66611328125
1.7015624999999999
1.6967285156249998
1.6854492187499999
1.6814208984374999
1.6564453124999998
1.6483886718749998
1.6209960937499999
1.6201904296874998
1.56298828125
1.7523193359375
1.8699462890624998
1.8788085937499999
1.8900878906249998
1.8876708984375
1.8925048828125
1.7772949218749998
1.53720703125
1.4606689453125
1.4123291015625
1.3946044921874998
1.3913818359374999
1.3583496093749998
1.3494873046875
1.3817138671875
1.38896484375
1.4010498046875
1.4147460937499998
1.4413330078125
1.4381103515625
1.506591796875
1.353515625
1.2374999999999998
1.2060791015624999
1.2109130859375
1.2221923828124999
1.2221923828124999
1.3100097656249998
1.4139404296875
1.5122314453124999
1.574267578125
1.6290527343749999
1.6620849609375
1.6894775390624999
1.699951171875
1.6951171875
1.6749755859375
1.6483886718749998
1.6346923828125
1.6491943359374999
1.6322753906249998
1.5637939453124998
1.7337890624999999
1.8425537109374999
1.8739746093749998
1.896533203125
1.88525390625
1.9062011718749998
1.7877685546875
1.5887695312499999
1.4864501953125
1.4187744140624998
1.3849365234375
1.3929931640625
1.3551269531249999
1.364794921875
1.3744628906249998
1.3873535156249999
1.4042724609375
1.3994384765624999
1.3962158203125
1.4123291015625
1.4711425781249998
1.4300537109375
1.2592529296875
1.224609375
1.219775390625
1.216552734375
1.1996337890625
1.2576416015624998
1.3430419921874999
1.4993408203124998
1.5718505859374998
1.6306640625
1.6846435546874998
1.7136474609374999
1.7096191406249999
1.6846435546874998
1.6693359374999999
1.6459716796875
1.6451660156249999
1.6427490234375
1.6451660156249999
1.5927978515624999
1.7337890624999999
1.85302734375
1.8651123046875
1.8739746093749998
1.8812255859375
1.883642578125
1.851416015625
1.5758789062499998
1.4598632812499999
1.4107177734374998
1.3921875
1.3986328124999998
1.3905761718749998
1.36962890625
1.4058837890625
1.413134765625
1.3792968749999999
1.3962158203125
1.4397216796874999
1.4638916015624999
1.4719482421874999
1.4300537109375
1.2665039062499999
1.197216796875
1.174658203125
1.1923828125
1.2101074218749999
1.287451171875
1.3527099609375
1.4800048828124999
1.5782958984375
1.622607421875
1.6508056640625
1.6854492187499999
1.683837890625
1.6749755859375
1.6798095703125
1.6765869140624998
1.654833984375
1.6451660156249999
1.6508056640625
1.6322753906249998
1.662890625
1.8828369140624999
1.8755859375
1.8707519531249999
1.848193359375
1.8111328125
1.8167724609375
1.64677734375
1.5057861328125
1.4590576171874998
1.400244140625
1.3712402343749999
1.3704345703124998
1.3728515625
1.3849365234375
1.3954101562499999
1.4147460937499998
1.4228027343749998
1.4300537109375
1.4284423828125
1.4300537109375
1.4397216796874999
1.2947021484374999
1.2366943359375
1.2109130859375
1.2423339843749999
1.2399169921875
1.2350830078125
1.3309570312499999
1.4364990234375
1.5243164062499999
1.5791015625
1.6137451171875
1.67900390625
1.71123046875
1.6894775390624999
1.6959228515625
1.6822265625
1.65
1.6459716796875
1.651611328125
1.6072998046875
1.622607421875
1.8054931640624998
1.87236328125
1.883642578125
1.877197265625
1.8747802734374999
1.8731689453125
1.6717529296875
1.5364013671874999
1.445361328125
1.3946044921874998
1.384130859375
1.37607421875
1.3736572265625
1.37607421875
1.380908203125
1.3913818359374999
1.4058837890625
1.3978271484375
1.4389160156249998
1.4501953125
1.5275390624999998
1.3559326171875
1.229443359375
1.206884765625
1.1915771484375
1.1786865234375
1.2262207031249999
1.3253173828125
1.4518066406249999
1.52109375
1.5847412109374999
1.6451660156249999
1.67578125
1.7047851562499998
1.6830322265625
1.683837890625
1.6620849609375
1.6451660156249999
1.6282470703124998
1.6306640625
1.6483886718749998
1.6056884765625
1.8256347656249998
1.8683349609375
1.85625
1.8344970703124999
1.8304687499999999
1.89169921875
1.7394287109375
1.546875
1.477587890625
1.4252197265625
1.3736572265625
1.3728515625
1.3792968749999999
1.3728515625
1.3817138671875
1.4147460937499998
1.4203857421875
1.4115234374999999
1.4493896484375
1.482421875
1.4977294921875
1.3083984375
1.2318603515625
1.1786865234375
1.1738525390624999
1.19560546875
1.2286376953125
1.31162109375
1.4236083984374999
1.525927734375
1.5911865234375
1.6306640625
1.662890625
1.703173828125
1.7039794921875
1.687060546875
1.6701416015625
1.6749755859375
1.674169921875
1.662890625
1.6451660156249999
1.5444580078124999
1.7490966796874998
1.85947265625
1.8385253906249999
1.861083984375
1.8715576171875
1.8506103515624999
1.7797119140625
1.6209960937499999
1.4791992187499998
1.4155517578124999
1.3897705078125
1.3744628906249998
1.3744628906249998
1.3736572265625
1.3728515625
1.38896484375
1.4010498046875
1.4042724609375
1.4187744140624998
1.448583984375
1.4840332031249999
1.3704345703124998
1.252001953125
1.2366943359375
1.21171875
1.1996337890625
1.20849609375
1.255224609375
1.3978271484375
1.5001464843749999
1.5799072265624998
1.7104248046875
1.7233154296875
1.7217041015624999
1.64677734375
1.6250244140624999
1.5791015625
1.6282470703124998
1.667724609375
1.6475830078125
1.61455078125
1.53076171875
1.72412109375
1.8667236328124999
1.9029785156249999
1.9086181640625
1.88525390625
1.8465820312499999
1.767626953125
1.6056884765625
1.5033691406249998
1.4115234374999999
1.3929931640625
1.3905761718749998
1.36962890625
1.3720458984375
1.3905761718749998
1.3954101562499999
1.4091064453125
1.4228027343749998
1.4236083984374999
1.4244140625
1.47275390625
1.405078125
1.2721435546875
1.2318603515625
1.235888671875
1.2366943359375
1.26328125
1.2866455078124999
1.3575439453125
1.5436523437499998
1.5557373046874998
1.5686279296874999
1.667724609375
1.6604736328124998
1.6491943359374999
1.6854492187499999
1.687060546875
1.67578125
1.6572509765624999
1.65
1.6322753906249998
1.585546875
1.7418457031249999
1.8393310546875
1.8755859375
1.8908935546874999
1.8949218749999999
1.9166748046875
1.8175781249999998
1.558154296875
1.4671142578124998
1.4244140625
1.3825195312499998
1.3881591796875
1.380908203125
1.3825195312499998
1.384130859375
1.3849365234375
1.3954101562499999
1.41796875
1.4236083984374999
1.429248046875
1.4606689453125
1.4493896484375
1.2979248046874998
1.2511962890625
1.2173583984375
1.190771484375
1.198828125
1.27939453125
1.3599609375
1.4630859374999998
1.5557373046874998
1.6121337890624998
1.64677734375
1.6733642578124999
1.6822265625
1.6781982421875
1.67900390625
1.67578125
1.6717529296875
1.6717529296875
1.6363037109374998
1.585546875
1.611328125
1.7821289062499999
1.8651123046875
1.8989501953124999
1.9086181640625
1.8538330078124998
1.8602783203125
1.6645019531249998
1.4791992187499998
1.4236083984374999
1.4187744140624998
1.426025390625
1.3978271484375
1.3849365234375
1.3833251953124999
1.377685546875
1.3881591796875
1.3865478515624998
1.4074951171874999
1.426025390625
1.4469726562499998
1.5678222656249998
1.3551269531249999
1.2342773437499999
1.174658203125
1.171435546875
1.1738525390624999
1.2028564453125
1.3599609375
1.4590576171874998
1.5299560546875
1.58232421875
1.638720703125
1.6765869140624998
1.7039794921875
1.687060546875
1.66611328125
1.6725585937499998
1.66611328125
1.6564453124999998
1.6371093749999999
1.6306640625
1.611328125
1.815966796875
1.8578613281249998
1.883642578125
1.8820312499999998
1.883642578125
1.9029785156249999
1.687060546875
1.538818359375
1.461474609375
1.413134765625
1.405078125
1.3913818359374999
1.3720458984375
1.3801025390625
1.3857421875
1.4195800781249999
1.43408203125
1.4187744140624998
1.4244140625
1.4139404296875
1.5138427734375
1.34384765625
1.26328125
1.235888671875
1.2044677734375
1.22138671875
1.2415283203124998
1.3365966796875
1.409912109375
1.5323730468749999
1.61455078125
1.6540283203125
1.6991455078125
1.7394287109375
1.7595703125
1.7466796875
1.7974365234374998
1.72412109375
1.6669189453125
1.6282470703124998
1.619384765625
1.513037109375
1.7974365234374998
1.8546386718749999
1.8715576171875
1.8755859375
1.867529296875
1.8908935546874999
1.7474853515625
1.529150390625
1.46953125
1.4461669921875
1.409912109375
1.3559326171875
1.33740234375
1.3462646484374998
1.3502929687499998
1.3865478515624998
1.4042724609375
1.3986328124999998
1.380908203125
1.3954101562499999
1.5251220703125
1.3502929687499998
1.2721435546875
1.232666015625
1.6403320312499998
1.5960205078124998
1.3857421875
1.3599609375
1.448583984375
1.538818359375
1.5927978515624999
1.5944091796875
1.5984375
1.651611328125
1.6604736328124998
1.6427490234375
1.6532226562499999
1.6177734375
1.603271484375
1.5863525390625
1.585546875
1.4550292968749998
1.7104248046875
1.8393310546875
1.85302734375
1.8860595703124998
1.8699462890624998
1.8949218749999999
1.7926025390625
1.5645996093749999
1.44052734375
1.40830078125
1.3857421875
1.3744628906249998
1.348681640625
1.3462646484374998
1.351904296875
1.384130859375
1.3873535156249999
1.3873535156249999
1.409912109375
1.4228027343749998
1.5186767578125
1.332568359375
1.232666015625
1.203662109375
1.1915771484375
1.18916015625
1.1964111328125
1.2608642578125
1.40830078125
1.5017578125
1.574267578125
1.62744140625
1.6314697265625
1.6733642578124999
1.6846435546874998
1.6725585937499998
1.6725585937499998
1.6564453124999998
1.654833984375
1.6540283203125
1.6403320312499998
1.4687255859375
1.71123046875
1.8506103515624999
1.8755859375
1.89169921875
1.89169921875
1.8812255859375
1.8441650390625
1.6048828124999999
1.4759765624999999
1.4187744140624998
1.3825195312499998
1.3639892578125
1.364794921875
1.3720458984375
1.393798828125
1.3857421875
1.4026611328124998
1.4123291015625
1.4066894531249998
1.41796875
1.5186767578125
1.4413330078125
1.2568359375
1.2342773437499999
1.219775390625
1.2020507812499999
1.200439453125
1.248779296875
1.345458984375
1.5090087890625
1.5782958984375
1.6185791015625
1.6475830078125
1.6854492187499999
1.6894775390624999
1.683837890625
1.662890625
1.6508056640625
1.6645019531249998
1.6411376953124999
1.635498046875
1.5146484375
1.6048828124999999
1.861083984375
1.8763916015625
1.883642578125
1.9142578124999998
1.9037841796875
1.9472900390624999
1.609716796875
1.47275390625
1.4276367187499999
1.38896484375
1.3712402343749999
1.3656005859375
1.3833251953124999
1.38896484375
1.405078125
1.3946044921874998
1.416357421875
1.4115234374999999
1.405078125
1.432470703125
1.464697265625
1.2624755859374999
1.2270263671875
1.19560546875
1.1947998046875
1.2020507812499999
1.2221923828124999
1.340625
1.4783935546875
1.5686279296874999
1.635498046875
1.6636962890625
1.6830322265625
1.67578125
1.6717529296875
1.6773925781249999
1.6725585937499998
1.65
1.6459716796875
1.6322753906249998
1.51787109375
1.5887695312499999
1.85302734375
1.877197265625
1.8707519531249999
1.88525390625
1.9013671875
1.9682373046875
1.6781982421875
1.5170654296875
1.4316650390624999
1.3994384765624999
1.3672119140624999
1.3752685546874999
1.3833251953124999
1.384130859375
1.400244140625
1.4244140625
1.4195800781249999
1.4034667968749999
1.4058837890625
1.4139404296875
1.6056884765625
1.276171875
1.2286376953125
1.2189697265625
1.1980224609374999
1.18916015625
1.1698242187499999
1.2834228515625
1.4550292968749998
1.5460693359375
1.6089111328124999
1.6314697265625
1.6290527343749999
1.6572509765624999
1.6395263671875
1.7523193359375
1.7217041015624999
1.6806152343749998
1.64677734375
1.625830078125
1.6282470703124998
1.5492919921875
1.8224121093749999
1.8844482421875
1.883642578125
1.8989501953124999
1.893310546875
2.0069091796875
1.7088134765624998
1.5315673828124998
1.4477783203124999
1.4058837890625
1.3688232421875
1.3736572265625
1.3623779296874998
1.3962158203125
1.3881591796875
1.3921875
1.4091064453125
1.41796875
1.4284423828125
1.4469726562499998
1.6806152343749998
1.32451171875
1.2254150390625
1.2060791015624999
1.1859374999999999
1.171435546875
1.1142333984375
1.24072265625
1.3954101562499999
1.5412353515625
1.5927978515624999
1.6266357421875
1.6363037109374998
1.7055908203124999
1.7055908203124999
1.683837890625
1.6733642578124999
1.65966796875
1.6532226562499999
1.6322753906249998
1.6250244140624999
1.3712402343749999
1.7990478515625
1.9013671875
1.8892822265625
1.8844482421875
1.8884765625
2.070556640625
1.8175781249999998
1.4832275390624998
1.429248046875
1.3954101562499999
1.3712402343749999
1.380908203125
1.3583496093749998
1.36962890625
1.400244140625
1.3857421875
1.397021484375
1.4155517578124999
1.4171630859375
1.4276367187499999
1.61455078125
1.327734375
1.1964111328125
1.2270263671875
1.1770751953125
1.1706298828125
1.1496826171874999
1.252001953125
1.40830078125
1.5404296874999999
1.5968261718749999
1.6443603515624998
1.6435546875
1.703173828125
1.7104248046875
1.6685302734374998
1.6588623046875
1.6612792968749999
1.6532226562499999
1.651611328125
1.6524169921874998
1.38896484375
1.7990478515625
1.909423828125
1.8731689453125
1.8796142578125
1.9086181640625
2.022216796875
1.8731689453125
1.577490234375
1.5154541015624998
1.380908203125
1.368017578125
1.3736572265625
1.3728515625
1.37607421875
1.40185546875
1.3897705078125
1.3929931640625
1.40830078125
1.41796875
1.44052734375
1.6524169921874998
1.4574462890625
1.203662109375
1.2141357421874999
1.1996337890625
1.17626953125
1.1537109374999999
1.206884765625
1.3382080078124998
1.5202880859374999
1.59521484375
1.6185791015625
1.6459716796875
1.6781982421875
1.7015624999999999
1.6781982421875
1.6725585937499998
1.6685302734374998
1.6620849609375
1.6330810546874999
1.6443603515624998
1.3865478515624998
1.740234375
1.9005615234375
1.8900878906249998
1.8755859375
1.9070068359374999
1.9223144531249998
2.0302734375
1.585546875
1.4598632812499999
1.4091064453125
1.393798828125
1.3768798828125
1.3543212890624998
1.3728515625
1.3784912109374998
1.384130859375
1.409912109375
1.4139404296875
1.4091064453125
1.4252197265625
1.6000488281249998
1.490478515625
1.2366943359375
1.2302490234374999
1.2109130859375
1.1931884765625
1.1754638671875
1.1964111328125
1.340625
1.4767822265625
1.587158203125
1.6242187499999998
1.6322753906249998
1.69833984375
1.6935058593749999
1.6886718749999998
1.6765869140624998
1.6951171875
1.6781982421875
1.6564453124999998
1.6322753906249998
1.380908203125
1.5911865234375
1.9142578124999998
1.8892822265625
1.8820312499999998
1.8844482421875
1.9110351562499999
2.031884765625
1.6701416015625
1.4679199218749999
1.4316650390624999
1.3728515625
1.3825195312499998
1.368017578125
1.3664062499999998
1.3825195312499998
1.3712402343749999
1.4139404296875
1.4236083984374999
1.40185546875
1.41796875
1.4356933593749999
1.5017578125
1.2334716796875
1.22138671875
1.206884765625
1.1706298828125
1.1770751953125
1.1456542968749999
1.3212890625
1.4735595703125
1.5791015625
1.6161621093749998
1.65
1.687060546875
1.6959228515625
1.6943115234375
1.6701416015625
1.6556396484375
1.6717529296875
1.6701416015625
1.641943359375
1.4469726562499998
1.5484863281249999
1.8763916015625
1.8981445312499998
1.8763916015625
1.9078125
1.9134521484375
2.0439697265625
1.687060546875
1.4928955078125
1.4195800781249999
1.3946044921874998
1.3994384765624999
1.3792968749999999
1.3664062499999998
1.3954101562499999
1.3720458984375
1.3833251953124999
1.3954101562499999
1.4219970703125
1.40830078125
1.4356933593749999
1.6693359374999999
1.2987304687499999
1.206884765625
1.2101074218749999
1.197216796875
1.181103515625
1.17626953125
1.2431396484375
1.47275390625
1.5678222656249998
1.6072998046875
1.6314697265625
1.6725585937499998
1.7039794921875
1.7096191406249999
1.6854492187499999
1.6693359374999999
1.6733642578124999
1.6612792968749999
1.6620849609375
1.654833984375
1.397021484375
1.8812255859375
1.880419921875
1.89169921875
1.89169921875
1.9013671875
2.075390625
1.6556396484375
1.4840332031249999
1.432470703125
1.4010498046875
1.3712402343749999
1.3720458984375
1.3704345703124998
1.3946044921874998
1.3792968749999999
1.3978271484375
1.4058837890625
1.4236083984374999
1.4187744140624998
1.4187744140624998
1.8264404296874999
1.4896728515625
1.2334716796875
1.1706298828125
1.6105224609375
2.028662109375
1.6645019531249998
1.147265625
0.6759521484375
0.48581542968749997
0.3150146484375
0.28842773437499997
0.25217285156249997
0.4680908203125
0.8523925781249999
0.958740234375
1.1545166015625
1.397021484375
1.603271484375
1.7958251953125
1.989990234375
0.146630859375
0.027392578124999997
0.026586914062499998
0.02900390625
0.09829101562499999
0.4004150390625
1.9867675781249998
3.029296875
3.0228515624999996
3.0268798828124996
3.0301025390625
3.0309082031249996
3.034130859375
3.027685546875
3.0228515624999996
3.02607421875
2.81982421875
2.6764160156249996
2.534619140625
2.31064453125
2.12373046875
3.0252685546875
3.0301025390625
3.02607421875
3.02607421875
3.027685546875
2.6401611328124996
1.619384765625
0.7476562499999999
0.02578125
0.02578125
0.027392578124999997
0.02578125
0.02578125
0.026586914062499998
0.02578125
0.0322265625
0.11037597656249999
0.23686523437499998
0.3923583984375
0.6493652343749999
0.77666015625
0.026586914062499998
0.026586914062499998
0.02578125
0.026586914062499998
0.057202148437499996
0.44230957031249996
1.019970703125
3.0301025390625
3.0244628906249997
3.0268798828124996
3.027685546875
3.029296875
3.029296875
3.029296875
3.02607421875
3.02607421875
2.91328125
2.7577880859375
2.544287109375
2.38154296875
2.215576171875
3.029296875
3.029296875
3.0325195312499997
3.029296875
3.029296875
2.8254638671874996
2.3066162109375
0.8322509765624999
0.0281982421875
0.022558593749999998
0.026586914062499998
0.0298095703125
0.0281982421875
0.0298095703125
0.0217529296875
0.02900390625
0.07734374999999999
0.23525390624999998
0.37382812499999996
0.5148193359375
0.6703125
0.02578125
0.027392578124999997
0.02900390625
0.0281982421875
0.0281982421875
0.2892333984375
0.7758544921874999
3.0309082031249996
3.0325195312499997
3.0309082031249996
3.0244628906249997
3.0284912109374997
3.029296875
3.0252685546875
3.029296875
3.0268798828124996
2.9583984374999996
2.7722900390625
2.5958496093749996
2.4242431640624997
2.212353515625
2.03994140625
3.0309082031249996
3.027685546875
3.0301025390625
3.029296875
2.94873046875
2.32998046875
1.24716796875
0.1039306640625
0.027392578124999997
0.026586914062499998
0.02578125
0.026586914062499998
0.027392578124999997
0.027392578124999997
0.0104736328125
0.12568359375
0.2666748046875
0.38349609375
0.5728271484374999
0.7436279296874999
0.903955078125
0.02900390625
0.024169921875
0.027392578124999997
0.024169921875
0.2199462890625
0.6550048828124999
2.247802734375
3.029296875
3.0236572265625
3.0268798828124996
3.0284912109374997
3.02607421875
3.027685546875
3.0284912109374997
3.027685546875
2.937451171875
2.840771484375
2.6683593749999996
2.4709716796875
2.302587890625
2.1132568359375
3.0357421875
3.0309082031249996
3.02607421875
3.029296875
2.9447021484375
2.5555664062499996
1.4550292968749998
0.1345458984375
0.027392578124999997
0.02578125
0.030615234374999998
0.02578125
0.027392578124999997
0.027392578124999997
0.0314208984375
0.0837890625
0.1377685546875
0.28681640625
0.4519775390625
0.6260009765625
0.839501953125
0.0249755859375
0.027392578124999997
0.0201416015625
0.0281982421875
0.08540039062499999
0.47050781249999996
2.0939208984374997
3.0301025390625
3.0236572265625
3.029296875
3.0244628906249997
3.029296875
3.029296875
3.0317138671875
3.02607421875
3.0252685546875
2.8174072265624996
2.7005859374999996
2.5483154296875
2.3791259765625
2.1615966796875
3.0317138671875
3.0284912109374997
3.02607421875
3.0268798828124996
3.029296875
2.6240478515624996
1.5492919921875
0.5921630859375
0.02578125
0.030615234374999998
0.0322265625
0.026586914062499998
0.026586914062499998
0.02578125
0.026586914062499998
0.0314208984375
0.1571044921875
0.2537841796875
0.38671875
0.5776611328125
0.7702148437499999
0.023364257812499997
0.0217529296875
0.027392578124999997
0.024169921875
0.0298095703125
0.443115234375
1.0634765625
3.0301025390625
3.0284912109374997
3.029296875
3.0309082031249996
3.0284912109374997
3.0325195312499997
3.02607421875
3.0301025390625
3.0268798828124996
2.9028076171875
2.79404296875
2.5821533203125
2.40087890625
2.193017578125
2.2824462890625
3.0244628906249997
3.0325195312499997
3.0325195312499997
3.0252685546875
2.7336181640625
2.2236328125
0.64775390625
0.022558593749999998
0.0298095703125
0.02900390625
0.030615234374999998
0.026586914062499998
0.02578125
0.02578125
0.02578125
0.0926513671875
0.2038330078125
0.36979980468749996
0.5309326171875
0.7065673828125
0.026586914062499998
0.02578125
0.026586914062499998
0.030615234374999998
0.020947265625
0.2650634765625
0.8016357421875
3.0301025390625
3.0317138671875
3.029296875
3.0317138671875
3.029296875
3.0309082031249996
3.0301025390625
3.029296875
2.9986816406249996
2.9447021484375
2.7972656249999996
2.6643310546874996
2.502392578125
2.2308837890624997
2.164013671875
3.029296875
3.029296875
3.027685546875
3.029296875
2.908447265625
2.2832519531249997
1.126318359375
0.0281982421875
0.02578125
0.0281982421875
0.027392578124999997
0.027392578124999997
0.020947265625
0.024169921875
0.0249755859375
0.0717041015625
0.16677246093749998
0.27392578125
0.4568115234375
0.7283203125
0.7637695312499999
0.0249755859375
0.022558593749999998
0.027392578124999997
0.022558593749999998
0.1297119140625
0.7726318359375
2.4306884765625
3.0268798828124996
3.029296875
3.0284912109374997
3.0268798828124996
3.0325195312499997
3.0301025390625
3.0301025390625
3.0301025390625
2.96484375
2.82626953125
2.69091796875
2.4258544921875
2.260693359375
2.047998046875
3.029296875
3.0284912109374997
3.027685546875
3.0252685546875
2.9221435546874996
2.5305908203125
1.3817138671875
0.042700195312499994
0.0298095703125
0.026586914062499998
0.02578125
0.0249755859375
0.026586914062499998
0.024169921875
0.02900390625
0.062841796875
0.1619384765625
0.2747314453125
0.4680908203125
0.6292236328124999
0.7935791015625
0.02578125
0.018530273437499998
0.0281982421875
0.026586914062499998
0.088623046875
0.546240234375
1.683837890625
3.0252685546875
3.029296875
3.0284912109374997
3.027685546875
3.0252685546875
3.029296875
3.029296875
3.0147949218749996
2.921337890625
2.8593017578124997
2.6941406249999997
2.5007812499999997
2.3477050781249997
2.12373046875
3.0317138671875
3.0268798828124996
3.0309082031249996
3.0244628906249997
3.029296875
2.7158935546875
1.4364990234375
0.5043457031249999
0.0281982421875
0.02578125
0.02900390625
0.0249755859375
0.0281982421875
0.0298095703125
0.0281982421875
0.02578125
0.16274414062499998
0.2634521484375
0.40122070312499997
0.5204589843749999
0.7557128906249999
0.027392578124999997
0.02578125
0.026586914062499998
0.0281982421875
0.0475341796875
0.285205078125
1.40185546875
3.0309082031249996
3.029296875
3.029296875
3.029296875
3.029296875
3.02607421875
3.029296875
3.0301025390625
3.027685546875
2.8883056640625
2.811767578125
2.6272705078125
2.405712890625
2.2187988281249997
2.9076416015624997
3.0317138671875
3.0301025390625
3.0317138671875
3.0325195312499997
2.7271728515625
2.1632080078125
0.9676025390624999
0.024169921875
0.026586914062499998
0.0314208984375
0.0298095703125
0.0249755859375
0.027392578124999997
0.023364257812499997
0.026586914062499998
0.07412109374999999
0.20625
0.37302246093749997
0.6324462890625
0.78955078125
0.02578125
0.026586914062499998
0.02578125
0.02578125
0.0298095703125
0.28359375
0.8048583984375
2.811767578125
3.0284912109374997
3.0309082031249996
3.0268798828124996
3.0252685546875
3.0244628906249997
3.027685546875
3.0309082031249996
2.9358398437499997
2.900390625
2.8125732421875
2.5902099609375
2.44599609375
2.2566650390625
2.70703125
3.0301025390625
3.0284912109374997
3.0301025390625
3.0268798828124996
2.88427734375
2.4282714843749997
1.0610595703124999
0.026586914062499998
0.02578125
0.026586914062499998
0.027392578124999997
0.027392578124999997
0.0298095703125
0.0314208984375
0.0217529296875
0.0322265625
0.1796630859375
0.3230712890625
0.472119140625
0.6509765624999999
0.02578125
0.02578125
0.026586914062499998
0.02578125
0.030615234374999998
0.16032714843749998
0.5454345703125
3.029296875
3.0325195312499997
3.0252685546875
3.0309082031249996
3.0268798828124996
3.0325195312499997
3.0309082031249996
3.0301025390625
3.029296875
2.9390625
2.8093505859374996
2.6868896484375
2.5152832031249996
2.2679443359375
2.0923095703125
3.029296875
3.0301025390625
3.0284912109374997
3.0268798828124996
3.0123779296874997
2.4435791015625
1.4469726562499998
0.265869140625
0.026586914062499998
0.0281982421875
0.024169921875
0.027392578124999997
0.0249755859375
0.030615234374999998
0.043505859375
0.0443115234375
0.1458251953125
0.2747314453125
0.3923583984375
0.64453125
0.7839111328124999
0.02578125
0.026586914062499998
0.030615234374999998
0.023364257812499997
0.10151367187499999
0.57041015625
2.2969482421875
3.0284912109374997
3.027685546875
3.029296875
3.029296875
3.0325195312499997
3.0301025390625
3.0284912109374997
3.0301025390625
2.9326171875
2.8359375
2.705419921875
2.4943359375
2.2937255859375
2.0842529296875
3.0284912109374997
3.0284912109374997
3.0301025390625
3.0301025390625
3.027685546875
2.6643310546874996
1.9037841796875
0.36979980468749996
0.026586914062499998
0.027392578124999997
0.026586914062499998
0.023364257812499997
0.02578125
0.022558593749999998
0.026586914062499998
0.030615234374999998
0.1039306640625
0.26103515625
0.37705078124999997
0.562353515625
0.7097900390624999
0.02578125
0.026586914062499998
0.02578125
0.024169921875
0.0845947265625
0.378662109375
0.97001953125
3.0309082031249996
3.0284912109374997
3.029296875
3.0301025390625
3.0301025390625
3.0301025390625
3.0317138671875
3.029296875
3.029296875
2.8697753906249996
2.7102539062499997
2.550732421875
2.3742919921875
2.1132568359375
3.0301025390625
3.0284912109374997
3.0301025390625
3.027685546875
3.0309082031249996
2.818212890625
2.0093261718749997
0.765380859375
0.026586914062499998
0.02578125
0.027392578124999997
0.030615234374999998
0.0281982421875
0.0281982421875
0.0249755859375
0.026586914062499998
0.09345703124999999
0.207861328125
0.40524902343749997
0.6493652343749999
0.760546875
0.030615234374999998
0.0322265625
0.024169921875
0.026586914062499998
0.026586914062499998
0.2747314453125
0.8531982421875
2.872998046875
3.029296875
3.0317138671875
3.027685546875
3.02607421875
3.0317138671875
3.0244628906249997
3.0284912109374997
3.027685546875
2.8528564453125
2.776318359375
2.6691650390625
2.5015869140625
2.3356201171874997
2.1503173828124997
3.0301025390625
3.0268798828124996
3.0309082031249996
3.0309082031249996
2.85849609375
2.3904052734375
1.284228515625
0.02578125
0.027392578124999997
0.02578125
0.02578125
0.023364257812499997
0.02578125
0.0314208984375
0.027392578124999997
0.042700195312499994
0.13857421875
0.32548828124999996
0.488232421875
0.6292236328124999
0.7500732421874999
0.0281982421875
0.026586914062499998
0.0281982421875
0.022558593749999998
0.21269531249999998
0.6260009765625
2.7223388671874997
3.027685546875
3.0309082031249996
3.0309082031249996
3.027685546875
3.029296875
3.0301025390625
3.0325195312499997
3.0284912109374997
3.027685546875
2.8609130859375
2.7086425781249996
2.5483154296875
2.4282714843749997
2.17529296875
3.029296875
3.0309082031249996
3.029296875
3.0301025390625
2.9825683593749996
2.3718749999999997
1.2511962890625
0.1353515625
0.0217529296875
0.0281982421875
0.026586914062499998
0.0314208984375
0.0217529296875
0.024169921875
0.023364257812499997
0.04833984375
0.1554931640625
0.23928222656249998
0.4165283203125
0.6195556640625
0.7951904296875
0.023364257812499997
0.02578125
0.02578125
0.026586914062499998
0.033837890625
0.5768554687499999
2.0085205078125
3.0301025390625
3.0309082031249996
3.0325195312499997
3.029296875
3.0284912109374997
3.0333251953125
3.027685546875
3.029296875
2.995458984375
2.900390625
2.7892089843749996
2.6482177734374996
2.3920166015624997
2.2236328125
3.0301025390625
3.0284912109374997
3.029296875
3.029296875
2.9906249999999996
2.5894042968749997
1.545263671875
0.60263671875
0.020947265625
0.024169921875
0.02578125
0.0249755859375
0.02900390625
0.027392578124999997
0.022558593749999998
0.030615234374999998
0.0765380859375
0.19013671875
0.36416015625
0.533349609375
0.6678955078125
0.027392578124999997
0.0281982421875
0.0298095703125
0.022558593749999998
0.07814941406249999
0.4310302734375
1.08603515625
3.0301025390625
3.0317138671875
3.0252685546875
3.0301025390625
3.0284912109374997
3.034130859375
3.0309082031249996
3.0268798828124996
3.027685546875
2.876220703125
2.7529541015624996
2.6127685546875
2.5088378906249997
2.2792236328124997
3.029296875
3.0228515624999996
3.0333251953125
3.027685546875
3.0268798828124996
2.7626220703124997
1.7217041015624999
0.6413085937499999
0.02578125
0.024169921875
0.027392578124999997
0.02578125
0.02578125
0.0249755859375
0.02578125
0.022558593749999998
0.0749267578125
0.207861328125
0.3504638671875
0.476953125
0.7065673828125
0.02578125
0.02578125
0.0281982421875
0.024169921875
0.026586914062499998
0.265869140625
1.0352783203125
3.0284912109374997
3.029296875
3.029296875
3.02607421875
3.0301025390625
3.0309082031249996
3.029296875
3.0301025390625
3.0002929687499997
2.843994140625
2.7424804687499997
2.5773193359374997
2.399267578125
2.241357421875
2.2510253906249997
3.027685546875
3.0317138671875
3.027685546875
3.0349365234374996
2.802099609375
2.2566650390625
1.045751953125
0.0314208984375
0.026586914062499998
0.026586914062499998
0.026586914062499998
0.02578125
0.0281982421875
0.022558593749999998
0.024169921875
0.09748535156249999
0.15629882812499998
0.27392578125
0.475341796875
0.6340576171875
0.6268066406249999
0.0249755859375
0.0249755859375
0.030615234374999998
0.030615234374999998
0.29245605468749997
0.813720703125
2.4113525390625
3.0325195312499997
3.0284912109374997
3.0301025390625
3.034130859375
3.029296875
3.029296875
3.0309082031249996
3.0284912109374997
2.9463134765624996
2.8141845703125
2.6417724609374997
2.518505859375
2.3468994140625
2.12373046875
3.0333251953125
3.0309082031249996
3.0309082031249996
3.0301025390625
2.9140869140624996
2.5209228515624997
1.1480712890625
0.041088867187499996
0.02578125
0.02578125
0.027392578124999997
0.026586914062499998
0.026586914062499998
0.0217529296875
0.027392578124999997
0.0459228515625
0.1506591796875
0.307763671875
0.4970947265625
0.6485595703125
0.7951904296875
0.024169921875
0.0217529296875
0.026586914062499998
0.023364257812499997
0.069287109375
0.47856445312499996
2.2373291015625
3.029296875
3.0284912109374997
3.0309082031249996
3.0317138671875
3.0317138671875
3.02607421875
3.0301025390625
2.9785400390624996
2.914892578125
2.8633300781249997
2.7166992187499996
2.534619140625
2.3557617187499997
2.14306640625
3.027685546875
3.0309082031249996
3.0301025390625
3.0284912109374997
3.027685546875
2.5740966796875
1.4703369140625
0.4842041015625
0.0249755859375
0.0298095703125
0.026586914062499998
0.027392578124999997
0.02578125
0.02578125
0.026586914062499998
0.026586914062499998
0.08540039062499999
0.2135009765625
0.3794677734375
0.578466796875
0.72509765625
0.0298095703125
0.0298095703125
0.022558593749999998
0.02578125
0.08620605468749999
0.510791015625
1.4389160156249998
3.0268798828124996
3.0252685546875
3.0301025390625
3.029296875
3.029296875
3.029296875
3.0309082031249996
3.0325195312499997
2.9350341796875
2.8778320312499996
2.7569824218749996
2.5467041015625
2.367041015625
2.183349609375
3.0268798828124996
3.029296875
3.027685546875
3.0268798828124996
3.0333251953125
2.73603515625
2.1293701171875
0.4954833984375
0.02578125
0.026586914062499998
0.019335937499999997
0.0322265625
0.026586914062499998
0.02900390625
0.026586914062499998
0.02578125
0.11843261718749999
0.23928222656249998
0.436669921875
0.594580078125
0.7541015624999999
0.0249755859375
0.026586914062499998
0.020947265625
0.027392578124999997
0.026586914062499998
0.3359619140625
0.839501953125
3.034130859375
3.0325195312499997
3.029296875
3.029296875
3.029296875
3.029296875
3.029296875
3.029296875
2.9672607421875
2.8576904296874996
2.7400634765625
2.616796875
2.43310546875
2.193017578125
2.6981689453124997
3.029296875
3.034130859375
3.0268798828124996
3.027685546875
2.8947509765625
2.204296875
0.9329589843749999
0.030615234374999998
0.030615234374999998
0.030615234374999998
0.024169921875
0.02900390625
0.022558593749999998
0.020947265625
0.026586914062499998
0.1007080078125
0.1893310546875
0.3424072265625
0.581689453125
0.6993164062499999
0.14501953125
0.02578125
0.026586914062499998
0.026586914062499998
0.0249755859375
0.2425048828125
0.7702148437499999
2.57490234375
3.0301025390625
3.0325195312499997
3.029296875
3.029296875
3.0284912109374997
3.029296875
3.0317138671875
2.9680664062499997
2.9495361328125
2.8133789062499996
2.6756103515625
2.437939453125
2.2913085937499997
2.1084228515625
3.0268798828124996
3.029296875
3.0317138671875
3.02607421875
2.8713867187499997
2.42666015625
1.2955078125
0.027392578124999997
0.027392578124999997
0.023364257812499997
0.0298095703125
0.027392578124999997
0.0249755859375
0.0281982421875
0.026586914062499998
0.0708984375
0.1957763671875
0.35288085937499997
0.49870605468749996
0.6646728515625
0.5244873046874999
0.024169921875
0.027392578124999997
0.0249755859375
0.02578125
0.18046874999999998
0.55107421875
2.5152832031249996
3.0252685546875
3.027685546875
3.0333251953125
3.0268798828124996
3.0317138671875
3.029296875
3.0301025390625
3.0333251953125
2.921337890625
2.7666503906249997
2.6441894531249996
2.4846679687499997
2.3114501953124997
2.067333984375
3.029296875
3.0244628906249997
3.0325195312499997
3.027685546875
3.0309082031249996
2.502392578125
1.3446533203125
0.35771484374999996
0.0201416015625
0.02578125
0.0298095703125
0.026586914062499998
0.02578125
0.027392578124999997
0.026586914062499998
0.0281982421875
0.1490478515625
0.2715087890625
0.41813964843749996
0.652587890625
0.8201660156249999
0.0314208984375
0.0281982421875
0.022558593749999998
0.0249755859375
0.0926513671875
0.49064941406249996
1.77890625
3.029296875
3.027685546875
3.029296875
3.0284912109374997
3.029296875
3.02607421875
3.0333251953125
3.027685546875
2.9285888671875
2.8528564453125
2.7102539062499997
2.4943359375
2.3267578125
2.1309814453125
3.0244628906249997
3.0309082031249996
3.029296875
3.0309082031249996
3.021240234375
2.6240478515624996
1.9440673828125
0.34079589843749997
0.0322265625
0.027392578124999997
0.027392578124999997
0.027392578124999997
0.026586914062499998
0.02578125
0.02578125
0.026586914062499998
0.116015625
0.270703125
0.45036621093749996
0.6324462890625
0.7951904296875
0.0249755859375
0.02578125
0.0281982421875
0.030615234374999998
0.11440429687499999
0.39396972656249996
0.945849609375
3.02607421875
3.0301025390625
3.0284912109374997
3.0284912109374997
3.0301025390625
3.029296875
3.0284912109374997
3.0301025390625
3.027685546875
2.8778320312499996
2.7166992187499996
2.5322021484375
2.4161865234374997
2.151123046875
3.029296875
3.0325195312499997
3.029296875
3.0284912109374997
3.0284912109374997
2.7739013671875
2.012548828125
0.7259033203124999
0.02578125
0.026586914062499998
0.026586914062499998
0.026586914062499998
0.022558593749999998
0.026586914062499998
0.026586914062499998
0.061230468749999996
0.1458251953125
0.2634521484375
0.404443359375
0.6034423828125
0.8274169921875
0.02900390625
0.026586914062499998
0.027392578124999997
0.02578125
0.027392578124999997
0.24733886718749998
0.9692138671874999
3.0172119140625
3.027685546875
3.02607421875
3.0309082031249996
3.02607421875
3.0268798828124996
3.029296875
3.02607421875
3.027685546875
2.86494140625
2.7134765625
2.5434814453124996
0.027392578124999997
0.027392578124999997
0.023364257812499997
2.8464111328125
2.263916015625
1.413134765625
0.9756591796874999
3.029296875
3.0333251953125
0.752490234375
0.9651855468749999
1.335791015625
1.4276367187499999
1.426025390625
1.4759765624999999
1.48564453125
1.4429443359374998
1.52109375
1.5927978515624999
1.5033691406249998
1.4655029296875
1.533984375
1.5186767578125
1.5396240234374998
1.5428466796875
1.7410400390624998
1.7692382812499998
1.7724609375
1.7829345703125
1.7958251953125
1.8111328125
1.611328125
1.4832275390624998
1.4139404296875
1.3768798828125
1.364794921875
1.3510986328124999
1.3527099609375
1.3510986328124999
1.3317626953125
1.368017578125
1.3913818359374999
1.4107177734374998
1.4244140625
1.40830078125
1.3422363281249998
1.2850341796875
1.229443359375
1.222998046875
1.2205810546875
1.2076904296875
1.2374999999999998
1.3446533203125
1.4381103515625
1.545263671875
1.5807128906249999
1.6242187499999998
1.6508056640625
1.67578125
1.667724609375
1.6363037109374998
1.6371093749999999
1.6403320312499998
1.6451660156249999
1.6306640625
1.6306640625
1.53720703125
1.7660156249999999
1.835302734375
1.8385253906249999
1.8344970703124999
1.8441650390625
1.8707519531249999
1.7579589843749999
1.5509033203125
1.5009521484375
1.47275390625
1.4219970703125
1.4034667968749999
1.377685546875
1.3881591796875
1.377685546875
1.3994384765624999
1.4187744140624998
1.4300537109375
1.442138671875
1.4381103515625
1.52109375
1.33740234375
1.2576416015624998
1.2270263671875
1.2181640624999999
1.2181640624999999
1.2302490234374999
1.340625
1.4316650390624999
1.4993408203124998
1.5839355468749998
1.6121337890624998
1.6282470703124998
1.6701416015625
1.683837890625
1.6693359374999999
1.66611328125
1.65
1.6483886718749998
1.6411376953124999
1.6282470703124998
1.5517089843749998
1.722509765625
1.8224121093749999
1.843359375
1.85625
1.8618896484374998
1.869140625
1.786962890625
1.619384765625
1.477587890625
1.4219970703125
1.4147460937499998
1.3954101562499999
1.3784912109374998
1.3857421875
1.40185546875
1.400244140625
1.4074951171874999
1.4195800781249999
1.41796875
1.429248046875
1.5001464843749999
1.3446533203125
1.2689208984375
1.2479736328125
1.22783203125
1.2109130859375
1.22138671875
1.2745605468749999
1.4010498046875
1.5009521484375
1.554931640625
1.6121337890624998
1.6483886718749998
1.67900390625
1.6717529296875
1.674169921875
1.6653076171874999
1.65966796875
1.6483886718749998
1.6403320312499998
1.6282470703124998
1.5525146484374999
1.7370117187499998
1.8296630859374998
1.85947265625
1.8739746093749998
1.883642578125
1.85947265625
1.7982421874999999
1.619384765625
1.5025634765625
1.4308593749999998
1.40185546875
1.3833251953124999
1.380908203125
1.3825195312499998
1.3833251953124999
1.393798828125
1.4034667968749999
1.4091064453125
1.4203857421875
1.4413330078125
1.4912841796874998
1.4219970703125
1.2947021484374999
1.239111328125
1.213330078125
1.2060791015624999
1.2141357421874999
1.2689208984375
1.3631835937499999
1.49853515625
1.5525146484374999
1.5976318359375
1.6346923828125
1.6653076171874999
1.6814208984374999
1.6878662109375
1.674169921875
1.6636962890625
1.6524169921874998
1.635498046875
1.6314697265625
1.5734619140625
1.651611328125
1.8377197265624998
1.8626953124999999
1.8747802734374999
1.8788085937499999
1.864306640625
1.864306640625
1.6234130859375
1.5041748046874999
1.4461669921875
1.4195800781249999
1.384130859375
1.3784912109374998
1.37607421875
1.37607421875
1.3929931640625
1.405078125
1.409912109375
1.41796875
1.4308593749999998
1.4236083984374999
1.4187744140624998
1.2882568359375
1.2399169921875
1.2181640624999999
1.2044677734375
1.206884765625
1.2584472656249999
1.3623779296874998
1.4622802734375
1.5412353515625
1.6000488281249998
1.635498046875
1.66611328125
1.6749755859375
1.6773925781249999
1.6846435546874998
1.65966796875
1.6532226562499999
1.6508056640625
1.6282470703124998
1.585546875
1.6572509765624999
1.80791015625
1.8635009765625
1.8812255859375
1.8796142578125
1.869140625
1.87236328125
1.6862548828125
1.5476806640624998
1.4477783203124999
1.4107177734374998
1.3865478515624998
1.377685546875
1.3543212890624998
1.3639892578125
1.3857421875
1.3986328124999998
1.4042724609375
1.4187744140624998
1.426025390625
1.4364990234375
1.4848388671875
1.3027587890624999
1.2479736328125
1.22138671875
1.203662109375
1.2101074218749999
1.2254150390625
1.3108154296874999
1.4550292968749998
1.5412353515625
1.6024658203125
1.6508056640625
1.6685302734374998
1.6862548828125
1.67578125
1.683837890625
1.6701416015625
1.6604736328124998
1.6459716796875
1.6435546875
1.625830078125
1.64677734375
1.80791015625
1.8659179687499998
1.88525390625
1.883642578125
1.8731689453125
1.9021728515624998
1.6459716796875
1.5380126953125
1.4598632812499999
1.4034667968749999
1.3792968749999999
1.377685546875
1.377685546875
1.3752685546874999
1.3849365234375
1.3986328124999998
1.4074951171874999
1.4139404296875
1.416357421875
1.4413330078125
1.496923828125
1.3333740234375
1.2342773437499999
1.2238037109375
1.2093017578125
1.200439453125
1.24072265625
1.3027587890624999
1.4228027343749998
1.5331787109375
1.5919921874999998
1.638720703125
1.6645019531249998
1.6781982421875
1.6798095703125
1.6717529296875
1.670947265625
1.6733642578124999
1.6733642578124999
1.6508056640625
1.6346923828125
1.5863525390625
1.767626953125
1.8651123046875
1.88525390625
1.8892822265625
1.8796142578125
1.8892822265625
1.7208984374999998
1.5235107421874998
1.4493896484375
1.4091064453125
1.397021484375
1.3905761718749998
1.3817138671875
1.3801025390625
1.3857421875
1.4034667968749999
1.4010498046875
1.4203857421875
1.4284423828125
1.4381103515625
1.4832275390624998
1.3422363281249998
1.252001953125
1.2286376953125
1.198828125
1.197216796875
1.2076904296875
1.3083984375
1.4123291015625
1.513037109375
1.574267578125
1.62744140625
1.635498046875
1.6693359374999999
1.690283203125
1.6798095703125
1.6733642578124999
1.6693359374999999
1.6524169921874998
1.6459716796875
1.6363037109374998
1.5662109375
1.7555419921875
1.8506103515624999
1.8731689453125
1.8876708984375
1.880419921875
1.880419921875
1.77568359375
1.6048828124999999
1.4993408203124998
1.4244140625
1.3962158203125
1.3873535156249999
1.3801025390625
1.377685546875
1.384130859375
1.3946044921874998
1.400244140625
1.4074951171874999
1.413134765625
1.4268310546874998
1.4840332031249999
1.3929931640625
1.2592529296875
1.2318603515625
1.1923828125
1.2020507812499999
1.2141357421874999
1.2721435546875
1.3664062499999998
1.5057861328125
1.5621826171875
1.6089111328124999
1.6532226562499999
1.674169921875
1.6765869140624998
1.683837890625
1.6830322265625
1.6781982421875
1.6588623046875
1.6475830078125
1.6346923828125
1.577490234375
1.7378173828124999
1.843359375
1.869140625
1.8868652343749999
1.8812255859375
1.8618896484374998
1.851416015625
1.619384765625
1.5009521484375
1.4429443359374998
1.40185546875
1.3881591796875
1.3833251953124999
1.3744628906249998
1.3801025390625
1.384130859375
1.4026611328124998
1.4066894531249998
1.42119140625
1.4139404296875
1.4759765624999999
1.4034667968749999
1.2705322265624999
1.2310546875
1.2076904296875
1.197216796875
1.2044677734375
1.2544189453124999
1.3688232421875
1.4735595703125
1.56943359375
1.6201904296874998
1.6371093749999999
1.6645019531249998
1.6830322265625
1.6773925781249999
1.6749755859375
1.662890625
1.6604736328124998
1.65
1.6330810546874999
1.5815185546875
1.654833984375
1.8175781249999998
1.8747802734374999
1.88525390625
1.89169921875
1.8796142578125
1.8731689453125
1.67900390625
1.5057861328125
1.4469726562499998
1.40830078125
1.3873535156249999
1.3728515625
1.3712402343749999
1.3752685546874999
1.3881591796875
1.3962158203125
1.3954101562499999
1.4203857421875
1.4268310546874998
1.4413330078125
1.4638916015624999
1.2866455078124999
1.2399169921875
1.224609375
1.1947998046875
1.21171875
1.222998046875
1.3551269531249999
1.4598632812499999
1.5460693359375
1.5968261718749999
1.6395263671875
1.6636962890625
1.67900390625
1.6878662109375
1.6781982421875
1.6701416015625
1.6556396484375
1.6524169921874998
1.6395263671875
1.62744140625
1.651611328125
1.8071044921875
1.848193359375
1.8820312499999998
1.8884765625
1.880419921875
1.8667236328124999
1.69833984375
1.5404296874999999
1.461474609375
1.4107177734374998
1.3978271484375
1.3792968749999999
1.3833251953124999
1.3825195312499998
1.3768798828125
1.3986328124999998
1.4107177734374998
1.4155517578124999
1.4236083984374999
1.4389160156249998
1.474365234375
1.3156494140625
1.2318603515625
1.2109130859375
1.2028564453125
1.203662109375
1.222998046875
1.335791015625
1.4244140625
1.5396240234374998
1.5927978515624999
1.63388671875
1.6620849609375
1.683837890625
1.6878662109375
1.6846435546874998
1.667724609375
1.6572509765624999
1.6524169921874998
1.6435546875
1.6314697265625
1.5815185546875
1.8111328125
1.861083984375
1.87236328125
1.8763916015625
1.8780029296874998
1.8731689453125
1.77568359375
1.5557373046874998
1.4783935546875
1.4252197265625
1.3921875
1.3744628906249998
1.3712402343749999
1.3801025390625
1.3728515625
1.3929931640625
1.393798828125
1.4147460937499998
1.4244140625
1.4308593749999998
1.48564453125
1.3333740234375
1.2640869140625
1.2173583984375
1.2109130859375
1.197216796875
1.2044677734375
1.3092041015625
1.4252197265625
1.5122314453124999
1.5887695312499999
1.62744140625
1.6532226562499999
1.6894775390624999
1.6886718749999998
1.6854492187499999
1.6669189453125
1.651611328125
1.6588623046875
1.641943359375
1.6266357421875
1.5887695312499999
1.7595703125
1.864306640625
1.880419921875
1.880419921875
1.88525390625
1.88525390625
1.7660156249999999
1.60166015625
1.477587890625
1.4276367187499999
1.400244140625
1.3712402343749999
1.368017578125
1.3728515625
1.3792968749999999
1.3921875
1.3978271484375
1.416357421875
1.4228027343749998
1.4252197265625
1.490478515625
1.3801025390625
1.255224609375
1.2270263671875
1.2093017578125
1.1923828125
1.2076904296875
1.281005859375
1.405078125
1.5090087890625
1.574267578125
1.619384765625
1.6475830078125
1.6781982421875
1.6894775390624999
1.683837890625
1.6822265625
1.6604736328124998
1.6556396484375
1.6508056640625
1.6330810546874999
1.5718505859374998
1.7587646484375
1.8554443359375
1.8763916015625
1.8892822265625
1.8868652343749999
1.8731689453125
1.7781005859374999
1.603271484375
1.4977294921875
1.442138671875
1.3897705078125
1.3801025390625
1.3728515625
1.3752685546874999
1.3801025390625
1.3825195312499998
1.4034667968749999
1.400244140625
1.4252197265625
1.426025390625
1.4888671875
1.3801025390625
1.26328125
1.216552734375
1.200439453125
1.21171875
1.21494140625
1.281005859375
1.3792968749999999
1.47275390625
1.5670166015625
1.6129394531249999
1.6411376953124999
1.6862548828125
1.67578125
1.6806152343749998
1.6636962890625
1.65966796875
1.6540283203125
1.654833984375
1.6379150390625
1.574267578125
1.690283203125
1.8489990234375
1.8731689453125
1.8820312499999998
1.8884765625
1.8763916015625
1.8489990234375
1.667724609375
1.4928955078125
1.4413330078125
1.409912109375
1.3825195312499998
1.3656005859375
1.3768798828125
1.3801025390625
1.3825195312499998
1.40185546875
1.413134765625
1.4147460937499998
1.4308593749999998
1.43408203125
1.3994384765624999
1.2705322265624999
1.2350830078125
1.2028564453125
1.1915771484375
1.2060791015624999
1.2383056640624999
1.3631835937499999
1.4800048828124999
1.55009765625
1.611328125
1.6379150390625
1.6749755859375
1.6846435546874998
1.6886718749999998
1.6830322265625
1.6725585937499998
1.654833984375
1.6532226562499999
1.65
1.5758789062499998
1.6733642578124999
1.82080078125
1.87236328125
1.8763916015625
1.8860595703124998
1.8731689453125
1.8586669921874999
1.6717529296875
1.5412353515625
1.4501953125
1.4139404296875
1.3825195312499998
1.36962890625
1.384130859375
1.3792968749999999
1.3817138671875
1.3857421875
1.4074951171874999
1.4147460937499998
1.4276367187499999
1.4308593749999998
1.461474609375
1.3043701171875
1.2189697265625
1.2028564453125
1.1964111328125
1.200439453125
1.22783203125
1.327734375
1.477587890625
1.5533203125
1.603271484375
1.6363037109374998
1.6701416015625
1.687060546875
1.6806152343749998
1.6773925781249999
1.6653076171874999
1.6620849609375
1.6427490234375
1.6379150390625
1.6346923828125
1.6048828124999999
1.8199951171875
1.87236328125
1.8820312499999998
1.88525390625
1.8860595703124998
1.8860595703124998
1.67900390625
1.542041015625
1.4630859374999998
1.4034667968749999
1.3897705078125
1.3817138671875
1.3736572265625
1.3801025390625
1.3801025390625
1.3897705078125
1.4026611328124998
1.4187744140624998
1.4203857421875
1.426025390625
1.4687255859375
1.313232421875
1.2511962890625
1.2109130859375
1.1867431640625
1.203662109375
1.2254150390625
1.3261230468749998
1.4348876953124998
1.522705078125
1.5960205078124998
1.6290527343749999
1.65966796875
1.6814208984374999
1.6846435546874998
1.687060546875
1.6693359374999999
1.6636962890625
1.6508056640625
1.6451660156249999
1.6298583984375
1.5968261718749999
1.7813232421874998
1.869140625
1.8860595703124998
1.89169921875
1.877197265625
1.8868652343749999
1.748291015625
1.5831298828125
1.4574462890625
1.42119140625
1.3897705078125
1.380908203125
1.3784912109374998
1.3720458984375
1.3833251953124999
1.3905761718749998
1.3954101562499999
1.40830078125
1.4195800781249999
1.4332763671875
1.4880615234374999
