3.0357421875
3.0381591796875
1.174658203125
1.3656005859375
0.21511230468749998
0.030615234374999998
0.033032226562499996
0.0314208984375
0.02900390625
0.0322265625
0.03544921875
0.040283203125
0.02900390625
0.09023437499999999
0.2425048828125
0.19255371093749998
0.26425781249999997
0.3182373046875
0.0298095703125
0.0322265625
0.0281982421875
0.033032226562499996
0.0314208984375
0.033032226562499996
0.0346435546875
2.51044921875
3.0357421875
3.037353515625
3.0397705078125
3.0381591796875
3.0389648437499996
3.037353515625
3.0349365234374996
3.0397705078125
3.034130859375
3.0389648437499996
2.9261718749999996
2.953564453125
2.8963623046875
3.0397705078125
3.0365478515624997
3.0421875
3.0397705078125
3.037353515625
3.0357421875
0.58330078125
0.8435302734375
0.0314208984375
0.033032226562499996
0.0281982421875
0.0346435546875
0.026586914062499998
0.03544921875
0.02900390625
0.02900390625
0.22316894531249998
0.059619140625
0.31743164062499996
0.3544921875
0.41813964843749996
0.030615234374999998
0.033032226562499996
0.03544921875
0.0314208984375
0.0322265625
0.0322265625
0.0378662109375
2.6707763671875
3.037353515625
3.0381591796875
3.0389648437499996
3.0389648437499996
3.037353515625
3.0365478515624997
3.0381591796875
3.0357421875
3.0413818359375
3.0421875
3.011572265625
3.018017578125
2.900390625
3.0357421875
3.037353515625
3.0365478515624997
3.037353515625
3.037353515625
3.0405761718749997
3.037353515625
1.1964111328125
0.12890625
0.0314208984375
0.033032226562499996
0.0314208984375
0.030615234374999998
0.0314208984375
0.0298095703125
0.0314208984375
0.08701171875
0.0322265625
0.1635498046875
0.2956787109375
0.33515625
0.033032226562499996
0.0314208984375
0.0362548828125
0.030615234374999998
0.03544921875
0.033032226562499996
0.033032226562499996
2.12373046875
3.0309082031249996
3.0397705078125
3.037353515625
3.037353515625
3.0365478515624997
3.0413818359375
3.037353515625
3.0421875
3.0397705078125
2.8947509765625
3.0156005859375
2.9906249999999996
2.9020019531249996
2.8721923828125
3.037353515625
3.0389648437499996
3.0381591796875
3.037353515625
2.425048828125
2.24619140625
2.176904296875
0.1007080078125
0.0281982421875
0.033032226562499996
0.026586914062499998
0.0322265625
0.0322265625
0.02900390625
0.024169921875
0.02900390625
0.1877197265625
0.20625
0.24169921875
0.29970703125
0.291650390625
0.02900390625
0.0314208984375
0.0322265625
0.0298095703125
0.033032226562499996
0.0322265625
0.03544921875
2.7827636718749997
3.0405761718749997
3.0397705078125
3.037353515625
3.0325195312499997
3.037353515625
3.0381591796875
3.0381591796875
3.0405761718749997
3.0381591796875
3.037353515625
2.9865966796874996
2.9463134765624996
2.848828125
3.034130859375
3.0381591796875
3.0389648437499996
3.037353515625
3.0381591796875
3.0421875
1.980322265625
0.42941894531249997
0.030615234374999998
0.0322265625
0.033032226562499996
0.0322265625
0.02900390625
0.033032226562499996
0.02900390625
0.0298095703125
0.104736328125
0.08056640625
0.28037109374999997
0.3359619140625
0.32548828124999996
0.033032226562499996
0.033837890625
0.0281982421875
0.0322265625
0.033032226562499996
0.0322265625
0.1377685546875
2.0979492187499997
3.018017578125
3.0405761718749997
3.0389648437499996
3.0349365234374996
3.0381591796875
3.0397705078125
3.0405761718749997
3.0405761718749997
2.9906249999999996
2.731201171875
2.9390625
2.850439453125
2.8230468749999997
3.0397705078125
3.034130859375
3.0365478515624997
3.0381591796875
3.0397705078125
3.0381591796875
0.9547119140625
0.59619140625
0.0314208984375
0.0346435546875
0.037060546874999996
0.0346435546875
0.0322265625
0.0314208984375
0.0322265625
0.03544921875
0.07734374999999999
0.4036376953125
0.18288574218749998
0.265869140625
0.2989013671875
0.0322265625
0.0298095703125
0.0314208984375
0.02900390625
0.03544921875
0.0298095703125
0.033032226562499996
1.9916015624999999
2.9447021484375
3.0421875
3.0389648437499996
3.0389648437499996
3.0389648437499996
3.0389648437499996
3.037353515625
3.0389648437499996
3.0188232421874996
3.0389648437499996
2.848828125
2.91328125
2.8866943359375
2.876220703125
3.0381591796875
3.0389648437499996
3.0349365234374996
3.0397705078125
2.7247558593749996
3.0365478515624997
1.1674072265625
0.0322265625
0.033032226562499996
0.037060546874999996
0.037060546874999996
0.033032226562499996
0.0322265625
0.033032226562499996
0.0322265625
0.1087646484375
0.0322265625
0.298095703125
0.275537109375
0.3101806640625
0.31662597656249997
0.0314208984375
0.0346435546875
0.0314208984375
0.0322265625
0.033032226562499996
0.03544921875
0.9974121093749999
2.776318359375
3.0381591796875
3.043798828125
3.0357421875
3.0389648437499996
3.037353515625
3.0389648437499996
3.0389648437499996
3.0365478515624997
2.9970703125
3.037353515625
2.9438964843749997
2.9173095703125
2.874609375
3.037353515625
3.0421875
3.0365478515624997
3.0413818359375
3.0397705078125
1.91748046875
1.1577392578124999
0.16435546874999998
0.033032226562499996
0.0314208984375
0.030615234374999998
0.0314208984375
0.0322265625
0.033032226562499996
0.030615234374999998
0.030615234374999998
0.130517578125
0.28842773437499997
0.22075195312499998
0.301318359375
0.3391845703125
0.040283203125
0.030615234374999998
0.0314208984375
0.02900390625
0.0298095703125
0.033032226562499996
0.0322265625
2.760205078125
3.0397705078125
3.0381591796875
3.0421875
3.037353515625
3.0405761718749997
3.0389648437499996
3.0405761718749997
3.037353515625
2.9680664062499997
3.0397705078125
2.8713867187499997
2.8802490234375
2.83271484375
3.0365478515624997
3.0397705078125
3.0365478515624997
3.0365478515624997
3.037353515625
3.043798828125
0.2038330078125
0.8846191406249999
0.0298095703125
0.033032226562499996
0.033032226562499996
0.030615234374999998
0.030615234374999998
0.02578125
0.033032226562499996
0.037060546874999996
0.0966796875
0.057202148437499996
0.249755859375
0.2860107421875
0.3585205078125
0.033032226562499996
0.0298095703125
0.033032226562499996
0.0314208984375
0.033032226562499996
0.033837890625
0.0346435546875
2.1567626953125
2.8705810546875
3.0389648437499996
3.0381591796875
3.034130859375
3.0381591796875
3.0381591796875
3.0365478515624997
3.0357421875
3.0405761718749997
3.0381591796875
3.021240234375
2.9898193359375
2.8770263671875
3.0365478515624997
3.0365478515624997
3.0333251953125
3.037353515625
3.0389648437499996
3.0365478515624997
3.0397705078125
0.984521484375
0.12165527343749999
0.0314208984375
0.0322265625
0.0314208984375
0.033032226562499996
0.030615234374999998
0.033032226562499996
0.0249755859375
0.12568359375
0.030615234374999998
0.20866699218749998
0.339990234375
0.3673828125
0.0314208984375
0.0322265625
0.0314208984375
0.0298095703125
0.030615234374999998
0.0298095703125
0.0314208984375
1.5541259765625
2.4927246093749997
3.0389648437499996
3.037353515625
3.037353515625
3.0365478515624997
3.0381591796875
3.0397705078125
3.0365478515624997
3.0381591796875
2.99384765625
3.0405761718749997
3.0365478515624997
2.969677734375
2.8874999999999997
3.0349365234374996
3.0381591796875
3.0389648437499996
3.0349365234374996
2.908447265625
1.3752685546874999
2.14306640625
0.08056640625
0.030615234374999998
0.033032226562499996
0.0298095703125
0.030615234374999998
0.0314208984375
0.0346435546875
0.030615234374999998
0.0346435546875
0.15871582031249998
0.1426025390625
0.30454101562499997
0.3673828125
0.40605468749999996
0.0314208984375
0.03544921875
0.030615234374999998
0.0314208984375
0.0322265625
0.030615234374999998
0.0314208984375
2.193017578125
3.0349365234374996
3.037353515625
3.0405761718749997
3.0365478515624997
3.037353515625
3.0389648437499996
3.037353515625
3.037353515625
2.9962646484374997
2.8302978515625
2.9720947265624997
2.91650390625
2.9068359375
3.0389648437499996
3.037353515625
3.0397705078125
3.037353515625
3.034130859375
3.0389648437499996
0.468896484375
0.6147216796875
0.0346435546875
0.033837890625
0.0346435546875
0.0322265625
0.02900390625
0.0314208984375
0.0314208984375
0.02900390625
0.09426269531249999
0.033032226562499996
0.26828613281249997
0.2731201171875
0.3182373046875
0.0314208984375
0.03544921875
0.0362548828125
0.033032226562499996
0.0322265625
0.0322265625
0.033837890625
2.14306640625
3.0381591796875
3.0365478515624997
3.037353515625
3.037353515625
3.0397705078125
3.0365478515624997
3.0357421875
3.0389648437499996
3.0389648437499996
2.7424804687499997
2.98740234375
2.9044189453125
2.843994140625
3.0309082031249996
3.037353515625
3.0389648437499996
3.037353515625
3.037353515625
3.0357421875
1.15693359375
0.5325439453124999
0.030615234374999998
0.033032226562499996
0.0314208984375
0.0322265625
0.0322265625
0.030615234374999998
0.030615234374999998
0.033032226562499996
0.0322265625
0.54140625
0.2183349609375
0.3262939453125
0.35368652343749996
0.030615234374999998
0.0314208984375
0.033837890625
0.0322265625
0.0346435546875
0.033837890625
0.0322265625
2.09150390625
2.8738037109374996
3.0389648437499996
3.0397705078125
3.0389648437499996
3.0357421875
3.0405761718749997
3.0357421875
3.0389648437499996
3.0357421875
3.0413818359375
2.96484375
2.9422851562499996
2.900390625
2.9044189453125
3.037353515625
3.0405761718749997
3.0381591796875
3.0381591796875
2.0181884765625
3.0389648437499996
0.8193603515625
0.1232666015625
0.0314208984375
0.030615234374999998
0.0314208984375
0.0322265625
0.02900390625
0.0322265625
0.038671874999999994
0.0322265625
0.11037597656249999
0.2876220703125
0.269091796875
0.3150146484375
0.346435546875
0.0322265625
0.030615234374999998
0.033032226562499996
0.033837890625
0.033837890625
0.0314208984375
0.1812744140625
2.47822265625
3.037353515625
3.0381591796875
3.0365478515624997
3.0397705078125
3.0421875
3.0357421875
3.0405761718749997
3.0365478515624997
2.9817626953125
3.037353515625
2.9455078125
2.889111328125
2.8423828125
3.0365478515624997
3.0405761718749997
3.0365478515624997
3.037353515625
3.0389648437499996
2.6256591796874997
0.5148193359375
0.26103515625
0.0314208984375
0.0322265625
0.030615234374999998
0.0322265625
0.0314208984375
0.030615234374999998
0.033032226562499996
0.030615234374999998
0.10634765624999999
0.0314208984375
0.23283691406249998
0.32065429687499997
0.3424072265625
0.0314208984375
0.033837890625
0.0314208984375
0.033837890625
0.0314208984375
0.0314208984375
0.0322265625
2.38154296875
3.037353515625
3.034130859375
3.0381591796875
3.0389648437499996
3.0381591796875
3.0365478515624997
3.0397705078125
3.0381591796875
3.029296875
2.9173095703125
2.9261718749999996
2.9503417968749996
2.9068359375
3.0397705078125
3.0421875
3.0397705078125
3.0389648437499996
3.0381591796875
3.0381591796875
3.0397705078125
0.78310546875
0.0314208984375
0.030615234374999998
0.033032226562499996
0.033837890625
0.0322265625
0.0322265625
0.030615234374999998
0.0322265625
0.107958984375
0.1168212890625
0.30051269531249997
0.31904296875
0.36093749999999997
0.02900390625
0.037060546874999996
0.033032226562499996
0.0322265625
0.0322265625
0.0314208984375
0.0322265625
2.82626953125
3.0381591796875
3.0389648437499996
3.0389648437499996
3.0413818359375
3.0365478515624997
3.0365478515624997
3.0357421875
3.0405761718749997
3.0365478515624997
3.037353515625
3.0123779296874997
2.96162109375
2.8947509765625
3.037353515625
3.0365478515624997
3.037353515625
3.0365478515624997
3.0333251953125
2.4806396484374997
3.037353515625
0.9837158203124999
0.1409912109375
0.033032226562499996
0.0298095703125
0.0322265625
0.030615234374999998
0.0322265625
0.0314208984375
0.0322265625
0.0314208984375
0.027392578124999997
0.159521484375
0.252978515625
0.30937499999999996
0.033032226562499996
0.0314208984375
0.0314208984375
0.0314208984375
0.0298095703125
0.0314208984375
0.033837890625
0.201416015625
2.3879882812499997
2.96484375
3.0381591796875
3.0397705078125
3.0389648437499996
3.0349365234374996
3.0397705078125
3.0381591796875
3.0397705078125
3.0244628906249997
3.0421875
2.9882080078124997
2.9608154296875
2.9358398437499997
3.0389648437499996
3.0389648437499996
3.0405761718749997
3.0357421875
3.0397705078125
0.6171386718749999
2.083447265625
0.4552001953125
0.0314208984375
0.0322265625
0.0322265625
0.03544921875
0.0298095703125
0.02900390625
0.0346435546875
0.033032226562499996
0.159521484375
0.11279296875
0.28842773437499997
0.3158203125
0.3601318359375
0.0314208984375
0.0322265625
0.0322265625
0.0322265625
0.0346435546875
0.033837890625
0.030615234374999998
2.4371337890625
3.0421875
3.037353515625
3.0381591796875
3.037353515625
3.037353515625
3.0389648437499996
3.0381591796875
3.037353515625
3.021240234375
2.8174072265624996
2.963232421875
2.96162109375
2.8874999999999997
3.037353515625
3.0397705078125
3.037353515625
3.0389648437499996
3.0381591796875
3.0405761718749997
0.8958984375
0.604248046875
0.030615234374999998
0.0322265625
0.02900390625
0.033032226562499996
0.030615234374999998
0.0322265625
0.030615234374999998
0.0314208984375
0.10554199218749999
0.468896484375
0.2972900390625
0.2989013671875
0.36979980468749996
0.033032226562499996
0.0314208984375
0.0322265625
0.0322265625
0.0322265625
0.0322265625
0.030615234374999998
2.7384521484374997
3.0389648437499996
3.037353515625
3.0381591796875
3.0381591796875
3.037353515625
3.0365478515624997
3.0381591796875
3.0389648437499996
3.0228515624999996
2.6933349609375
2.9745117187499996
2.889111328125
2.8705810546875
3.0397705078125
3.0389648437499996
3.0405761718749997
3.0389648437499996
3.0365478515624997
2.4355224609375
1.9005615234375
0.7758544921874999
0.033837890625
0.033837890625
0.02900390625
0.030615234374999998
0.0314208984375
0.0298095703125
0.030615234374999998
0.030615234374999998
0.116015625
0.36899414062499997
0.1973876953125
0.22880859374999998
0.346435546875
0.0362548828125
0.030615234374999998
0.030615234374999998
0.0322265625
0.033032226562499996
0.0322265625
0.0322265625
2.1704589843749997
2.956787109375
3.0365478515624997
3.0365478515624997
3.037353515625
3.0389648437499996
3.0397705078125
3.0413818359375
3.0381591796875
3.0365478515624997
2.8681640625
2.8496337890624996
2.9100585937499996
2.8512451171874997
2.86494140625
3.037353515625
3.037353515625
3.0413818359375
3.0397705078125
3.037353515625
3.0389648437499996
1.4638916015624999
0.1893310546875
0.02578125
0.0322265625
0.0346435546875
0.02900390625
0.0322265625
0.0314208984375
0.0281982421875
0.116015625
0.39719238281249997
0.2900390625
0.262646484375
0.359326171875
0.38107910156249997
0.0314208984375
0.0322265625
0.03544921875
0.0314208984375
0.030615234374999998
0.030615234374999998
0.09829101562499999
2.3452880859375
3.0397705078125
3.0389648437499996
3.0405761718749997
3.037353515625
3.037353515625
3.0389648437499996
3.0405761718749997
3.0397705078125
3.0325195312499997
3.0397705078125
2.9495361328125
2.8883056640625
2.85849609375
3.0421875
3.0397705078125
3.0365478515624997
3.0389648437499996
3.0381591796875
3.0389648437499996
0.240087890625
0.1780517578125
0.0314208984375
0.030615234374999998
0.030615234374999998
0.030615234374999998
0.033837890625
0.033837890625
0.0281982421875
0.0322265625
0.16677246093749998
0.1152099609375
0.2972900390625
0.348046875
0.359326171875
0.0322265625
0.03544921875
0.030615234374999998
0.030615234374999998
0.0322265625
0.033837890625
0.033032226562499996
2.180126953125
3.0389648437499996
3.0389648437499996
3.0389648437499996
3.0421875
3.0389648437499996
3.0389648437499996
3.0389648437499996
3.037353515625
3.0309082031249996
3.0309082031249996
2.972900390625
2.9608154296875
2.9680664062499997
3.0357421875
3.037353515625
3.0333251953125
3.0381591796875
3.0333251953125
3.037353515625
0.0314208984375
0.6904541015625
0.0322265625
0.033032226562499996
0.030615234374999998
0.0281982421875
0.02900390625
0.0322265625
0.0322265625
0.0314208984375
0.08137207031249999
0.182080078125
0.22478027343749998
0.24733886718749998
0.294873046875
0.0314208984375
0.0322265625
0.030615234374999998
0.033032226562499996
0.0314208984375
0.02900390625
0.02900390625
2.2187988281249997
3.037353515625
3.0389648437499996
3.0397705078125
3.0397705078125
3.0413818359375
3.0389648437499996
3.0381591796875
3.0413818359375
3.0397705078125
3.0381591796875
2.9422851562499996
2.940673828125
2.8617187499999996
3.0405761718749997
3.037353515625
3.037353515625
3.0381591796875
3.0365478515624997
3.0446044921874997
3.0365478515624997
0.8991210937499999
0.13212890624999998
0.0322265625
0.0322265625
0.033032226562499996
0.0322265625
0.0322265625
0.0314208984375
0.033837890625
0.02900390625
0.033837890625
0.2513671875
0.2513671875
0.34562988281249996
0.043505859375
0.030615234374999998
0.033032226562499996
0.02578125
0.033837890625
0.030615234374999998
0.0322265625
1.3188720703124999
2.6981689453124997
3.037353515625
3.0365478515624997
3.0349365234374996
3.0349365234374996
3.0421875
3.0389648437499996
3.0389648437499996
3.037353515625
3.0083496093749997
3.0397705078125
2.9841796874999997
2.9237548828124997
2.9060302734374996
3.0365478515624997
3.037353515625
3.037353515625
3.0381591796875
3.0413818359375
0.1119873046875
2.2518310546875
0.688037109375
0.0314208984375
0.0322265625
0.0314208984375
0.0322265625
0.0281982421875
0.0322265625
0.033032226562499996
0.033837890625
0.1893310546875
0.061230468749999996
0.275537109375
0.35771484374999996
0.37060546875
0.0322265625
0.0314208984375
0.0322265625
0.0322265625
0.0281982421875
0.0281982421875
0.033032226562499996
2.2751953124999997
3.0309082031249996
3.0397705078125
3.037353515625
3.0381591796875
3.0357421875
3.0389648437499996
3.0389648437499996
3.0381591796875
2.9664550781249996
2.7021972656249997
2.8770263671875
2.8721923828125
2.834326171875
3.0397705078125
3.0389648437499996
3.037353515625
3.0365478515624997
3.0357421875
3.0429931640624996
1.4381103515625
0.800830078125
0.0281982421875
0.030615234374999998
0.0322265625
0.02900390625
0.0298095703125
0.0314208984375
0.0322265625
0.0322265625
0.0845947265625
0.3520751953125
0.2280029296875
0.2513671875
0.27231445312499997
0.030615234374999998
0.0298095703125
0.0298095703125
0.0322265625
0.0322265625
0.033032226562499996
0.0346435546875
2.6788330078125
3.0381591796875
3.037353515625
3.0381591796875
3.0365478515624997
3.037353515625
3.0397705078125
3.0389648437499996
3.0413818359375
3.037353515625
2.7626220703124997
2.9922363281249997
2.9438964843749997
2.872998046875
3.037353515625
3.0421875
3.0397705078125
3.037353515625
3.037353515625
1.5162597656249999
2.305810546875
1.071533203125
0.0314208984375
0.0281982421875
0.030615234374999998
0.0298095703125
0.0314208984375
0.0322265625
0.0314208984375
0.0322265625
0.0298095703125
0.33837890625
0.252978515625
0.3633544921875
0.4390869140625
0.0322265625
0.0322265625
0.033837890625
0.0346435546875
0.0314208984375
0.0346435546875
0.0322265625
2.1809326171875
2.79404296875
3.0381591796875
3.0405761718749997
3.0389648437499996
3.0357421875
3.0421875
3.0405761718749997
3.0405761718749997
2.9841796874999997
2.7811523437499996
2.9438964843749997
2.9334228515625
2.8367431640625
2.7988769531249997
3.0381591796875
3.037353515625
3.0357421875
3.0381591796875
1.791796875
3.0349365234374996
1.4912841796874998
0.2199462890625
0.0322265625
0.0322265625
0.033032226562499996
0.030615234374999998
0.033837890625
0.03544921875
0.0322265625
0.030615234374999998
0.3585205078125
0.240087890625
0.23686523437499998
0.2698974609375
0.2900390625
0.0298095703125
0.033837890625
0.033032226562499996
0.0314208984375
0.02900390625
0.0322265625
0.0322265625
2.3235351562499997
3.037353515625
3.0429931640624996
3.0389648437499996
3.0405761718749997
3.037353515625
3.0389648437499996
3.037353515625
3.0357421875
2.9664550781249996
2.99384765625
2.89072265625
2.8190185546874997
2.7867919921874997
3.0389648437499996
3.0357421875
3.0325195312499997
3.0381591796875
3.0365478515624997
3.037353515625
0.0314208984375
0.270703125
0.0322265625
0.0322265625
0.033032226562499996
0.027392578124999997
0.0298095703125
0.0298095703125
0.0346435546875
0.02900390625
0.10151367187499999
0.107958984375
0.2215576171875
0.2360595703125
0.2811767578125
0.0322265625
0.033032226562499996
0.0281982421875
0.037060546874999996
0.0322265625
0.02900390625
0.038671874999999994
2.4451904296875
3.0357421875
3.0389648437499996
3.0405761718749997
3.0421875
3.0365478515624997
3.0381591796875
3.0405761718749997
3.0381591796875
3.0357421875
2.9173095703125
2.9543701171874996
2.9156982421874997
2.9181152343749996
3.0365478515624997
3.0349365234374996
3.0381591796875
3.0365478515624997
3.0389648437499996
3.0325195312499997
0.44794921875
0.507568359375
0.0322265625
0.0314208984375
0.0322265625
0.037060546874999996
0.02900390625
0.0281982421875
0.0346435546875
0.0322265625
0.0362548828125
0.3601318359375
0.270703125
0.32548828124999996
0.39638671875
0.0314208984375
0.0314208984375
0.030615234374999998
0.030615234374999998
0.0298095703125
0.0346435546875
0.033032226562499996
2.3630126953125
3.0486328124999997
3.0381591796875
3.0381591796875
3.0389648437499996
3.0389648437499996
3.0381591796875
3.0389648437499996
3.0389648437499996
3.0381591796875
3.034130859375
2.9519531249999997
2.96484375
2.8963623046875
2.8883056640625
3.0381591796875
3.037353515625
3.037353515625
3.037353515625
3.037353515625
3.0357421875
0.897509765625
0.175634765625
0.0314208984375
0.0298095703125
0.0322265625
0.02900390625
0.030615234374999998
0.0298095703125
0.030615234374999998
0.061230468749999996
0.0298095703125
0.2199462890625
0.23283691406249998
0.2908447265625
0.26022949218749997
0.0346435546875
0.033837890625
0.0346435546875
0.033032226562499996
0.02900390625
0.0314208984375
1.20849609375
2.9841796874999997
3.037353515625
3.0365478515624997
3.0397705078125
3.0349365234374996
3.037353515625
3.0389648437499996
3.0405761718749997
3.037353515625
3.0083496093749997
3.0389648437499996
2.889111328125
2.9108642578125
2.8689697265625
3.0389648437499996
3.0381591796875
3.0389648437499996
3.0381591796875
3.0365478515624997
0.8121093749999999
1.53076171875
0.149853515625
0.033032226562499996
0.0314208984375
0.03544921875
0.0281982421875
0.0314208984375
0.0314208984375
0.0314208984375
0.0314208984375
0.10554199218749999
0.018530273437499998
0.23928222656249998
0.33354492187499996
0.33354492187499996
0.0298095703125
0.02900390625
0.0322265625
0.033837890625
0.0346435546875
0.0346435546875
0.0314208984375
2.309033203125
3.0389648437499996
3.0381591796875
3.0357421875
3.0397705078125
3.0365478515624997
3.037353515625
3.0405761718749997
3.0405761718749997
3.0317138671875
2.8214355468749996
2.9737060546875
2.99384765625
2.9422851562499996
3.037353515625
3.037353515625
3.037353515625
3.0389648437499996
3.0381591796875
3.0389648437499996
2.43955078125
0.88623046875
0.0322265625
0.0314208984375
0.0322265625
0.0314208984375
0.0298095703125
0.0281982421875
0.02900390625
0.0346435546875
0.15146484375
0.0346435546875
0.27392578125
0.29326171875
0.34160156249999996
0.0346435546875
0.0346435546875
0.0346435546875
0.0314208984375
0.0298095703125
0.033032226562499996
0.026586914062499998
2.4556640625
2.9495361328125
3.0349365234374996
3.0413818359375
3.0389648437499996
3.0333251953125
3.0381591796875
3.034130859375
3.0413818359375
3.037353515625
3.0365478515624997
3.02607421875
3.0172119140625
2.9036132812499997
3.0365478515624997
3.0389648437499996
3.0349365234374996
3.0389648437499996
3.0389648437499996
1.5887695312499999
3.0405761718749997
1.077978515625
0.0378662109375
0.02900390625
0.02900390625
0.03544921875
0.033032226562499996
0.02900390625
0.033032226562499996
0.0314208984375
0.033032226562499996
0.0314208984375
0.12810058593749998
0.198193359375
0.22719726562499998
0.02900390625
0.0322265625
0.0314208984375
0.03544921875
0.030615234374999998
0.033837890625
0.033837890625
1.848193359375
2.8681640625
3.0389648437499996
3.0389648437499996
3.0405761718749997
3.0397705078125
3.0405761718749997
3.0381591796875
3.0357421875
3.0365478515624997
2.8141845703125
2.9334228515625
2.91650390625
2.8496337890624996
2.8077392578125
3.0389648437499996
3.0365478515624997
3.0421875
3.0381591796875
3.0389648437499996
2.5628173828125
1.8377197265624998
0.27634277343749997
0.0362548828125
0.0314208984375
0.033032226562499996
0.03544921875
0.03544921875
0.0322265625
0.033837890625
0.02900390625
0.252978515625
0.1973876953125
0.24492187499999998
0.34160156249999996
0.348046875
0.030615234374999998
0.0322265625
0.0322265625
0.033032226562499996
0.0322265625
0.0322265625
0.0298095703125
2.4758056640625
3.0397705078125
3.0413818359375
3.0397705078125
3.0421875
3.0365478515624997
3.0389648437499996
3.0357421875
3.0413818359375
3.0365478515624997
2.9720947265624997
2.9841796874999997
2.914892578125
2.9060302734374996
3.037353515625
3.0365478515624997
3.0421875
3.0381591796875
3.037353515625
3.0389648437499996
0.38510742187499997
0.4326416015625
0.033032226562499996
0.02900390625
0.033032226562499996
0.03544921875
0.033032226562499996
0.0322265625
0.0346435546875
0.0281982421875
0.0845947265625
0.34160156249999996
0.2940673828125
0.3101806640625
0.3472412109375
0.0298095703125
0.0322265625
0.0314208984375
0.02900390625
0.0298095703125
0.0322265625
0.0298095703125
2.0431640625
2.9559814453124997
3.0389648437499996
3.0446044921874997
3.0405761718749997
3.0405761718749997
3.0365478515624997
3.0349365234374996
3.0389648437499996
3.0268798828124996
3.0365478515624997
2.9358398437499997
2.905224609375
2.8883056640625
3.0397705078125
3.0389648437499996
3.034130859375
3.0381591796875
3.0365478515624997
3.0413818359375
3.0365478515624997
0.6856201171874999
0.0281982421875
0.0281982421875
0.033837890625
0.033032226562499996
0.02900390625
0.0314208984375
0.0346435546875
0.0314208984375
0.062841796875
0.4004150390625
0.22236328125
0.269091796875
0.32548828124999996
0.033837890625
0.02900390625
0.0322265625
0.0346435546875
0.0346435546875
0.0322265625
0.033032226562499996
1.8844482421875
2.7650390624999996
3.0381591796875
3.0381591796875
3.034130859375
3.0325195312499997
3.0389648437499996
3.037353515625
3.0349365234374996
3.0397705078125
3.037353515625
2.8689697265625
2.91328125
2.9108642578125
2.8939453124999996
3.0317138671875
3.0389648437499996
3.0381591796875
3.0397705078125
3.0429931640624996
3.0357421875
0.994189453125
0.15227050781249998
0.0314208984375
0.0322265625
0.0322265625
0.030615234374999998
0.02578125
0.0322265625
0.033032226562499996
0.0314208984375
0.04833984375
0.28037109374999997
0.23203125
0.314208984375
0.35288085937499997
0.033032226562499996
0.0322265625
0.0322265625
0.033032226562499996
0.026586914062499998
0.0298095703125
1.6967285156249998
3.0381591796875
3.034130859375
3.0397705078125
3.0389648437499996
3.0389648437499996
3.0325195312499997
3.0405761718749997
3.0421875
3.0421875
3.0381591796875
3.037353515625
2.9455078125
2.91328125
2.8552734374999997
3.037353515625
3.037353515625
3.0381591796875
3.0389648437499996
3.0421875
2.164013671875
0.9958007812499999
0.8507812499999999
0.033032226562499996
0.0298095703125
0.0322265625
0.02900390625
0.033032226562499996
0.03544921875
0.03544921875
0.026586914062499998
0.103125
0.033837890625
0.2360595703125
0.29970703125
0.33354492187499996
0.0346435546875
0.038671874999999994
0.0322265625
0.033837890625
0.0346435546875
0.03544921875
0.033032226562499996
2.6337158203124997
3.0413818359375
3.0365478515624997
3.037353515625
3.0389648437499996
3.0357421875
3.037353515625
3.0389648437499996
3.0365478515624997
3.0357421875
3.0365478515624997
2.94873046875
2.9455078125
2.8576904296874996
3.0381591796875
3.0357421875
3.0365478515624997
3.0365478515624997
3.037353515625
3.034130859375
3.0357421875
0.78955078125
0.030615234374999998
0.0322265625
0.033032226562499996
0.02900390625
0.033032226562499996
0.0314208984375
0.0322265625
0.0346435546875
0.0346435546875
0.0314208984375
0.24169921875
0.252978515625
0.323876953125
0.0322265625
0.0322265625
0.033032226562499996
0.033032226562499996
0.0314208984375
0.0322265625
0.0314208984375
2.3388427734375
3.0228515624999996
3.0381591796875
3.0389648437499996
3.0365478515624997
3.037353515625
3.0389648437499996
3.0365478515624997
3.0389648437499996
3.0389648437499996
2.856884765625
2.99384765625
2.9986816406249996
2.89716796875
3.0389648437499996
3.0357421875
3.0349365234374996
3.0397705078125
3.0405761718749997
2.4911132812499996
2.238134765625
0.863671875
0.091845703125
0.0249755859375
0.0322265625
0.0346435546875
0.0322265625
0.027392578124999997
0.0322265625
0.027392578124999997
0.0322265625
0.033032226562499996
0.2022216796875
0.28842773437499997
0.36899414062499997
0.0346435546875
0.0298095703125
0.0322265625
0.0322265625
0.0314208984375
0.0314208984375
0.0281982421875
1.931982421875
2.8874999999999997
3.0357421875
3.0365478515624997
3.0381591796875
3.0365478515624997
3.0389648437499996
3.0349365234374996
3.0381591796875
3.0405761718749997
3.0164062499999997
3.0365478515624997
2.98095703125
2.908447265625
2.8697753906249996
3.0381591796875
3.0389648437499996
3.0421875
3.0389648437499996
3.0413818359375
0.765380859375
2.0890869140625
0.4890380859375
0.037060546874999996
0.02900390625
0.02900390625
0.03544921875
0.0298095703125
0.0322265625
0.0322265625
0.0314208984375
0.103125
0.0829833984375
0.2199462890625
0.3101806640625
0.34562988281249996
0.0322265625
0.033837890625
0.03544921875
0.033032226562499996
0.0314208984375
0.0322265625
0.026586914062499998
2.012548828125
3.0027099609374996
3.0389648437499996
3.0405761718749997
3.0389648437499996
3.037353515625
3.0429931640624996
3.0389648437499996
3.0381591796875
3.0107666015624996
2.7424804687499997
2.9124755859375
2.882666015625
2.8536621093749996
3.037353515625
3.037353515625
3.0349365234374996
3.0381591796875
3.0389648437499996
3.0381591796875
0.6388916015624999
0.6018310546875
0.027392578124999997
0.033032226562499996
0.030615234374999998
0.033032226562499996
0.0322265625
0.0346435546875
0.027392578124999997
0.030615234374999998
0.054785156249999994
0.38349609375
0.21914062499999998
0.2747314453125
0.339990234375
0.0314208984375
0.0322265625
0.0314208984375
0.030615234374999998
0.0322265625
0.0281982421875
0.030615234374999998
2.1551513671875
3.0381591796875
3.0381591796875
3.0381591796875
3.0381591796875
3.0357421875
3.0421875
3.0389648437499996
3.037353515625
3.0357421875
3.0389648437499996
3.01318359375
2.9841796874999997
2.9712890625
3.037353515625
3.037353515625
3.037353515625
3.0397705078125
3.0381591796875
2.230078125
3.0389648437499996
0.6276123046875
0.0322265625
0.030615234374999998
0.0322265625
0.0346435546875
0.033837890625
0.04189453125
0.0298095703125
0.02900390625
0.02900390625
0.169189453125
0.19658203124999998
0.330322265625
0.346435546875
0.0346435546875
0.030615234374999998
0.030615234374999998
0.033837890625
0.0314208984375
0.033032226562499996
0.0322265625
2.0761962890625
2.76826171875
3.0397705078125
3.0389648437499996
3.0333251953125
3.0405761718749997
3.0397705078125
3.037353515625
3.0389648437499996
3.0365478515624997
2.79404296875
2.88427734375
2.9769287109375
2.914892578125
2.9068359375
3.0381591796875
3.034130859375
3.0405761718749997
3.0389648437499996
3.0357421875
3.0397705078125
1.4332763671875
0.214306640625
0.0314208984375
0.0314208984375
0.0322265625
0.0314208984375
0.0322265625
0.030615234374999998
0.02900390625
0.0580078125
0.38188476562499996
0.2553955078125
0.20463867187499998
0.285205078125
0.33837890625
0.0281982421875
0.02900390625
0.033837890625
0.030615234374999998
0.0322265625
0.0322265625
0.027392578124999997
2.176904296875
3.0236572265625
3.04541015625
3.0381591796875
3.0389648437499996
3.0389648437499996
3.0349365234374996
3.0389648437499996
3.037353515625
3.02607421875
3.037353515625
2.9559814453124997
2.9672607421875
2.9197265624999997
3.037353515625
3.0365478515624997
3.0413818359375
3.0381591796875
3.0389648437499996
3.0397705078125
0.0314208984375
0.734765625
0.033837890625
0.030615234374999998
0.0322265625
0.0298095703125
0.030615234374999998
0.0314208984375
0.030615234374999998
0.033032226562499996
0.1506591796875
0.153076171875
0.26748046875
0.330322265625
0.37705078124999997
0.0314208984375
0.0314208984375
0.0314208984375
0.033032226562499996
0.030615234374999998
0.0314208984375
0.0314208984375
2.8947509765625
3.0421875
3.0381591796875
3.037353515625
3.0397705078125
3.037353515625
3.0365478515624997
3.0365478515624997
3.0397705078125
3.0381591796875
3.0413818359375
3.0002929687499997
2.963232421875
2.924560546875
3.037353515625
3.0389648437499996
3.037353515625
3.0389648437499996
3.0405761718749997
3.037353515625
3.0429931640624996
0.5454345703125
0.0346435546875
0.033032226562499996
0.0281982421875
0.0322265625
0.037060546874999996
0.02900390625
0.0314208984375
0.0314208984375
0.09748535156249999
0.030615234374999998
0.24733886718749998
0.30051269531249997
0.34160156249999996
0.0314208984375
0.0322265625
0.0298095703125
0.033032226562499996
0.0346435546875
0.033837890625
0.0314208984375
1.6459716796875
2.995458984375
3.0365478515624997
3.0421875
3.037353515625
3.0389648437499996
3.0365478515624997
3.037353515625
3.0357421875
3.0389648437499996
3.0236572265625
2.8850830078125
2.9608154296875
2.8947509765625
2.9946533203124996
3.0389648437499996
3.0381591796875
3.0405761718749997
3.0357421875
3.0421875
0.2199462890625
1.0562255859375
0.20705566406249998
0.0322265625
0.033032226562499996
0.0346435546875
0.0322265625
0.03544921875
0.0314208984375
0.0314208984375
0.02578125
0.030615234374999998
0.20625
0.1732177734375
0.2795654296875
0.265869140625
0.033032226562499996
0.0314208984375
0.0322265625
0.0346435546875
0.0322265625
0.03544921875
0.030615234374999998
2.6490234375
3.0413818359375
3.0389648437499996
3.0421875
3.0381591796875
3.0381591796875
3.0389648437499996
3.0397705078125
3.0381591796875
3.027685546875
3.0405761718749997
2.9326171875
2.9100585937499996
2.8963623046875
3.0389648437499996
3.0365478515624997
3.0421875
3.037353515625
3.0365478515624997
0.4310302734375
1.525927734375
0.791162109375
0.0314208984375
0.0322265625
0.0281982421875
0.0322265625
0.0314208984375
0.0322265625
0.02900390625
0.0346435546875
0.1409912109375
0.0322265625
0.269091796875
0.3424072265625
0.38510742187499997
0.0298095703125
0.030615234374999998
0.033032226562499996
0.0314208984375
0.0322265625
0.030615234374999998
0.0322265625
2.4113525390625
3.0381591796875
3.037353515625
3.037353515625
3.037353515625
3.0357421875
3.0421875
3.0397705078125
3.0397705078125
3.0389648437499996
2.8302978515625
3.0333251953125
3.0002929687499997
2.963232421875
3.0421875
3.0309082031249996
3.0381591796875
3.0381591796875
3.0365478515624997
3.0397705078125
2.3315917968749997
0.7984130859374999
0.0346435546875
0.0298095703125
0.0322265625
0.02900390625
0.030615234374999998
0.030615234374999998
0.03544921875
0.02900390625
0.0926513671875
0.36093749999999997
0.29970703125
0.314208984375
0.3037353515625
0.0314208984375
0.0322265625
0.0322265625
0.0314208984375
0.02900390625
0.0322265625
0.0314208984375
1.8578613281249998
2.9068359375
3.0405761718749997
3.0397705078125
3.037353515625
3.0413818359375
3.0389648437499996
3.0389648437499996
3.0365478515624997
3.0349365234374996
2.7650390624999996
2.9664550781249996
2.9326171875
2.8713867187499997
3.0365478515624997
3.0357421875
3.034130859375
3.0365478515624997
3.0397705078125
1.525927734375
3.0365478515624997
1.0948974609375
0.033032226562499996
0.0298095703125
0.0298095703125
0.030615234374999998
0.0314208984375
0.023364257812499997
0.033032226562499996
0.0322265625
0.1039306640625
0.443115234375
0.1248779296875
0.2022216796875
0.26425781249999997
0.030615234374999998
0.0322265625
0.033837890625
0.0314208984375
0.0322265625
0.0314208984375
0.0346435546875
1.9625976562499998
2.8738037109374996
3.037353515625
3.0405761718749997
3.0365478515624997
3.0381591796875
3.037353515625
3.0349365234374996
3.0381591796875
3.0349365234374996
2.9398681640624997
2.953564453125
2.9334228515625
2.9479248046874997
2.85205078125
3.0365478515624997
3.0365478515624997
3.037353515625
3.037353515625
3.0381591796875
2.6804443359374996
1.8167724609375
0.2441162109375
0.02900390625
0.033032226562499996
0.030615234374999998
0.0314208984375
0.0298095703125
0.0314208984375
0.033837890625
0.02900390625
0.2135009765625
0.2102783203125
0.26103515625
0.3544921875
0.38671875
0.030615234374999998
0.026586914062499998
0.033837890625
0.0281982421875
0.0314208984375
0.0346435546875
0.5260986328125
2.064111328125
3.0389648437499996
3.0389648437499996
3.0381591796875
3.0381591796875
3.0365478515624997
3.0429931640624996
3.0365478515624997
3.037353515625
3.0365478515624997
2.940673828125
2.9583984374999996
2.9358398437499997
2.8480224609375
3.0333251953125
3.0389648437499996
3.0381591796875
3.0413818359375
3.0357421875
3.0405761718749997
0.3681884765625
0.5631591796875
0.0298095703125
0.0314208984375
0.0322265625
0.030615234374999998
0.0346435546875
0.0314208984375
0.033837890625
0.02900390625
0.0314208984375
0.26022949218749997
0.185302734375
0.26425781249999997
0.294873046875
0.033837890625
0.0314208984375
0.0362548828125
0.0322265625
0.02900390625
0.0322265625
0.033032226562499996
1.9392333984374999
3.034130859375
3.0365478515624997
3.0381591796875
3.0405761718749997
3.0349365234374996
3.037353515625
3.0405761718749997
3.037353515625
3.0389648437499996
3.0397705078125
2.9680664062499997
2.9479248046874997
2.8963623046875
2.9745117187499996
3.0365478515624997
3.0389648437499996
3.037353515625
3.0389648437499996
3.0389648437499996
3.037353515625
0.6380859375
0.0314208984375
0.02900390625
0.033032226562499996
0.033032226562499996
0.0314208984375
0.0322265625
0.0298095703125
0.0322265625
0.10151367187499999
0.0314208984375
0.17241210937499998
0.2537841796875
0.31904296875
0.030615234374999998
0.0322265625
0.0298095703125
0.030615234374999998
0.0346435546875
0.033837890625
0.0298095703125
0.526904296875
2.9745117187499996
3.0405761718749997
3.0397705078125
3.0389648437499996
3.0413818359375
3.0405761718749997
3.0357421875
3.0381591796875
3.0381591796875
3.0357421875
2.9020019531249996
2.914892578125
2.8955566406249997
2.866552734375
3.037353515625
3.037353515625
3.0381591796875
3.0405761718749997
3.0349365234374996
0.5285156249999999
0.81533203125
0.19255371093749998
0.033032226562499996
0.033032226562499996
0.0346435546875
0.033032226562499996
0.033032226562499996
0.0314208984375
0.030615234374999998
0.0322265625
0.02900390625
0.31904296875
0.27231445312499997
0.35368652343749996
0.3673828125
0.0322265625
0.0314208984375
0.037060546874999996
0.0322265625
0.0314208984375
0.0346435546875
0.69287109375
2.383154296875
2.9712890625
3.0389648437499996
3.0365478515624997
3.0357421875
3.0389648437499996
3.037353515625
3.0397705078125
3.0365478515624997
3.0099609375
3.0389648437499996
2.963232421875
2.947119140625
2.9237548828124997
3.0397705078125
3.0325195312499997
3.0421875
3.037353515625
3.034130859375
2.0197998046875
0.7307373046875
0.8926757812499999
0.0346435546875
0.033837890625
0.0281982421875
0.0314208984375
0.0322265625
0.03544921875
0.0314208984375
0.02900390625
0.12890625
0.0346435546875
0.27231445312499997
0.314208984375
0.3311279296875
0.033032226562499996
0.0322265625
0.0314208984375
0.027392578124999997
0.0346435546875
0.0314208984375
0.0298095703125
2.328369140625
2.9825683593749996
3.0397705078125
3.0421875
3.0365478515624997
3.0365478515624997
3.0397705078125
3.037353515625
3.0357421875
3.0317138671875
2.9624267578124996
2.9978759765625
2.9173095703125
2.9020019531249996
3.0349365234374996
3.0389648437499996
3.0397705078125
3.0389648437499996
3.0349365234374996
3.0381591796875
3.0405761718749997
1.116650390625
0.033032226562499996
0.03544921875
0.033032226562499996
0.030615234374999998
0.0314208984375
0.02900390625
0.0314208984375
0.0314208984375
0.10231933593749999
0.08056640625
0.31340332031249996
0.33676757812499997
0.39719238281249997
0.0322265625
0.0314208984375
0.0322265625
0.037060546874999996
0.030615234374999998
0.02900390625
0.0346435546875
1.9118408203125
3.0397705078125
3.0381591796875
3.0405761718749997
3.0389648437499996
3.0381591796875
3.0421875
3.0381591796875
3.0389648437499996
3.037353515625
2.7884033203125
3.0381591796875
3.037353515625
2.9495361328125
3.0357421875
3.034130859375
3.0357421875
3.0389648437499996
3.0381591796875
2.39765625
2.318701171875
0.7516845703124999
0.0580078125
0.030615234374999998
0.0322265625
0.0281982421875
0.033837890625
0.0322265625
0.0314208984375
0.0322265625
0.0314208984375
0.0346435546875
0.17080078124999998
0.252978515625
0.294873046875
0.03544921875
0.037060546874999996
0.0322265625
0.033837890625
0.033032226562499996
0.0298095703125
0.033837890625
1.49853515625
2.5716796874999996
3.0357421875
3.0365478515624997
3.0357421875
3.0389648437499996
3.0381591796875
3.037353515625
3.0389648437499996
3.0397705078125
2.9495361328125
3.0301025390625
2.9503417968749996
2.8939453124999996
2.8302978515625
3.0397705078125
3.0357421875
3.037353515625
3.0333251953125
3.0397705078125
0.6211669921874999
2.1382324218749997
0.47856445312499996
0.0322265625
0.0314208984375
0.0314208984375
0.0281982421875
0.0314208984375
0.030615234374999998
0.0314208984375
0.0346435546875
0.1071533203125
0.0394775390625
0.22719726562499998
0.275537109375
0.3391845703125
0.030615234374999998
0.030615234374999998
0.0281982421875
0.0322265625
0.033032226562499996
0.033032226562499996
0.0362548828125
2.12373046875
3.0365478515624997
3.0405761718749997
3.0389648437499996
3.0349365234374996
3.037353515625
3.0389648437499996
3.0349365234374996
3.037353515625
3.0164062499999997
2.8133789062499996
2.937451171875
2.9479248046874997
2.9044189453125
3.0389648437499996
3.037353515625
3.0397705078125
3.043798828125
3.0397705078125
3.0405761718749997
0.82177734375
0.546240234375
0.033837890625
0.03544921875
0.030615234374999998
0.0314208984375
0.0322265625
0.033837890625
0.033837890625
0.030615234374999998
0.11843261718749999
0.4680908203125
0.201416015625
0.310986328125
0.3262939453125
0.0314208984375
0.0322265625
0.0322265625
0.0362548828125
0.0322265625
0.0298095703125
0.0169189453125
1.8780029296874998
2.9438964843749997
3.0405761718749997
3.0349365234374996
3.0381591796875
3.0397705078125
3.0389648437499996
3.0389648437499996
3.037353515625
3.037353515625
3.037353515625
3.029296875
2.9495361328125
2.92294921875
2.92939453125
3.0397705078125
3.037353515625
3.0389648437499996
3.0381591796875
2.5354248046874996
3.0389648437499996
0.5244873046874999
0.0314208984375
0.030615234374999998
0.0249755859375
0.0314208984375
0.033032226562499996
0.033837890625
0.033032226562499996
0.0298095703125
0.0362548828125
0.0459228515625
0.2263916015625
0.3359619140625
0.41411132812499996
0.0322265625
0.033032226562499996
0.0322265625
0.030615234374999998
0.033837890625
0.033032226562499996
0.0322265625
0.0281982421875
2.624853515625
3.0381591796875
3.037353515625
3.034130859375
3.0365478515624997
3.0389648437499996
3.0357421875
3.0389648437499996
3.0357421875
2.9946533203124996
2.8673583984374997
2.953564453125
2.9285888671875
2.91650390625
3.0397705078125
3.0405761718749997
3.0365478515624997
3.037353515625
3.0381591796875
2.38154296875
1.5589599609375
0.34160156249999996
0.0314208984375
0.033837890625
0.03544921875
0.0298095703125
0.0314208984375
0.0322265625
0.0845947265625
0.040283203125
0.35288085937499997
0.3182373046875
0.2425048828125
0.291650390625
0.33354492187499996
0.030615234374999998
0.0322265625
0.033837890625
0.0362548828125
0.0322265625
0.0322265625
0.0314208984375
2.466943359375
3.0381591796875
3.0381591796875
3.0429931640624996
3.0365478515624997
3.0381591796875
3.0397705078125
3.037353515625
3.0381591796875
3.0002929687499997
3.0389648437499996
2.92294921875
2.9656494140625
2.9334228515625
3.0349365234374996
3.0357421875
3.0365478515624997
3.0381591796875
3.0357421875
3.0389648437499996
0.278759765625
0.8185546874999999
0.033032226562499996
0.0322265625
0.02900390625
0.033837890625
0.0314208984375
0.030615234374999998
0.0346435546875
0.026586914062499998
0.1740234375
0.11843261718749999
0.31662597656249997
0.37302246093749997
0.40122070312499997
0.0314208984375
0.033032226562499996
0.0322265625
0.033032226562499996
0.0322265625
0.0322265625
0.030615234374999998
2.7561767578125
3.0333251953125
3.0365478515624997
3.0365478515624997
3.0397705078125
3.0357421875
3.0365478515624997
3.0381591796875
3.0365478515624997
3.02607421875
3.0413818359375
3.0317138671875
2.9688720703125
2.9318115234374997
3.0365478515624997
3.0349365234374996
3.0389648437499996
3.0389648437499996
3.0389648437499996
3.037353515625
3.0389648437499996
0.758935546875
0.0314208984375
0.03544921875
0.02900390625
0.033032226562499996
0.0314208984375
0.0281982421875
0.0314208984375
0.0322265625
0.10554199218749999
0.033837890625
0.2634521484375
0.31662597656249997
0.3746337890625
0.0322265625
0.0322265625
0.03544921875
0.02900390625
0.027392578124999997
0.0298095703125
0.0322265625
1.384130859375
2.9390625
3.0389648437499996
3.0301025390625
3.0381591796875
3.0389648437499996
3.037353515625
3.0381591796875
3.0405761718749997
3.034130859375
2.9930419921875
2.9600097656249997
2.9664550781249996
2.921337890625
3.0381591796875
3.0349365234374996
3.0397705078125
3.0389648437499996
3.0389648437499996
3.0381591796875
0.488232421875
0.9273193359374999
0.136962890625
0.0322265625
0.033032226562499996
0.0314208984375
0.0298095703125
0.0314208984375
0.0314208984375
0.033032226562499996
0.0322265625
0.0281982421875
0.1812744140625
0.22316894531249998
0.27392578125
0.146630859375
0.03544921875
0.033837890625
0.033032226562499996
0.030615234374999998
0.0322265625
0.033032226562499996
1.0111083984375
2.9269775390625
3.0470214843749996
3.037353515625
3.0405761718749997
3.0357421875
3.0389648437499996
3.0381591796875
3.0381591796875
3.037353515625
3.0099609375
3.0405761718749997
2.9269775390625
2.9036132812499997
2.9036132812499997
3.0397705078125
3.0365478515624997
3.0357421875
3.0389648437499996
3.037353515625
0.0749267578125
2.067333984375
0.6791748046874999
0.0298095703125
0.0362548828125
0.030615234374999998
0.0281982421875
0.030615234374999998
0.0314208984375
0.0298095703125
0.02578125
0.17080078124999998
0.030615234374999998
0.2570068359375
0.314208984375
0.34885253906249997
0.033032226562499996
0.02900390625
0.0322265625
0.0322265625
0.0298095703125
0.033837890625
0.033837890625
2.4169921875
3.0389648437499996
3.0381591796875
3.0397705078125
3.037353515625
3.0365478515624997
3.0389648437499996
3.0381591796875
3.037353515625
3.0365478515624997
2.7626220703124997
2.9156982421874997
2.963232421875
2.8673583984374997
3.0381591796875
3.0389648437499996
3.037353515625
3.0365478515624997
3.037353515625
3.0365478515624997
1.8715576171875
0.8096923828125
0.0314208984375
0.0298095703125
0.030615234374999998
0.030615234374999998
0.0314208984375
0.0281982421875
0.0314208984375
0.0314208984375
0.07734374999999999
0.456005859375
0.30615234375
0.33273925781249997
0.343212890625
0.030615234374999998
0.030615234374999998
0.0346435546875
0.0314208984375
0.0322265625
0.0314208984375
0.0322265625
2.358984375
3.0365478515624997
3.0429931640624996
3.0381591796875
3.0429931640624996
3.0389648437499996
3.0389648437499996
3.0413818359375
3.0365478515624997
3.0405761718749997
2.9358398437499997
2.9608154296875
2.889111328125
2.874609375
3.0389648437499996
3.0397705078125
3.0381591796875
3.0397705078125
3.0349365234374996
1.5170654296875
3.0381591796875
1.0562255859375
0.0314208984375
0.0314208984375
0.02900390625
0.043505859375
0.033837890625
0.0314208984375
0.0346435546875
0.0322265625
0.1232666015625
0.22478027343749998
0.159521484375
0.2537841796875
0.2771484375
0.030615234374999998
0.0322265625
0.0314208984375
0.0314208984375
0.0314208984375
0.0322265625
0.033837890625
2.0214111328124997
2.7650390624999996
3.0421875
3.0365478515624997
3.0389648437499996
3.0397705078125
3.034130859375
3.0389648437499996
3.0349365234374996
3.037353515625
2.818212890625
2.947119140625
2.956787109375
2.9173095703125
2.8673583984374997
3.0397705078125
3.0349365234374996
3.037353515625
3.037353515625
3.0381591796875
3.0357421875
1.5025634765625
0.20705566406249998
0.033032226562499996
0.0314208984375
0.023364257812499997
0.0322265625
0.0314208984375
0.0314208984375
0.033032226562499996
0.02900390625
0.37302246093749997
0.29245605468749997
0.2715087890625
0.29326171875
0.2771484375
0.03544921875
0.0346435546875
0.030615234374999998
0.0322265625
0.0314208984375
0.033837890625
0.0346435546875
2.031884765625
3.0357421875
3.0381591796875
3.0357421875
3.0381591796875
3.034130859375
3.0365478515624997
3.0389648437499996
3.0381591796875
3.0083496093749997
3.0220458984375
2.9519531249999997
2.8979736328124996
2.8391601562499997
3.037353515625
3.0365478515624997
3.0389648437499996
3.037353515625
3.0397705078125
3.0365478515624997
0.207861328125
0.26828613281249997
0.0322265625
0.0314208984375
0.0322265625
0.0298095703125
0.0362548828125
0.0322265625
0.0314208984375
0.030615234374999998
0.09023437499999999
0.18288574218749998
0.214306640625
0.270703125
0.28359375
0.033032226562499996
0.0314208984375
0.0322265625
0.0346435546875
0.0322265625
0.0322265625
0.0346435546875
2.2179931640625
3.0397705078125
3.0381591796875
3.0389648437499996
3.0389648437499996
3.0389648437499996
3.0421875
3.0381591796875
3.0381591796875
3.034130859375
3.037353515625
2.9253662109375
2.9455078125
2.9036132812499997
3.0381591796875
3.037353515625
3.0389648437499996
3.0333251953125
3.037353515625
3.037353515625
3.0349365234374996
0.49467773437499996
0.0281982421875
0.033032226562499996
0.02578125
0.0322265625
0.0314208984375
0.0322265625
0.0322265625
0.0346435546875
0.0362548828125
0.330322265625
0.1893310546875
0.20947265625
0.28037109374999997
0.0322265625
0.0322265625
0.0314208984375
0.0322265625
0.037060546874999996
0.0314208984375
0.0314208984375
2.0689453125
2.9519531249999997
3.0389648437499996
3.0397705078125
3.0397705078125
3.0397705078125
3.0365478515624997
3.0405761718749997
3.0405761718749997
3.0365478515624997
3.0381591796875
2.9559814453124997
2.9672607421875
2.9092529296875
2.9060302734374996
3.0389648437499996
3.0381591796875
3.0381591796875
3.034130859375
3.0405761718749997
3.0389648437499996
0.5696044921875
0.0733154296875
0.030615234374999998
0.0314208984375
0.0298095703125
0.033837890625
0.030615234374999998
0.0298095703125
0.033837890625
0.033032226562499996
0.030615234374999998
0.2811767578125
0.2376708984375
0.29245605468749997
0.27231445312499997
0.0314208984375
0.02900390625
0.030615234374999998
0.033032226562499996
0.02900390625
0.0314208984375
0.62197265625
2.4886962890624997
3.037353515625
3.0397705078125
3.0389648437499996
3.0357421875
3.0389648437499996
3.0365478515624997
3.0365478515624997
3.037353515625
3.034130859375
3.0429931640624996
2.9350341796875
2.9197265624999997
2.9205322265625
3.0381591796875
3.037353515625
3.0389648437499996
3.0381591796875
3.0357421875
0.829833984375
1.2157470703125
0.72509765625
0.0322265625
0.033032226562499996
0.03544921875
0.0322265625
0.02900390625
0.0314208984375
0.033032226562499996
0.033837890625
0.061230468749999996
0.030615234374999998
0.141796875
0.2384765625
0.24331054687499998
0.026586914062499998
0.0314208984375
0.033837890625
0.0346435546875
0.030615234374999998
0.030615234374999998
0.0322265625
2.12373046875
3.0325195312499997
3.0389648437499996
3.037353515625
3.0397705078125
3.0381591796875
3.0357421875
3.0421875
3.037353515625
3.0317138671875
2.7344238281249997
2.9479248046874997
2.989013671875
2.9511474609375
3.0357421875
3.0389648437499996
3.037353515625
3.0397705078125
3.0397705078125
3.0405761718749997
2.37509765625
0.8193603515625
0.030615234374999998
0.0322265625
0.03544921875
0.02900390625
0.033837890625
0.0298095703125
0.0281982421875
0.0322265625
0.0845947265625
0.2731201171875
0.26828613281249997
0.29648437499999997
0.3198486328125
0.0322265625
0.033837890625
0.0314208984375
0.0314208984375
0.033837890625
0.030615234374999998
0.0298095703125
2.4846679687499997
2.900390625
3.0357421875
3.0381591796875
3.0413818359375
3.0365478515624997
3.0389648437499996
3.0429931640624996
3.0429931640624996
3.0139892578125
3.003515625
3.02607421875
3.0228515624999996
2.9100585937499996
3.0397705078125
3.0365478515624997
3.0357421875
3.0357421875
3.0397705078125
1.7233154296875
3.0405761718749997
0.9571289062499999
0.054785156249999994
0.0281982421875
0.030615234374999998
0.033032226562499996
0.033032226562499996
0.0314208984375
0.030615234374999998
0.0322265625
0.033837890625
0.09748535156249999
0.182080078125
0.3029296875
0.34160156249999996
0.02900390625
0.0322265625
0.0281982421875
0.0322265625
0.0322265625
0.0346435546875
0.033032226562499996
1.67578125
2.5902099609375
3.0405761718749997
3.0413818359375
3.037353515625
3.0381591796875
3.0325195312499997
3.0413818359375
3.0309082031249996
3.0357421875
2.8641357421875
3.011572265625
2.9930419921875
2.9463134765624996
2.921337890625
3.0381591796875
3.0421875
3.037353515625
3.0357421875
3.0405761718749997
1.8344970703124999
2.1406494140625
0.3907470703125
0.033032226562499996
0.0322265625
0.0281982421875
0.02900390625
0.033032226562499996
0.0314208984375
0.0281982421875
0.0298095703125
0.16032714843749998
0.09990234375
0.24089355468749998
0.2457275390625
0.2666748046875
0.030615234374999998
0.0314208984375
0.03544921875
0.0314208984375
0.033837890625
0.033837890625
0.0346435546875
2.19140625
3.0381591796875
3.0381591796875
3.037353515625
3.0389648437499996
3.0397705078125
3.037353515625
3.0405761718749997
3.034130859375
2.9737060546875
2.8858886718749996
2.9664550781249996
2.9326171875
2.8536621093749996
3.0365478515624997
3.0381591796875
3.0405761718749997
3.043798828125
3.0397705078125
3.0397705078125
0.3262939453125
0.4842041015625
0.0314208984375
0.0314208984375
0.0298095703125
0.0322265625
0.033032226562499996
0.0322265625
0.030615234374999998
0.02900390625
0.0733154296875
0.40202636718749996
0.23686523437499998
0.2513671875
0.278759765625
0.0322265625
0.030615234374999998
0.027392578124999997
0.0298095703125
0.033032226562499996
0.0322265625
0.0281982421875
2.0294677734374997
2.9422851562499996
3.0381591796875
3.037353515625
3.0389648437499996
3.037353515625
3.0357421875
3.0381591796875
3.0389648437499996
3.0389648437499996
3.0389648437499996
2.9640380859374997
2.9447021484375
2.9318115234374997
3.037353515625
3.0365478515624997
3.0357421875
3.0365478515624997
3.0389648437499996
3.0365478515624997
3.037353515625
0.456005859375
0.030615234374999998
0.0314208984375
0.0322265625
0.033032226562499996
0.030615234374999998
0.0281982421875
0.033032226562499996
0.033032226562499996
0.0314208984375
0.4447265625
0.20625
0.2255859375
0.22236328125
0.0314208984375
0.030615234374999998
0.0314208984375
0.03544921875
0.033032226562499996
0.033837890625
0.0314208984375
1.944873046875
2.7223388671874997
3.0381591796875
3.0381591796875
3.037353515625
3.0365478515624997
3.0397705078125
3.037353515625
3.0357421875
3.037353515625
3.037353515625
2.8447998046875
2.931005859375
2.937451171875
2.9511474609375
3.0397705078125
3.0389648437499996
3.0381591796875
3.0381591796875
3.0413818359375
3.0381591796875
1.2157470703125
0.22880859374999998
0.0322265625
0.030615234374999998
0.0314208984375
0.0322265625
0.033837890625
0.0322265625
0.033837890625
0.0475341796875
0.030615234374999998
0.26425781249999997
0.2038330078125
0.3230712890625
0.3262939453125
0.0322265625
0.0322265625
0.0314208984375
0.0314208984375
0.033032226562499996
0.0322265625
0.0314208984375
2.5313964843749996
3.0381591796875
3.0381591796875
3.0397705078125
3.037353515625
3.0381591796875
3.037353515625
3.037353515625
3.037353515625
3.02607421875
3.037353515625
2.9173095703125
2.9181152343749996
2.89716796875
3.0397705078125
3.034130859375
3.0357421875
3.0421875
3.0405761718749997
2.0818359374999997
0.8290283203125
0.82177734375
0.033837890625
0.030615234374999998
0.033837890625
0.0314208984375
0.0322265625
0.0322265625
0.030615234374999998
0.0346435546875
0.1232666015625
0.030615234374999998
0.21914062499999998
0.291650390625
0.270703125
0.0362548828125
0.0314208984375
0.030615234374999998
0.033032226562499996
0.0322265625
0.0322265625
0.0322265625
2.4290771484375
2.9753173828125
3.0381591796875
3.0421875
3.0357421875
3.0397705078125
3.0381591796875
3.0389648437499996
3.037353515625
3.0389648437499996
2.9664550781249996
2.9527587890625
2.96484375
2.9479248046874997
3.0333251953125
3.037353515625
3.0405761718749997
3.0389648437499996
3.037353515625
3.0397705078125
3.037353515625
0.7863281249999999
0.0346435546875
0.0346435546875
0.033032226562499996
0.02900390625
0.0281982421875
0.0298095703125
0.023364257812499997
0.0322265625
0.059619140625
0.11440429687499999
0.2344482421875
0.19094238281249998
0.2578125
0.0322265625
0.0314208984375
0.0314208984375
0.033032226562499996
0.0298095703125
0.033032226562499996
0.02900390625
2.2453857421875
2.811767578125
3.0357421875
3.0381591796875
3.0381591796875
3.0389648437499996
3.0389648437499996
3.0381591796875
3.0381591796875
3.037353515625
3.0389648437499996
3.011572265625
3.029296875
2.9656494140625
3.037353515625
3.0381591796875
3.037353515625
3.037353515625
3.0357421875
2.40732421875
3.0413818359375
1.0812011718749999
0.169189453125
0.02900390625
0.0314208984375
0.0298095703125
0.033032226562499996
0.0322265625
0.033837890625
0.030615234374999998
0.033032226562499996
0.0346435546875
0.149853515625
0.2425048828125
0.32065429687499997
0.0322265625
0.0314208984375
0.0322265625
0.02900390625
0.033837890625
0.033837890625
0.0322265625
1.0449462890624999
2.4645263671874997
3.005126953125
3.0381591796875
3.0421875
3.034130859375
3.0381591796875
3.0421875
3.0413818359375
3.0381591796875
3.0349365234374996
3.037353515625
2.995458984375
2.9447021484375
2.9261718749999996
3.037353515625
3.0349365234374996
3.0389648437499996
3.0389648437499996
3.0381591796875
0.5115966796875
2.2598876953125
0.45842285156249996
0.030615234374999998
0.023364257812499997
0.0322265625
0.0322265625
0.027392578124999997
0.0298095703125
0.0314208984375
0.0346435546875
0.13212890624999998
0.0362548828125
0.21591796875
0.275537109375
0.27634277343749997
0.0314208984375
0.0314208984375
0.0314208984375
0.0346435546875
0.027392578124999997
0.0281982421875
0.0322265625
1.944873046875
3.0357421875
3.0365478515624997
3.037353515625
3.0421875
3.0357421875
3.0365478515624997
3.0357421875
3.0357421875
3.0381591796875
2.834326171875
3.0027099609374996
2.9865966796874996
2.94873046875
3.0381591796875
3.0389648437499996
3.0381591796875
3.0397705078125
3.0381591796875
3.0317138671875
1.24716796875
0.6856201171874999
0.0322265625
0.0322265625
0.033032226562499996
0.0298095703125
0.0322265625
0.033837890625
0.0298095703125
0.030615234374999998
0.04189453125
0.3544921875
0.2022216796875
0.24895019531249998
0.23525390624999998
0.0281982421875
0.0314208984375
0.033032226562499996
0.030615234374999998
0.033837890625
0.0314208984375
0.0314208984375
1.9730712890625
2.784375
3.0389648437499996
3.037353515625
3.037353515625
3.0357421875
3.0413818359375
3.0421875
3.0381591796875
3.034130859375
2.7223388671874997
3.0139892578125
2.9624267578124996
2.9503417968749996
3.0381591796875
3.0397705078125
3.0397705078125
3.0389648437499996
3.0381591796875
2.23330078125
1.8248291015625
0.7959960937499999
0.033032226562499996
0.033032226562499996
0.033032226562499996
0.0314208984375
0.0314208984375
0.03544921875
0.0322265625
0.033032226562499996
0.059619140625
0.4326416015625
0.143408203125
0.2360595703125
0.314208984375
0.033032226562499996
0.0394775390625
0.0322265625
0.0314208984375
0.0281982421875
0.0322265625
0.0322265625
2.0439697265625
2.7344238281249997
3.037353515625
3.0389648437499996
3.037353515625
3.037353515625
3.0381591796875
3.0365478515624997
3.0381591796875
3.0405761718749997
3.0421875
2.9914306640625
3.0010986328125
2.914892578125
2.882666015625
3.037353515625
3.0429931640624996
3.0389648437499996
3.0381591796875
3.0381591796875
3.0357421875
1.0868408203125
0.1393798828125
0.033032226562499996
0.0322265625
0.0314208984375
0.033032226562499996
0.033837890625
0.033837890625
0.030615234374999998
0.0346435546875
0.29648437499999997
0.2900390625
0.269091796875
0.314208984375
0.33354492187499996
0.0314208984375
0.02900390625
0.0346435546875
0.02900390625
0.03544921875
0.033837890625
0.12810058593749998
2.273583984375
3.0365478515624997
3.0389648437499996
3.0397705078125
3.0421875
3.037353515625
3.0365478515624997
3.0365478515624997
3.0381591796875
3.0317138671875
3.0365478515624997
2.9914306640625
2.9366455078125
2.8818603515624996
3.0389648437499996
3.034130859375
3.037353515625
3.037353515625
3.037353515625
3.0389648437499996
0.033032226562499996
0.37382812499999996
0.0314208984375
0.0314208984375
0.030615234374999998
0.0298095703125
0.03544921875
0.0314208984375
0.033837890625
0.0346435546875
0.0604248046875
0.0966796875
0.1611328125
0.22316894531249998
0.2376708984375
0.02900390625
0.0322265625
0.0322265625
0.0322265625
0.030615234374999998
0.0281982421875
0.0281982421875
2.135009765625
3.0381591796875
3.0413818359375
3.037353515625
3.0381591796875
3.037353515625
3.0397705078125
3.0405761718749997
3.037353515625
3.0389648437499996
2.9342285156249996
2.9390625
2.9463134765624996
2.9044189453125
3.0389648437499996
3.0405761718749997
3.037353515625
3.0357421875
3.0381591796875
3.0389648437499996
0.4326416015625
0.5889404296874999
0.0346435546875
0.030615234374999998
0.0322265625
0.0378662109375
0.033032226562499996
0.030615234374999998
0.0314208984375
0.030615234374999998
0.09345703124999999
0.30937499999999996
0.2296142578125
0.230419921875
0.3029296875
0.030615234374999998
0.033837890625
0.033837890625
0.033837890625
0.027392578124999997
0.030615234374999998
0.0314208984375
2.0214111328124997
2.769873046875
3.034130859375
3.037353515625
3.0381591796875
3.037353515625
3.0357421875
3.037353515625
3.037353515625
3.037353515625
3.037353515625
2.9761230468749997
2.937451171875
2.9044189453125
2.9463134765624996
3.0421875
3.034130859375
3.0365478515624997
3.0381591796875
3.0357421875
3.0405761718749997
0.66064453125
0.1796630859375
0.02900390625
0.0346435546875
0.033032226562499996
0.0314208984375
0.0322265625
0.02900390625
0.0322265625
0.0362548828125
0.0314208984375
0.22316894531249998
0.25620117187499997
0.3343505859375
0.28439941406249997
0.0322265625
0.0314208984375
0.02900390625
0.033032226562499996
0.030615234374999998
0.0314208984375
0.18449707031249998
2.4226318359375
3.0357421875
3.0381591796875
3.037353515625
3.0381591796875
3.0397705078125
3.043798828125
3.034130859375
3.0405761718749997
3.0123779296874997
3.0357421875
2.9479248046874997
2.9575927734375
2.921337890625
3.0405761718749997
3.0389648437499996
3.0413818359375
3.0389648437499996
3.0397705078125
0.6437255859375
1.4767822265625
0.2441162109375
0.0298095703125
0.0322265625
0.0322265625
0.02900390625
0.0298095703125
0.033837890625
0.02900390625
0.02900390625
0.0910400390625
0.0314208984375
0.15791015625
0.22719726562499998
0.2827880859375
0.0322265625
0.038671874999999994
0.033032226562499996
0.0378662109375
0.0314208984375
0.030615234374999998
0.033837890625
2.3791259765625
2.937451171875
3.0421875
3.0365478515624997
3.0389648437499996
3.037353515625
3.037353515625
3.0365478515624997
3.0405761718749997
3.0389648437499996
3.0421875
3.0156005859375
3.0252685546875
2.969677734375
3.0381591796875
3.0381591796875
3.0397705078125
3.0365478515624997
3.0381591796875
3.037353515625
1.007080078125
0.8443359374999999
0.030615234374999998
0.0314208984375
0.0322265625
0.02900390625
0.0314208984375
0.02900390625
0.0322265625
0.0322265625
0.1007080078125
0.0346435546875
0.252978515625
0.28439941406249997
0.314208984375
0.0298095703125
0.033032226562499996
0.02900390625
0.0322265625
0.030615234374999998
0.030615234374999998
0.030615234374999998
2.679638671875
3.037353515625
3.0381591796875
3.0421875
3.0381591796875
3.0357421875
3.0397705078125
3.0349365234374996
3.0389648437499996
3.0309082031249996
2.914892578125
3.0365478515624997
3.0405761718749997
3.0147949218749996
3.0389648437499996
3.0381591796875
3.037353515625
3.0357421875
3.0349365234374996
1.6242187499999998
3.0365478515624997
0.9643798828125
0.075732421875
0.0314208984375
0.0322265625
0.0322265625
0.033837890625
0.0314208984375
0.0322265625
0.0322265625
0.1329345703125
0.21914062499999998
0.1329345703125
0.27231445312499997
0.30856933593749997
0.0298095703125
0.0314208984375
0.0322265625
0.0322265625
0.0281982421875
0.033032226562499996
0.0322265625
1.8062988281249999
2.75537109375
3.0349365234374996
3.034130859375
3.0405761718749997
3.0429931640624996
3.0389648437499996
3.037353515625
3.0357421875
3.037353515625
2.9100585937499996
3.0147949218749996
3.0107666015624996
2.9221435546874996
2.8721923828125
3.0397705078125
3.0357421875
3.0381591796875
3.0389648437499996
2.1857666015625
2.6627197265625
2.0633056640625
0.1740234375
0.030615234374999998
0.0314208984375
0.0314208984375
0.0314208984375
0.0314208984375
0.033032226562499996
0.0314208984375
0.0314208984375
0.207861328125
0.127294921875
0.2183349609375
0.2698974609375
0.24895019531249998
0.033032226562499996
0.0322265625
0.0322265625
0.033032226562499996
0.0322265625
0.030615234374999998
0.030615234374999998
2.7005859374999996
3.0381591796875
3.0389648437499996
3.0381591796875
3.037353515625
3.0381591796875
3.0365478515624997
3.0381591796875
3.0381591796875
3.037353515625
3.0381591796875
3.034130859375
3.0075439453125
2.9414794921875
3.037353515625
3.0389648437499996
3.037353515625
3.0381591796875
3.0405761718749997
3.037353515625
1.9867675781249998
0.44230957031249996
0.0314208984375
0.0298095703125
0.0322265625
0.03544921875
0.0298095703125
0.030615234374999998
0.030615234374999998
0.0322265625
0.0684814453125
0.08540039062499999
0.2553955078125
0.3069580078125
0.33354492187499996
0.0322265625
0.02900390625
0.0314208984375
0.033032226562499996
0.030615234374999998
0.0322265625
0.0314208984375
2.2614990234375
3.037353515625
3.037353515625
3.0421875
3.037353515625
3.037353515625
3.0349365234374996
3.0405761718749997
3.037353515625
3.0397705078125
2.9269775390625
3.018017578125
2.9680664062499997
2.9527587890625
3.0397705078125
3.037353515625
3.0413818359375
3.0381591796875
3.037353515625
3.0381591796875
0.9974121093749999
0.53173828125
0.033837890625
0.033032226562499996
0.0314208984375
0.0314208984375
0.030615234374999998
0.033032226562499996
0.0322265625
0.0298095703125
0.07412109374999999
0.39719238281249997
0.1877197265625
0.275537109375
0.34160156249999996
0.0346435546875
0.030615234374999998
0.0298095703125
0.03544921875
0.027392578124999997
0.033032226562499996
0.0314208984375
1.9948242187499998
2.9181152343749996
3.0317138671875
3.037353515625
3.0397705078125
3.0397705078125
3.0381591796875
3.0357421875
3.0381591796875
3.0317138671875
3.037353515625
2.900390625
3.0075439453125
2.9503417968749996
2.91650390625
3.0333251953125
3.0397705078125
3.037353515625
3.037353515625
2.747314453125
3.0389648437499996
1.0409179687499999
0.03544921875
0.033837890625
0.0322265625
0.0298095703125
0.0322265625
0.0322265625
0.037060546874999996
0.030615234374999998
0.0684814453125
0.0322265625
0.3198486328125
0.246533203125
0.32065429687499997
0.33193359375
0.0314208984375
0.0314208984375
0.030615234374999998
0.037060546874999996
0.033837890625
0.02578125
0.9603515625
2.95517578125
3.0381591796875
3.034130859375
3.0397705078125
3.0429931640624996
3.0381591796875
3.0405761718749997
3.0381591796875
3.0397705078125
3.037353515625
2.9656494140625
2.9978759765625
2.99384765625
2.9608154296875
3.037353515625
3.0325195312499997
3.0405761718749997
3.037353515625
3.0381591796875
1.9464843749999998
0.9643798828125
0.1941650390625
0.0346435546875
0.0314208984375
0.0314208984375
0.030615234374999998
0.0322265625
0.0314208984375
0.042700195312499994
0.0314208984375
0.1264892578125
0.30856933593749997
0.22880859374999998
0.30051269531249997
0.30937499999999996
0.033032226562499996
0.033837890625
0.030615234374999998
0.0322265625
0.0314208984375
0.033032226562499996
0.765380859375
2.5595947265624996
3.0389648437499996
3.0405761718749997
3.037353515625
3.037353515625
3.0381591796875
3.037353515625
3.0357421875
3.0365478515624997
3.029296875
3.0357421875
2.9519531249999997
2.9511474609375
2.9350341796875
3.0389648437499996
