1.7257324218749999
0.037060546874999996
0.04189453125
0.04189453125
0.041088867187499996
0.165966796875
0.6002197265625
0.865283203125
1.4010498046875
1.998046875
2.2832519531249997
2.7593994140625
3.0486328124999997
3.04541015625
3.04541015625
2.9672607421875
0.041088867187499996
0.042700195312499994
0.11359863281249999
0.3359619140625
0.9796874999999999
0.0378662109375
3.0470214843749996
3.04541015625
3.0486328124999997
3.0526611328124997
2.47177734375
1.9537353515625
1.6363037109374998
1.2189697265625
0.7130126953125
0.6010253906249999
0.5115966796875
0.041088867187499996
0.439892578125
0.456005859375
0.6098876953125
3.0494384765625
3.0470214843749996
3.0486328124999997
3.0478271484375
2.4967529296874997
3.04541015625
0.041088867187499996
0.0394775390625
0.040283203125
0.037060546874999996
0.18691406249999998
0.53818359375
0.8161376953124999
1.46953125
1.5428466796875
2.2083251953125
2.6619140624999997
3.0470214843749996
2.9817626953125
3.0462158203125
2.9527587890625
0.041088867187499996
0.038671874999999994
0.1200439453125
0.16838378906249998
0.8177490234375
3.0478271484375
2.91650390625
3.0470214843749996
3.0470214843749996
3.0470214843749996
2.63291015625
2.147900390625
1.6894775390624999
1.3043701171875
1.13115234375
0.8443359374999999
0.5824951171875
0.6413085937499999
0.24492187499999998
0.41411132812499996
0.501123046875
0.6050537109374999
3.0478271484375
3.0494384765625
3.0284912109374997
2.7593994140625
2.599072265625
2.657080078125
0.041088867187499996
0.041088867187499996
0.041088867187499996
0.041088867187499996
0.378662109375
0.749267578125
1.1609619140625
1.654833984375
1.9948242187499998
2.624853515625
2.7585937499999997
3.0510498046874996
3.0462158203125
3.0309082031249996
2.731201171875
0.0394775390625
0.1345458984375
0.07814941406249999
0.4922607421875
3.050244140625
2.4564697265624997
3.0486328124999997
3.0470214843749996
3.0486328124999997
2.85205078125
2.2083251953125
1.843359375
1.5863525390625
1.2101074218749999
0.9168457031249999
0.6413085937499999
0.4568115234375
0.22478027343749998
0.4036376953125
0.502734375
0.6614501953124999
3.0429931640624996
3.0470214843749996
3.0446044921874997
2.747314453125
2.1873779296875
0.04189453125
0.041088867187499996
0.041088867187499996
0.042700195312499994
0.040283203125
0.35771484374999996
0.7210693359375
1.0223876953125
1.480810546875
1.9190917968749999
2.2824462890625
2.7996826171875
3.0470214843749996
3.04541015625
3.043798828125
2.8375488281249996
0.04189453125
0.042700195312499994
0.136962890625
0.4890380859375
1.1134277343749999
2.6562744140624996
3.0470214843749996
3.0478271484375
3.0470214843749996
3.0156005859375
2.3968505859375
1.8900878906249998
1.5992431640625
1.1964111328125
1.0465576171875
0.7855224609375
0.47453613281249996
0.7774658203125
0.43425292968749996
0.4970947265625
0.7057617187499999
3.0486328124999997
3.0462158203125
3.050244140625
2.9833740234375
2.4943359375
3.0494384765625
0.04189453125
0.042700195312499994
0.0394775390625
0.041088867187499996
0.22880859374999998
0.5285156249999999
0.7710205078125
1.4864501953125
2.0955322265625
2.24619140625
2.7513427734375
2.8866943359375
3.0389648437499996
3.0486328124999997
2.9583984374999996
0.040283203125
0.042700195312499994
0.1168212890625
0.33354492187499996
0.9063720703125
2.0262451171875
3.0478271484375
3.0486328124999997
3.0486328124999997
3.0470214843749996
2.615185546875
2.125341796875
1.7176757812499999
1.4550292968749998
1.3728515625
0.8967041015624999
0.5534912109375
0.2280029296875
0.391552734375
0.4326416015625
0.4890380859375
2.7722900390625
3.0478271484375
3.0470214843749996
3.0397705078125
2.5322021484375
3.0470214843749996
0.04189453125
0.042700195312499994
0.04189453125
0.038671874999999994
0.1168212890625
0.5631591796875
0.710595703125
1.2858398437499998
2.08828125
2.3485107421875
2.591015625
2.840771484375
2.9970703125
3.02607421875
2.977734375
0.04189453125
0.041088867187499996
0.0394775390625
0.1538818359375
0.80888671875
0.167578125
0.8564208984374999
3.0462158203125
3.04541015625
3.0486328124999997
2.640966796875
2.1704589843749997
1.791796875
1.4010498046875
1.3027587890624999
0.82177734375
0.5115966796875
0.3714111328125
0.45036621093749996
0.468896484375
0.58330078125
2.5249511718749997
3.0462158203125
3.0486328124999997
3.0478271484375
2.608740234375
0.133740234375
0.038671874999999994
0.040283203125
0.041088867187499996
0.04189453125
0.133740234375
0.41411132812499996
0.72509765625
1.2584472656249999
1.5621826171875
1.9996582031249999
2.4693603515625
2.582958984375
3.0486328124999997
3.0470214843749996
3.0083496093749997
0.346435546875
0.043505859375
0.0394775390625
0.24492187499999998
0.7355712890624999
1.6056884765625
0.456005859375
3.0494384765625
3.0486328124999997
3.053466796875
2.7505371093749997
2.238134765625
1.7821289062499999
1.4276367187499999
1.2737548828124998
0.992578125
0.591357421875
0.30856933593749997
0.35690917968749997
0.5220703125
0.549462890625
0.6501708984375
3.0486328124999997
3.0486328124999997
3.0462158203125
2.8270751953124997
0.0797607421875
2.0600830078125
0.038671874999999994
0.038671874999999994
0.0378662109375
0.040283203125
0.2384765625
0.6662841796875
1.0900634765625
1.4356933593749999
2.035107421875
2.5193115234374996
2.9624267578124996
2.843994140625
3.01962890625
3.0204345703124997
2.8915283203124997
0.041088867187499996
0.0394775390625
0.13615722656249998
0.639697265625
1.3285400390625
3.0478271484375
3.0486328124999997
3.0462158203125
3.0446044921874997
2.8697753906249996
2.2921142578125
1.8393310546875
1.5033691406249998
1.2125244140625
0.9998291015624999
0.7855224609375
0.443115234375
0.4552001953125
0.41572265625
0.5293212890625
0.66064453125
3.0470214843749996
3.0486328124999997
3.04541015625
2.8609130859375
2.36220703125
0.19013671875
0.040283203125
0.038671874999999994
0.040283203125
0.040283203125
0.2054443359375
0.5260986328125
0.80888671875
1.3728515625
1.7982421874999999
2.19140625
2.6699707031249997
2.7811523437499996
3.04541015625
3.0446044921874997
2.88427734375
0.041088867187499996
0.040283203125
0.046728515624999994
0.33837890625
0.9772705078124999
0.041088867187499996
3.0462158203125
3.0470214843749996
3.0486328124999997
2.9688720703125
2.5257568359375
2.0737792968749997
1.8143554687499999
1.3857421875
0.7943847656249999
0.8290283203125
0.5551025390625
0.1957763671875
0.45761718749999997
0.4842041015625
0.6034423828125
3.0446044921874997
3.0470214843749996
3.0478271484375
3.04541015625
2.5877929687499996
0.7774658203125
0.041088867187499996
0.041088867187499996
0.043505859375
0.040283203125
0.169189453125
0.5051513671875
0.865283203125
1.3253173828125
1.6556396484375
2.151123046875
2.647412109375
3.0486328124999997
2.9906249999999996
3.0446044921874997
2.9922363281249997
0.041088867187499996
0.0394775390625
0.07009277343749999
0.14824218749999998
0.8000244140624999
0.043505859375
3.050244140625
3.0478271484375
3.0486328124999997
3.0470214843749996
2.6304931640625
2.0149658203125
1.7370117187499998
1.2930908203125
1.3253173828125
0.6703125
0.5760498046875
0.9402099609375
0.4487548828125
0.46083984375
0.5647705078124999
0.9547119140625
3.0462158203125
3.0486328124999997
3.050244140625
2.5974609374999997
3.0446044921874997
1.6306640625
0.045117187499999996
0.0394775390625
0.04189453125
0.043505859375
0.45761718749999997
0.734765625
1.2399169921875
1.5662109375
2.1946289062499997
2.5555664062499996
2.3871826171875
2.979345703125
3.0462158203125
3.0107666015624996
0.0378662109375
0.0346435546875
0.04189453125
0.10634765624999999
0.7081787109375
3.0494384765625
0.910400390625
3.0486328124999997
3.0478271484375
3.0478271484375
2.6868896484375
2.28486328125
1.867529296875
1.5557373046874998
1.3011474609375
0.9224853515625
0.6832031249999999
0.8677001953125
0.31662597656249997
0.4318359375
0.5325439453124999
0.7468505859375
3.0446044921874997
3.0486328124999997
3.0462158203125
2.763427734375
1.622607421875
2.228466796875
0.0378662109375
0.042700195312499994
0.040283203125
0.040283203125
0.3714111328125
0.69287109375
1.1698242187499999
1.5637939453124998
1.9070068359374999
2.3130615234375
2.4371337890625
3.0365478515624997
2.956787109375
2.9519531249999997
2.7666503906249997
0.041088867187499996
0.04189453125
0.0443115234375
0.42619628906249996
1.0385009765625
1.6089111328124999
3.0486328124999997
3.0494384765625
3.0486328124999997
2.8359375
2.4169921875
1.993212890625
1.561376953125
1.2141357421874999
1.0884521484375
0.468896484375
0.40283203125
0.7283203125
0.4197509765625
0.5196533203125
0.6429199218749999
3.0486328124999997
3.0470214843749996
3.0478271484375
2.937451171875
2.0431640625
0.041088867187499996
0.041088867187499996
0.037060546874999996
0.04189453125
0.042700195312499994
0.240087890625
0.6251953124999999
0.9974121093749999
1.3478759765625
1.6556396484375
2.2131591796875
2.7803466796875
2.7916259765625
3.04541015625
3.0446044921874997
2.92294921875
0.04189453125
0.038671874999999994
0.0733154296875
0.26425781249999997
1.0006347656249999
2.7908203124999997
3.050244140625
3.0486328124999997
3.0478271484375
3.0413818359375
2.43955078125
1.9424560546874998
1.6048828124999999
1.3607666015625
0.79921875
0.678369140625
0.5124023437499999
0.7379882812499999
0.4406982421875
0.49790039062499997
0.7025390625
3.0446044921874997
3.04541015625
3.0510498046874996
2.953564453125
2.5112548828124996
3.0478271484375
0.040283203125
0.042700195312499994
0.04189453125
0.0378662109375
0.223974609375
0.539794921875
0.7943847656249999
1.5364013671874999
1.6532226562499999
2.2115478515625
2.5821533203125
2.8037109375
3.0446044921874997
3.04541015625
2.9495361328125
0.043505859375
0.041088867187499996
0.069287109375
0.2553955078125
0.8064697265624999
0.02578125
3.0478271484375
3.0470214843749996
3.0486328124999997
3.04541015625
2.5773193359374997
2.1052001953125
1.6612792968749999
1.4606689453125
1.1222900390625
0.8725341796874999
0.5196533203125
0.21511230468749998
0.41572265625
0.45439453124999996
0.5583251953125
2.8157958984375
3.0526611328124997
3.050244140625
3.0526611328124997
2.5813476562499997
3.0526611328124997
0.0378662109375
0.042700195312499994
0.041088867187499996
0.045117187499999996
0.127294921875
0.45358886718749997
0.8024414062499999
1.3229003906249999
1.6717529296875
2.228466796875
2.618408203125
2.914892578125
2.9656494140625
3.0462158203125
2.9737060546875
0.4068603515625
0.045117187499999996
0.043505859375
0.12568359375
0.7194580078124999
0.1168212890625
0.95390625
3.0462158203125
3.0470214843749996
3.0462158203125
2.7626220703124997
2.1583740234374997
1.7797119140625
1.3873535156249999
1.1657958984374999
0.7968017578125
0.5470458984375
0.23122558593749998
0.3955810546875
0.451171875
0.5325439453124999
2.402490234375
3.0494384765625
3.0478271484375
3.0486328124999997
2.657080078125
0.19255371093749998
2.4685546874999997
0.042700195312499994
0.042700195312499994
0.0346435546875
0.041088867187499996
0.456005859375
0.75087890625
1.1609619140625
1.7096191406249999
2.0343017578125
2.457275390625
3.0486328124999997
3.0470214843749996
3.0470214843749996
2.9761230468749997
0.5486572265624999
0.041088867187499996
0.0394775390625
0.1893310546875
0.64453125
1.4687255859375
3.0486328124999997
3.0462158203125
3.0478271484375
3.0494384765625
2.721533203125
2.2324951171875
1.7934082031249998
1.3784912109374998
1.15048828125
0.8225830078124999
0.7025390625
0.23928222656249998
0.33757324218749996
0.4125
0.526904296875
0.6936767578124999
3.0486328124999997
3.0526611328124997
3.050244140625
2.8802490234375
2.402490234375
1.867529296875
0.043505859375
0.04189453125
0.0443115234375
0.040283203125
0.339990234375
0.678369140625
1.12470703125
1.5267333984375
2.1841552734375
2.5950439453125
3.0228515624999996
2.9326171875
3.0470214843749996
2.99384765625
2.824658203125
0.045117187499999996
0.0394775390625
0.04189453125
0.3633544921875
1.116650390625
3.0478271484375
3.0486328124999997
3.0470214843749996
3.0470214843749996
2.8979736328124996
2.466943359375
1.8280517578125
1.5315673828124998
1.20849609375
1.2238037109375
0.7557128906249999
0.4036376953125
0.04189453125
0.3585205078125
0.45761718749999997
0.6195556640625
3.0462158203125
3.0478271484375
3.0470214843749996
3.0478271484375
2.3879882812499997
0.4713134765625
0.040283203125
0.04189453125
0.041088867187499996
0.040283203125
0.22316894531249998
0.6598388671875
0.9313476562499999
1.506591796875
2.096337890625
2.4758056640625
2.7545654296874997
3.04541015625
3.0510498046874996
3.0486328124999997
2.9366455078125
0.040283203125
0.040283203125
0.0378662109375
0.3601318359375
0.8926757812499999
0.043505859375
3.0486328124999997
3.0446044921874997
3.0486328124999997
3.0478271484375
2.4484130859374997
1.960986328125
1.6403320312499998
1.1375976562499999
1.2536132812499998
0.760546875
0.5212646484375
0.1313232421875
0.36899414062499997
0.4116943359375
0.6018310546875
3.0470214843749996
3.0486328124999997
3.043798828125
3.0478271484375
2.578125
3.0462158203125
0.04189453125
0.04189453125
0.0443115234375
0.041088867187499996
0.2215576171875
0.594580078125
0.7968017578125
1.4510009765624998
1.7934082031249998
2.2107421874999997
2.7102539062499997
3.0470214843749996
3.0462158203125
3.0446044921874997
2.9543701171874996
0.053173828124999996
0.041088867187499996
0.038671874999999994
0.104736328125
0.7476562499999999
0.041088867187499996
3.0478271484375
3.0486328124999997
3.043798828125
3.0470214843749996
2.5934326171874997
2.1406494140625
1.6524169921874998
1.213330078125
1.0868408203125
0.8225830078124999
0.44230957031249996
0.7218749999999999
0.2666748046875
0.44553222656249997
0.5679931640625
0.9224853515625
3.0462158203125
3.0470214843749996
3.0462158203125
2.715087890625
3.0446044921874997
1.754736328125
0.04189453125
0.043505859375
0.041088867187499996
0.061230468749999996
0.37060546875
0.7677978515624999
1.2866455078124999
1.7370117187499998
2.2421630859375
2.6748046875
2.5612060546874997
3.0486328124999997
3.0478271484375
2.9986816406249996
2.6788330078125
0.0378662109375
0.0394775390625
0.059619140625
0.7710205078125
3.0486328124999997
1.2689208984375
3.0486328124999997
3.050244140625
3.0470214843749996
2.7988769531249997
2.1760986328125
1.719287109375
1.4429443359374998
1.0787841796875
0.889453125
0.6050537109374999
0.37302246093749997
0.23203125
0.4068603515625
0.491455078125
0.7516845703124999
3.0470214843749996
3.0494384765625
3.0486328124999997
2.6780273437499997
1.683837890625
0.040283203125
0.041088867187499996
0.041088867187499996
0.043505859375
0.0394775390625
0.459228515625
0.8225830078124999
1.1802978515625
1.78857421875
2.1277587890625
2.5257568359375
2.872998046875
3.0478271484375
3.0357421875
2.9978759765625
2.6901123046874997
0.04189453125
0.041088867187499996
0.10554199218749999
0.515625
1.1029541015625
3.0574951171875
3.0494384765625
3.0486328124999997
3.0446044921874997
2.7247558593749996
2.225244140625
1.7845458984375
1.3172607421875
1.03447265625
0.6251953124999999
0.6090820312499999
0.40283203125
0.7218749999999999
0.43425292968749996
0.5615478515625
0.7629638671875
3.0486328124999997
3.0470214843749996
3.0429931640624996
2.874609375
2.4081298828124997
0.045117187499999996
0.040283203125
0.046728515624999994
0.038671874999999994
0.038671874999999994
0.33515625
0.67998046875
1.174658203125
1.6137451171875
1.8498046874999998
2.4387451171875
2.908447265625
2.9261718749999996
3.0478271484375
3.0220458984375
2.85849609375
0.043505859375
0.041088867187499996
0.1651611328125
0.32468261718749997
1.06025390625
2.91650390625
3.0470214843749996
3.0470214843749996
3.0462158203125
2.882666015625
2.421826171875
1.76279296875
1.4526123046875
1.187548828125
0.913623046875
0.472119140625
0.34562988281249996
0.043505859375
0.40927734374999997
0.5454345703125
0.6735351562499999
3.0446044921874997
3.05185546875
3.0486328124999997
3.0446044921874997
2.4234375
2.9946533203124996
0.04189453125
0.040283203125
0.0378662109375
0.038671874999999994
0.21914062499999998
0.6582275390625
0.8926757812499999
1.4526123046875
1.7297607421874999
2.360595703125
2.7505371093749997
3.0462158203125
3.0462158203125
3.04541015625
2.972900390625
0.0378662109375
0.04189453125
0.043505859375
0.36093749999999997
0.9547119140625
0.040283203125
1.7474853515625
3.0462158203125
3.0462158203125
3.0462158203125
2.4886962890624997
1.973876953125
1.5960205078124998
1.24716796875
0.97646484375
0.7114013671874999
0.3504638671875
0.31259765624999997
0.343212890625
0.4310302734375
0.631640625
2.9261718749999996
3.0470214843749996
3.0462158203125
3.0478271484375
2.5724853515625
0.6372802734374999
0.040283203125
0.04189453125
0.0378662109375
0.043505859375
0.1780517578125
0.5204589843749999
0.8830078124999999
1.4316650390624999
1.7764892578125
2.13662109375
2.6135742187499997
2.9358398437499997
3.01318359375
3.0333251953125
2.96162109375
0.278759765625
0.040283203125
0.04189453125
0.1571044921875
0.708984375
1.964208984375
1.1529052734375
3.043798828125
3.0494384765625
3.0470214843749996
2.647412109375
2.1954345703125
1.7104248046875
1.2286376953125
1.0272216796875
0.7935791015625
0.4125
0.21672363281249998
0.33354492187499996
0.502734375
0.5712158203125
0.7275146484374999
3.0470214843749996
3.0462158203125
3.043798828125
2.82626953125
0.124072265625
2.4911132812499996
0.041088867187499996
0.04189453125
0.04189453125
0.0443115234375
0.372216796875
0.8040527343749999
1.1964111328125
1.6346923828125
2.254248046875
2.50400390625
3.0429931640624996
2.9656494140625
3.043798828125
3.01318359375
2.8230468749999997
0.041088867187499996
0.040283203125
0.043505859375
0.4068603515625
1.5138427734375
3.0478271484375
3.0486328124999997
3.0462158203125
3.0462158203125
2.7988769531249997
2.212353515625
1.7265380859375
1.4526123046875
1.126318359375
0.8467529296874999
0.6034423828125
0.40283203125
0.2892333984375
0.391552734375
0.48662109374999996
0.6638671875
3.0478271484375
3.0510498046874996
3.0494384765625
2.85849609375
2.405712890625
0.04189453125
0.037060546874999996
0.04189453125
0.041088867187499996
0.041088867187499996
0.33757324218749996
0.639697265625
0.9490722656249999
1.5001464843749999
2.1906005859374997
2.4427734375
2.8061279296875
2.9769287109375
3.0486328124999997
3.050244140625
2.8915283203124997
0.04189453125
0.0378662109375
0.08217773437499999
0.346435546875
0.9974121093749999
0.581689453125
3.0405761718749997
3.0486328124999997
3.0462158203125
2.8069335937499997
2.3952392578125
1.9263427734374998
1.480810546875
1.2012451171875
1.2109130859375
0.6888427734375
0.32468261718749997
0.17644042968749998
0.3552978515625
0.47453613281249996
0.5768554687499999
3.0478271484375
3.0446044921874997
3.0470214843749996
3.0486328124999997
2.49755859375
0.2038330078125
0.0378662109375
0.041088867187499996
0.041088867187499996
0.0443115234375
0.278759765625
0.684814453125
1.0981201171875
1.6024658203125
1.9070068359374999
2.4943359375
2.898779296875
3.0478271484375
3.0486328124999997
2.9962646484374997
2.8528564453125
0.041088867187499996
0.040283203125
0.17482910156249998
0.21591796875
1.074755859375
0.2634521484375
3.043798828125
3.0486328124999997
3.0462158203125
2.7779296875
2.1422607421874997
1.2938964843749998
1.013525390625
0.5478515625
0.9321533203125
0.6985107421875
0.768603515625
1.3575439453125
1.22783203125
1.4026611328124998
1.5799072265624998
3.0429931640624996
3.0470214843749996
2.254248046875
1.5589599609375
0.85400390625
2.1406494140625
0.6227783203124999
0.038671874999999994
0.040283203125
0.43425292968749996
1.1432373046875
1.944873046875
2.2888916015625
2.72958984375
2.8633300781249997
2.8721923828125
2.9205322265625
2.8375488281249996
2.2429687499999997
1.9593749999999999
1.6693359374999999
0.0443115234375
0.041088867187499996
1.0094970703125
1.783740234375
2.6385498046875
3.0462158203125
3.04541015625
3.0446044921874997
2.65869140625
1.7208984374999998
0.49870605468749996
0.045117187499999996
0.0346435546875
0.09426269531249999
0.5607421874999999
0.8580322265625
1.132763671875
1.7990478515625
1.5162597656249999
1.7635986328125
1.7990478515625
2.1293701171875
3.0470214843749996
2.0842529296875
1.5557373046874998
0.865283203125
0.04189453125
1.0143310546875
0.04189453125
0.04189453125
0.423779296875
1.1142333984375
1.7458740234374999
2.225244140625
2.6683593749999996
2.7988769531249997
2.7916259765625
2.7432861328125
2.204296875
2.399267578125
2.02060546875
1.6854492187499999
1.2076904296875
0.042700195312499994
1.5927978515624999
2.204296875
3.0470214843749996
3.0478271484375
1.480810546875
2.8174072265624996
2.489501953125
1.1617675781249999
0.668701171875
0.6123046875
0.894287109375
1.1867431640625
1.353515625
1.3929931640625
1.3027587890624999
1.2955078125
1.480810546875
1.448583984375
1.4598632812499999
1.4896728515625
2.753759765625
1.3994384765624999
0.85400390625
0.64453125
0.2457275390625
0.045117187499999996
0.44633789062499996
0.8572265625
1.33740234375
1.867529296875
2.125341796875
2.0455810546874997
1.9231201171874999
1.8546386718749999
1.87236328125
1.84013671875
1.796630859375
1.7684326171875
1.670947265625
1.6483886718749998
1.4791992187499998
0.2118896484375
1.8022705078124999
2.4113525390625
2.5845703125
2.5007812499999997
3.0462158203125
3.0389648437499996
2.4226318359375
1.3962158203125
0.7726318359375
0.7315429687499999
0.942626953125
1.2205810546875
1.429248046875
1.3229003906249999
1.3664062499999998
1.3067871093749999
1.52109375
1.4244140625
1.4928955078125
1.4912841796874998
3.0470214843749996
1.8296630859374998
0.8846191406249999
0.733154296875
0.662255859375
1.1786865234375
0.6469482421874999
0.8274169921875
1.16015625
1.8900878906249998
2.1205078125
2.0979492187499997
1.8868652343749999
1.8489990234375
1.740234375
1.803076171875
1.8151611328125
1.61455078125
1.6959228515625
1.6508056640625
1.63388671875
0.0443115234375
1.3148437499999999
2.4435791015625
2.570068359375
2.6119628906249996
2.8319091796875
3.0494384765625
2.802099609375
1.409912109375
0.823388671875
0.700927734375
0.833056640625
1.2415283203124998
1.42119140625
1.4928955078125
1.42119140625
1.3172607421875
1.16337890625
1.426025390625
1.4413330078125
1.4542236328125
3.0301025390625
1.9376220703125
1.0465576171875
0.7984130859374999
0.5325439453124999
1.353515625
0.201416015625
0.5357666015625
1.1045654296875
1.6475830078125
2.05927734375
2.157568359375
1.9505126953124998
1.9537353515625
1.7152587890625
1.8626953124999999
1.7934082031249998
1.9110351562499999
1.6717529296875
1.651611328125
1.62744140625
0.04189453125
1.2060791015624999
2.24619140625
2.6159912109374996
2.6917236328125
1.0642822265625
1.7724609375
3.0075439453125
1.93359375
1.03125
0.623583984375
0.71220703125
1.02802734375
1.3744628906249998
1.490478515625
1.4598632812499999
1.3124267578125
1.181103515625
1.4477783203124999
1.456640625
1.4526123046875
2.898779296875
2.44921875
1.3414306640625
0.839501953125
0.54140625
0.314208984375
0.36496582031249997
0.391552734375
0.8830078124999999
1.4219970703125
2.0415527343749997
2.160791015625
2.051220703125
1.9762939453125
1.8465820312499999
1.7901855468749999
1.8248291015625
1.880419921875
1.7096191406249999
1.662890625
1.6234130859375
0.04189453125
0.671923828125
2.16884765625
2.560400390625
2.7134765625
1.329345703125
1.5299560546875
3.0462158203125
2.2147705078124997
1.0167480468749999
0.5969970703124999
0.6187499999999999
1.0256103515625
1.2785888671874999
1.4832275390624998
1.4655029296875
1.3261230468749998
1.3575439453125
1.3712402343749999
1.4493896484375
1.4461669921875
1.456640625
2.5257568359375
1.3801025390625
0.8161376953124999
0.6533935546874999
0.0394775390625
1.799853515625
0.3665771484375
0.865283203125
1.4139404296875
1.9891845703125
2.160791015625
2.0939208984374997
2.0504150390625
1.896533203125
1.7942138671874999
1.7982421874999999
1.9215087890625
1.7265380859375
1.7015624999999999
1.6290527343749999
1.5662109375
0.604248046875
2.02060546875
2.44921875
2.760205078125
3.0421875
3.050244140625
3.0494384765625
2.2405517578125
1.235888671875
0.64775390625
0.5502685546875
0.8346679687499999
1.2189697265625
1.525927734375
1.4791992187499998
1.3994384765624999
1.2205810546875
1.3736572265625
1.3921875
1.416357421875
1.4622802734375
3.0486328124999997
1.6604736328124998
0.7879394531249999
0.5889404296874999
0.5567138671874999
0.040283203125
0.6493652343749999
0.5067626953125
0.7935791015625
1.5589599609375
2.023828125
2.2502197265625
2.2582763671875
2.1760986328125
2.2631103515624997
1.9996582031249999
2.0778076171874997
1.75634765625
1.674169921875
1.6411376953124999
1.561376953125
0.040283203125
1.0465576171875
2.1116455078125
2.65546875
3.0462158203125
3.050244140625
2.91328125
3.050244140625
1.75634765625
0.920068359375
0.40605468749999996
0.26425781249999997
0.580078125
0.90556640625
1.123095703125
1.1416259765624999
0.9708251953125
1.1609619140625
1.13115234375
1.2286376953125
1.29228515625
3.0486328124999997
3.0486328124999997
2.9680664062499997
2.6514404296875
1.9303710937499998
0.041088867187499996
0.04189453125
0.041088867187499996
0.038671874999999994
0.043505859375
0.2972900390625
0.7951904296875
1.1335693359374999
1.719287109375
1.815966796875
2.3912109375
2.8641357421875
3.0470214843749996
3.0010986328125
2.9479248046874997
2.785986328125
0.038671874999999994
0.040283203125
0.15629882812499998
0.2022216796875
1.0376953125
0.7637695312499999
3.0470214843749996
3.04541015625
3.0478271484375
3.0067382812499996
2.4371337890625
1.7603759765625
1.4590576171874998
0.9273193359374999
0.9724365234375
0.533349609375
0.37382812499999996
0.11923828125
0.40605468749999996
0.5083740234374999
0.6735351562499999
3.0478271484375
3.050244140625
3.0470214843749996
2.9978759765625
2.4468017578125
3.0462158203125
0.088623046875
0.041088867187499996
0.043505859375
0.0394775390625
0.2956787109375
0.6662841796875
0.93779296875
1.4598632812499999
1.8941162109374998
2.34609375
2.7086425781249996
3.0470214843749996
3.0365478515624997
2.9994873046875
2.8351318359374997
0.041088867187499996
0.0443115234375
0.040283203125
0.26103515625
0.9498779296875
2.2453857421875
3.0494384765625
3.04541015625
3.050244140625
3.0010986328125
2.4645263671874997
1.9053955078125
1.529150390625
0.9958007812499999
1.0062744140625
0.7645751953125
0.4406982421875
0.7863281249999999
0.2860107421875
0.43344726562499997
0.5696044921875
1.574267578125
3.0478271484375
3.0486328124999997
3.0478271484375
2.6498291015624997
3.0470214843749996
0.6324462890625
0.042700195312499994
0.040283203125
0.0362548828125
0.1200439453125
0.5124023437499999
0.8789794921874999
1.4219970703125
1.8151611328125
2.176904296875
2.6997802734375
2.410546875
3.04541015625
2.9761230468749997
2.9044189453125
1.93681640625
0.04189453125
0.0443115234375
0.17482910156249998
0.554296875
2.889111328125
0.533349609375
3.0470214843749996
3.0462158203125
3.0486328124999997
2.69736328125
2.0649169921875
1.6048828124999999
1.229443359375
0.9982177734375
0.7387939453125
0.3424072265625
0.26103515625
0.275537109375
0.46164550781249997
0.5776611328125
0.8016357421875
3.0486328124999997
3.0462158203125
3.043798828125
2.6232421875
0.9144287109375
0.0837890625
0.038671874999999994
0.040283203125
0.037060546874999996
0.038671874999999994
0.4793701171875
0.894287109375
1.2503906249999999
1.587158203125
2.16884765625
2.5144775390625
2.9221435546874996
3.0429931640624996
3.0244628906249997
3.0188232421874996
2.18173828125
0.042700195312499994
0.038671874999999994
0.1699951171875
0.530126953125
1.1706298828125
3.0462158203125
3.0510498046874996
3.0486328124999997
3.0446044921874997
2.824658203125
2.1680419921875
1.7168701171874998
1.3446533203125
0.9740478515625
0.5124023437499999
0.620361328125
0.451171875
0.6912597656249999
0.49467773437499996
0.64453125
0.90234375
3.04541015625
3.0486328124999997
3.0429931640624996
2.8770263671875
2.3436767578124997
1.4518066406249999
0.042700195312499994
0.041088867187499996
0.04189453125
0.042700195312499994
0.327099609375
0.66064453125
0.97646484375
1.4735595703125
1.9053955078125
2.3001708984375
2.784375
2.7400634765625
3.0429931640624996
3.0486328124999997
2.900390625
0.041088867187499996
0.041088867187499996
0.1812744140625
0.39316406249999997
0.9643798828125
3.0429931640624996
3.0470214843749996
3.0470214843749996
3.0429931640624996
2.8713867187499997
2.408935546875
1.8868652343749999
1.4139404296875
1.198828125
1.05380859375
0.7323486328125
0.44230957031249996
0.041088867187499996
0.44956054687499997
0.549462890625
0.6856201171874999
3.04541015625
3.0510498046874996
3.0478271484375
3.0462158203125
2.4427734375
2.165625
0.0394775390625
0.041088867187499996
0.04189453125
0.04189453125
0.18046874999999998
0.6493652343749999
0.8386962890624999
1.3865478515624998
1.7208984374999998
2.36865234375
2.6885009765624996
3.0486328124999997
3.04541015625
3.027685546875
2.9664550781249996
0.041088867187499996
0.04189453125
0.04189453125
0.1071533203125
0.8701171875
0.041088867187499996
2.8133789062499996
3.0478271484375
3.0478271484375
3.0470214843749996
2.6860839843749997
2.1019775390624997
1.7499023437499999
1.4147460937499998
1.1867431640625
0.8701171875
0.6034423828125
0.0378662109375
0.4519775390625
0.4833984375
0.5406005859374999
3.0470214843749996
3.0486328124999997
3.0478271484375
3.050244140625
2.570068359375
2.5571777343749997
2.52978515625
0.041088867187499996
0.04189453125
0.041088867187499996
0.1329345703125
0.41330566406249997
0.6509765624999999
1.042529296875
1.5073974609374998
1.9263427734374998
2.462109375
3.0478271484375
2.8721923828125
3.011572265625
2.9414794921875
0.041088867187499996
0.04189453125
0.04189453125
0.120849609375
0.68642578125
2.9414794921875
2.296142578125
3.04541015625
3.0486328124999997
3.0470214843749996
2.8383544921875
2.4065185546875
2.05927734375
1.6927001953124998
1.506591796875
1.2721435546875
0.8185546874999999
0.7677978515624999
0.49064941406249996
0.5696044921875
0.6082763671875
0.6888427734375
3.04541015625
3.0486328124999997
3.0446044921874997
2.8536621093749996
2.3291748046875
2.924560546875
0.04189453125
0.0394775390625
0.0394775390625
0.040283203125
0.153076171875
0.38349609375
0.7855224609375
1.164990234375
1.658056640625
2.205908203125
2.592626953125
2.8375488281249996
2.9277832031249997
3.0059326171875
2.9302001953124996
0.04189453125
0.0443115234375
0.043505859375
0.3424072265625
2.592626953125
2.6876953125
3.0494384765625
3.0494384765625
3.0494384765625
3.050244140625
2.6562744140624996
2.2083251953125
1.941650390625
1.65966796875
1.4203857421875
1.119873046875
0.8531982421875
0.94423828125
0.523681640625
0.5857177734375
0.6292236328124999
3.0462158203125
3.0478271484375
3.0446044921874997
3.0413818359375
2.40087890625
0.045117187499999996
0.041088867187499996
0.040283203125
0.0443115234375
0.040283203125
0.0443115234375
0.346435546875
0.5889404296874999
0.9337646484375
1.5331787109375
1.79501953125
2.1986572265624997
2.2212158203125
2.711865234375
2.8431884765624997
2.8705810546875
0.04189453125
0.0394775390625
0.061230468749999996
0.36093749999999997
0.9321533203125
1.699951171875
3.0470214843749996
3.0446044921874997
3.0470214843749996
3.0462158203125
2.7771240234374996
2.410546875
2.2083251953125
2.0890869140625
1.6564453124999998
1.3913818359374999
1.0465576171875
1.084423828125
0.69287109375
0.6372802734374999
0.6195556640625
3.050244140625
3.04541015625
3.0478271484375
3.0486328124999997
2.6127685546875
3.04541015625
0.045117187499999996
0.0394775390625
0.041088867187499996
0.045117187499999996
0.038671874999999994
0.24089355468749998
0.32145996093749996
0.984521484375
0.9837158203124999
1.6008544921874999
2.1849609375
2.257470703125
2.6965576171874996
2.8206298828125
2.86494140625
0.046728515624999994
0.040283203125
0.09345703124999999
0.22880859374999998
0.813720703125
0.046728515624999994
3.050244140625
3.0462158203125
3.043798828125
3.0462158203125
2.86494140625
2.486279296875
2.1728759765625
1.85625
1.6379150390625
1.2826171874999999
0.9949951171875
0.7025390625
0.7162353515625
0.5937744140625
0.565576171875
2.383154296875
3.0462158203125
3.0486328124999997
3.0510498046874996
2.634521484375
3.050244140625
0.043505859375
0.04189453125
0.042700195312499994
0.04189453125
0.042700195312499994
0.1119873046875
0.33837890625
0.7968017578125
1.1303466796875
1.6604736328124998
2.0689453125
2.2695556640625
2.6538574218749997
2.8576904296874996
2.8931396484375
0.5518798828125
0.041088867187499996
0.040283203125
0.1877197265625
0.825
0.5696044921875
0.7073730468749999
3.0470214843749996
3.0486328124999997
3.0462158203125
3.02607421875
2.5265625
2.1946289062499997
1.928759765625
1.7490966796874998
1.4139404296875
1.0006347656249999
0.5969970703124999
0.6405029296875
0.591357421875
0.52529296875
2.1325927734375
3.0470214843749996
3.0478271484375
3.05185546875
2.68125
0.16435546874999998
2.3235351562499997
0.041088867187499996
0.041088867187499996
0.0475341796875
0.041088867187499996
0.1861083984375
0.3230712890625
0.610693359375
1.0812011718749999
1.4187744140624998
1.93681640625
2.4371337890625
2.5636230468749996
2.7416748046875
2.8544677734375
0.9643798828125
0.0394775390625
0.04189453125
0.116015625
0.55751953125
1.2262207031249999
3.050244140625
3.0446044921874997
3.0486328124999997
3.04541015625
3.05185546875
2.7223388671874997
2.44599609375
2.167236328125
1.883642578125
1.4961181640624999
1.40185546875
0.752490234375
0.7130126953125
0.6187499999999999
0.5341552734375
0.53173828125
3.0486328124999997
3.0478271484375
3.0470214843749996
2.9205322265625
2.4758056640625
1.7853515624999998
0.040283203125
0.040283203125
0.043505859375
0.04189453125
0.042700195312499994
0.2296142578125
0.5599365234375
0.865283203125
1.4598632812499999
1.6185791015625
2.3050048828125
2.4451904296875
2.7110595703125
2.8359375
2.8125732421875
0.0394775390625
0.0378662109375
0.0829833984375
0.3762451171875
0.9015380859375
3.0486328124999997
3.0486328124999997
3.0470214843749996
3.0486328124999997
3.05185546875
2.8625244140625
2.5660400390625
2.1849609375
1.9754882812499999
1.9835449218749999
1.3382080078124998
1.0272216796875
0.708984375
0.7097900390624999
0.6380859375
0.5696044921875
3.050244140625
3.0486328124999997
3.0478271484375
3.0478271484375
2.4306884765625
0.6574218749999999
0.038671874999999994
0.043505859375
0.041088867187499996
0.041088867187499996
0.0443115234375
0.21108398437499998
0.41411132812499996
0.829833984375
1.0626708984375
1.6218017578125
2.0568603515625
2.6433837890625
2.6522460937499996
2.7916259765625
2.8311035156249997
0.0378662109375
0.038671874999999994
0.043505859375
0.0604248046875
0.8016357421875
0.0378662109375
3.04541015625
3.050244140625
3.0486328124999997
3.04541015625
3.050244140625
2.7489257812499996
2.6111572265625
2.2494140625
2.3823486328125
1.8425537109374999
1.53720703125
0.8032470703125
0.94423828125
0.7387939453125
0.6517822265625
3.0478271484375
3.0486328124999997
3.0470214843749996
3.0526611328124997
2.7416748046875
3.0478271484375
1.361572265625
0.041088867187499996
0.04189453125
0.042700195312499994
0.04189453125
0.040283203125
0.0394775390625
0.26103515625
0.5325439453124999
0.9869384765625
1.3237060546875
2.04638671875
1.9787109374999998
2.2260498046875
2.4097412109375
0.041088867187499996
0.041088867187499996
0.04189453125
0.049145507812499996
0.69287109375
3.01962890625
3.0478271484375
3.050244140625
3.050244140625
3.0478271484375
3.0510498046874996
3.0147949218749996
2.8254638671874996
2.4564697265624997
2.4403564453124997
2.27841796875
1.8707519531249999
1.9303710937499998
1.224609375
1.174658203125
0.9208740234374999
0.9853271484374999
3.043798828125
3.0421875
3.0486328124999997
2.8166015625
1.4074951171874999
1.6910888671875
0.040283203125
0.04189453125
0.041088867187499996
0.040283203125
0.043505859375
0.054785156249999994
0.2215576171875
0.4326416015625
0.678369140625
1.2858398437499998
1.1206787109375
1.9263427734374998
2.1744873046874997
2.3581787109375
2.006103515625
0.038671874999999994
0.041088867187499996
0.0443115234375
0.40202636718749996
3.0486328124999997
0.6638671875
3.0462158203125
3.0478271484375
3.0486328124999997
3.0494384765625
3.0470214843749996
2.8230468749999997
2.6643310546874996
2.487890625
2.2647216796875
1.8763916015625
1.593603515625
1.603271484375
1.1214843749999999
0.966796875
0.8822021484375
3.0462158203125
3.0494384765625
3.0470214843749996
2.947119140625
1.8054931640624998
0.040283203125
0.0362548828125
0.037060546874999996
0.041088867187499996
0.04189453125
0.04189453125
0.0394775390625
0.21108398437499998
0.31662597656249997
0.7621582031249999
1.0497802734375
1.5170654296875
2.0036865234375
2.131787109375
2.3307861328125
2.4613037109375
0.04189453125
0.040283203125
0.095068359375
0.3472412109375
0.8854248046875
3.0494384765625
3.0494384765625
3.0478271484375
3.0462158203125
3.0470214843749996
3.0486328124999997
2.8560791015625
2.779541015625
2.5595947265624996
2.1825439453124997
2.1857666015625
1.6612792968749999
1.706396484375
1.187548828125
0.9974121093749999
0.8677001953125
3.0478271484375
3.0462158203125
3.0478271484375
3.0309082031249996
2.5974609374999997
2.7739013671875
0.0378662109375
0.040283203125
0.0394775390625
0.041088867187499996
0.0475341796875
0.04189453125
0.04189453125
0.3021240234375
0.47856445312499996
0.9877441406249999
1.4477783203124999
1.4115234374999999
1.9682373046875
2.2026855468749997
2.3678466796874997
0.041088867187499996
0.04189453125
0.12568359375
0.27634277343749997
0.7242919921875
2.963232421875
3.050244140625
3.0446044921874997
3.0470214843749996
3.0470214843749996
3.0462158203125
2.9664550781249996
2.8093505859374996
2.7392578125
2.534619140625
2.2051025390625
1.7877685546875
1.1174560546874999
1.3543212890624998
1.0820068359375
0.9337646484375
3.04541015625
3.0470214843749996
3.0486328124999997
3.0462158203125
2.6337158203124997
3.0429931640624996
0.040283203125
0.04189453125
0.04189453125
0.04189453125
0.04189453125
0.041088867187499996
0.041088867187499996
0.191748046875
0.31743164062499996
0.7718261718749999
1.12470703125
1.8900878906249998
1.7345947265625
2.0625
2.2357177734375
0.04189453125
0.038671874999999994
0.041088867187499996
0.127294921875
0.5929687499999999
0.04189453125
2.14951171875
3.050244140625
3.0462158203125
3.05185546875
3.0486328124999997
3.04541015625
2.9253662109375
2.72314453125
2.6562744140624996
2.2469970703124997
1.9827392578124998
1.73056640625
1.4308593749999998
1.235888671875
1.0513916015625
0.9345703125
3.0486328124999997
3.0470214843749996
3.0462158203125
2.69736328125
1.638720703125
3.0510498046874996
0.042700195312499994
0.040283203125
0.043505859375
0.042700195312499994
0.0346435546875
0.0362548828125
0.169189453125
0.3802734375
0.6582275390625
1.11826171875
1.5122314453124999
1.6959228515625
1.9795166015624999
2.13984375
0.041088867187499996
0.042700195312499994
0.041088867187499996
0.040283203125
0.5124023437499999
2.3477050781249997
2.8883056640625
3.0470214843749996
3.0494384765625
3.0470214843749996
3.04541015625
3.0478271484375
2.9108642578125
2.874609375
2.753759765625
2.5305908203125
2.2727783203125
1.6604736328124998
1.3639892578125
1.300341796875
1.0812011718749999
0.93779296875
3.0478271484375
3.04541015625
3.0429931640624996
2.874609375
2.463720703125
0.040283203125
0.041088867187499996
0.043505859375
0.0362548828125
0.04189453125
0.041088867187499996
0.043505859375
0.04189453125
0.28359375
0.7073730468749999
0.823388671875
1.561376953125
1.7039794921875
1.8046875
2.060888671875
2.16884765625
0.045117187499999996
0.038671874999999994
0.037060546874999996
0.359326171875
0.871728515625
3.0486328124999997
3.04541015625
3.0494384765625
3.0462158203125
3.0486328124999997
3.043798828125
2.9688720703125
2.8391601562499997
2.6876953125
2.5757080078124996
2.2888916015625
1.8602783203125
1.912646484375
1.4034667968749999
1.1545166015625
0.992578125
3.0470214843749996
3.0470214843749996
3.0510498046874996
3.0470214843749996
2.4758056640625
0.043505859375
0.0378662109375
0.04189453125
0.042700195312499994
0.041088867187499996
0.040283203125
0.04189453125
0.04189453125
0.4125
0.2513671875
0.7951904296875
1.2850341796875
1.4308593749999998
1.8908935546874999
2.141455078125
2.2292724609375
0.04189453125
0.038671874999999994
0.045117187499999996
0.13212890624999998
0.8362792968749999
1.0030517578125
3.0470214843749996
3.0486328124999997
3.05185546875
3.0470214843749996
3.0486328124999997
2.9438964843749997
2.8883056640625
2.7489257812499996
2.5555664062499996
2.160791015625
1.9513183593749999
1.674169921875
1.4268310546874998
1.2076904296875
1.045751953125
3.0486328124999997
3.0478271484375
3.0462158203125
3.0421875
2.6143798828125
3.0478271484375
0.040283203125
0.0394775390625
0.04189453125
0.037060546874999996
0.041088867187499996
0.041088867187499996
0.040283203125
0.24331054687499998
0.3021240234375
0.7395996093749999
1.0771728515624999
1.2350830078125
1.8183837890624999
2.0149658203125
2.2034912109375
0.043505859375
0.041088867187499996
0.041088867187499996
0.133740234375
0.6646728515625
0.5905517578125
0.4648681640625
3.04541015625
3.0486328124999997
3.04541015625
3.0421875
3.01318359375
2.889111328125
2.8149902343749997
2.7142822265624997
2.486279296875
1.9787109374999998
1.9859619140625
1.496923828125
1.3446533203125
1.03447265625
2.40732421875
3.0462158203125
3.0703857421875
3.04541015625
2.745703125
0.252978515625
0.24089355468749998
0.042700195312499994
0.0475341796875
0.041088867187499996
0.038671874999999994
0.0346435546875
0.043505859375
0.15791015625
0.3343505859375
0.5115966796875
0.9563232421875
0.9305419921875
1.5734619140625
1.8038818359375
2.0898925781249997
0.44794921875
0.04189453125
0.041088867187499996
0.050756835937499994
0.46567382812499997
1.055419921875
0.09345703124999999
3.0470214843749996
3.0470214843749996
3.0494384765625
3.0486328124999997
3.0470214843749996
3.018017578125
2.889111328125
2.8270751953124997
2.5402587890625
2.115673828125
1.748291015625
1.5686279296874999
1.3446533203125
1.12470703125
0.936181640625
3.0494384765625
3.050244140625
3.0470214843749996
2.914892578125
0.3262939453125
1.719287109375
0.04189453125
0.042700195312499994
0.0394775390625
0.0322265625
0.0378662109375
0.040283203125
0.057202148437499996
0.20866699218749998
0.6968994140625
0.8838134765625
1.37607421875
1.5170654296875
1.9078125
2.1180908203124997
2.1946289062499997
0.04189453125
0.042700195312499994
0.0515625
0.281982421875
0.97646484375
3.043798828125
3.05185546875
3.0470214843749996
3.04541015625
3.0470214843749996
3.0446044921874997
2.9237548828124997
2.8311035156249997
2.72314453125
2.2743896484375
2.1785156249999997
1.8369140625
1.5637939453124998
1.3905761718749998
1.1883544921875
1.00224609375
3.0470214843749996
3.0462158203125
3.0429931640624996
2.8995849609374997
2.43310546875
0.6251953124999999
0.041088867187499996
0.040283203125
0.0443115234375
0.042700195312499994
0.041088867187499996
0.040283203125
0.08056640625
0.3424072265625
0.91201171875
1.1255126953124999
1.5863525390625
1.9142578124999998
2.26552734375
2.457275390625
2.560400390625
0.041088867187499996
0.0443115234375
0.16838378906249998
0.42539062499999997
1.0401123046875
0.043505859375
3.0510498046874996
3.0478271484375
3.0470214843749996
3.0486328124999997
2.856884765625
2.5305908203125
2.3404541015625
1.9916015624999999
2.0036865234375
1.4187744140624998
1.1214843749999999
0.4640625
0.5768554687499999
0.4962890625
0.46728515625
3.0486328124999997
3.0470214843749996
3.0446044921874997
3.0470214843749996
2.615185546875
3.0462158203125
0.040283203125
0.04189453125
0.041088867187499996
0.04189453125
0.0394775390625
0.182080078125
0.33515625
0.8040527343749999
1.1110107421875
1.5484863281249999
2.093115234375
2.7771240234374996
2.631298828125
2.8190185546874997
2.88427734375
0.11843261718749999
0.038671874999999994
0.0797607421875
0.15791015625
0.7557128906249999
0.038671874999999994
3.0494384765625
3.0486328124999997
3.0429931640624996
3.0470214843749996
2.9028076171875
2.5918212890624996
2.1970458984375
1.8296630859374998
1.7474853515625
1.3220947265624998
0.9708251953125
1.2568359375
0.5808837890624999
0.5003173828124999
0.4842041015625
0.734765625
3.0486328124999997
3.0486328124999997
3.0494384765625
2.78759765625
3.0470214843749996
1.5984375
0.041088867187499996
0.041088867187499996
0.0394775390625
0.040283203125
0.165966796875
0.3424072265625
0.75732421875
1.1400146484375
1.5944091796875
2.1309814453125
1.9223144531249998
2.689306640625
2.848828125
2.94873046875
2.4524414062499997
0.041088867187499996
0.0539794921875
0.042700195312499994
0.6598388671875
3.05185546875
0.8386962890624999
3.0470214843749996
3.0462158203125
3.0478271484375
3.0462158203125
2.6031005859375
2.257470703125
1.973876953125
1.7047851562499998
1.4550292968749998
0.9966064453125
0.7500732421874999
0.5067626953125
0.5478515625
0.485009765625
0.530126953125
3.0478271484375
3.0478271484375
3.0470214843749996
2.7481201171875
1.735400390625
0.042700195312499994
0.0443115234375
0.037060546874999996
0.038671874999999994
0.042700195312499994
0.0910400390625
0.3198486328125
0.604248046875
1.1134277343749999
1.4284423828125
1.7410400390624998
1.9593749999999999
2.6562744140624996
2.7964599609375
2.9277832031249997
2.8012939453124996
0.041088867187499996
0.04189453125
0.04189453125
0.42941894531249997
0.9240966796875
1.461474609375
3.0478271484375
3.0486328124999997
3.0470214843749996
3.0486328124999997
2.7779296875
2.421826171875
2.1301757812499997
1.9037841796875
1.3921875
1.2455566406249998
0.9007324218749999
1.05380859375
0.555908203125
0.459228515625
0.5454345703125
3.0470214843749996
3.0494384765625
3.0462158203125
2.9922363281249997
2.6458007812499997
0.041088867187499996
0.041088867187499996
0.0378662109375
0.040283203125
0.038671874999999994
0.043505859375
0.249755859375
0.49951171875
0.8290283203125
1.1061767578125
1.7418457031249999
2.1760986328125
2.1325927734375
2.6933349609375
2.802099609375
2.848828125
0.04189453125
0.0394775390625
0.1313232421875
0.3198486328125
0.9958007812499999
3.043798828125
3.0486328124999997
3.0486328124999997
3.04541015625
3.0486328124999997
2.9221435546874996
2.5177001953125
2.2099365234375
2.05283203125
1.40830078125
1.3631835937499999
1.00224609375
0.33837890625
0.646142578125
0.5615478515625
0.5406005859374999
3.05185546875
3.0486328124999997
3.0478271484375
3.0389648437499996
2.6079345703124996
3.043798828125
0.038671874999999994
0.045117187499999996
0.04189453125
0.043505859375
0.04189453125
0.12890625
0.182080078125
0.5607421874999999
0.7734375
1.35673828125
1.72412109375
1.9182861328124998
2.4846679687499997
2.6361328124999996
2.7811523437499996
0.041088867187499996
0.037060546874999996
0.04189453125
0.1619384765625
0.6574218749999999
0.045117187499999996
3.0462158203125
3.0470214843749996
3.0470214843749996
3.0470214843749996
3.0494384765625
2.8858886718749996
2.753759765625
2.6111572265625
2.415380859375
2.1841552734375
1.80791015625
1.3817138671875
1.316455078125
1.119873046875
0.9144287109375
3.050244140625
3.0486328124999997
3.050244140625
3.0486328124999997
2.6868896484375
0.9643798828125
0.040283203125
0.038671874999999994
0.04189453125
0.040283203125
0.0443115234375
0.0378662109375
0.041088867187499996
0.3182373046875
0.4713134765625
0.7516845703124999
1.3083984375
1.72412109375
1.8788085937499999
2.1704589843749997
2.4049072265625
0.038671874999999994
0.04189453125
0.04189453125
0.0845947265625
0.5841064453125
2.002880859375
1.2125244140625
3.0478271484375
3.0462158203125
3.050244140625
3.0462158203125
3.0357421875
2.8069335937499997
2.666748046875
2.5483154296875
2.286474609375
1.735400390625
1.3494873046875
1.19560546875
1.095703125
0.8902587890625
0.7355712890624999
3.0446044921874997
3.0486328124999997
3.0486328124999997
2.8915283203124997
0.42619628906249996
2.9704833984374996
0.0378662109375
0.043505859375
0.04189453125
0.04189453125
0.042700195312499994
0.043505859375
0.1796630859375
0.391552734375
0.7541015624999999
1.2181640624999999
1.8103271484374999
1.8989501953124999
2.157568359375
2.38154296875
2.4322998046874997
0.0443115234375
0.038671874999999994
0.038671874999999994
0.291650390625
1.4469726562499998
3.0486328124999997
3.0510498046874996
3.0486328124999997
3.0446044921874997
3.0421875
2.9882080078124997
2.8254638671874996
2.7344238281249997
2.5265625
2.2711669921874997
1.9376220703125
1.6508056640625
1.3092041015625
1.158544921875
1.0046630859374999
0.829833984375
3.0470214843749996
3.050244140625
3.0486328124999997
2.9366455078125
2.5048095703124997
0.040283203125
0.041088867187499996
0.0443115234375
0.04189453125
0.043505859375
0.041088867187499996
0.037060546874999996
0.041088867187499996
0.3391845703125
0.887841796875
0.9273193359374999
1.413134765625
1.7934082031249998
2.060888671875
2.2953369140624997
2.4556640625
0.04189453125
0.041088867187499996
0.042700195312499994
0.29970703125
0.8346679687499999
0.1345458984375
3.0470214843749996
3.0462158203125
3.0446044921874997
3.0462158203125
3.0478271484375
2.9116699218749997
2.8367431640625
2.6063232421875
2.6441894531249996
2.054443359375
1.683837890625
1.4364990234375
1.2705322265624999
1.0256103515625
0.8693115234375
3.0486328124999997
3.0486328124999997
3.043798828125
3.0494384765625
2.6232421875
0.17080078124999998
0.045117187499999996
0.04189453125
0.045117187499999996
0.04189453125
0.038671874999999994
0.040283203125
0.1087646484375
0.40605468749999996
0.45439453124999996
0.862060546875
1.3825195312499998
1.7772949218749998
1.8788085937499999
2.1728759765625
2.338037109375
0.043505859375
0.0443115234375
0.04833984375
0.13615722656249998
0.6703125
0.040283203125
3.04541015625
3.0446044921874997
3.0486328124999997
3.0470214843749996
3.0462158203125
2.9302001953124996
2.8254638671874996
2.51044921875
2.5652343749999997
2.18818359375
1.8876708984375
2.0334960937499997
1.206884765625
1.013525390625
0.8677001953125
1.6435546875
3.04541015625
3.0478271484375
3.0462158203125
2.6643310546874996
3.0486328124999997
0.7549072265625
0.04189453125
0.041088867187499996
0.042700195312499994
0.0378662109375
0.04189453125
0.043505859375
0.2199462890625
0.42136230468749997
0.7694091796875
1.187548828125
0.9289306640624999
1.8344970703124999
2.096337890625
2.2993652343749997
0.04189453125
0.040283203125
0.041088867187499996
0.04189453125
0.6348632812499999
2.4427734375
0.043505859375
3.050244140625
3.0478271484375
3.0510498046874996
3.0470214843749996
3.0067382812499996
2.860107421875
2.7207275390624996
2.5531494140624997
2.32998046875
1.9585693359374998
2.0697509765624997
1.3269287109374999
1.1915771484375
0.966796875
1.2938964843749998
3.0470214843749996
3.0462158203125
3.0478271484375
2.802099609375
0.97646484375
0.588134765625
0.042700195312499994
0.042700195312499994
0.042700195312499994
0.040283203125
0.0394775390625
0.045117187499999996
0.14421386718749998
0.42136230468749997
0.6670898437499999
0.9603515625
1.0288330078124999
1.8812255859375
2.1068115234375
2.3009765625
1.6395263671875
0.04189453125
0.0443115234375
0.041088867187499996
0.3585205078125
0.9079833984375
0.0443115234375
3.0462158203125
3.0494384765625
3.0486328124999997
3.0486328124999997
3.0478271484375
2.8818603515624996
2.7521484375
2.6280761718749996
2.1777099609375
2.1551513671875
1.6975341796874999
1.6653076171874999
1.2745605468749999
1.0465576171875
0.9514892578124999
3.0462158203125
3.0470214843749996
3.050244140625
2.953564453125
2.5475097656249996
0.159521484375
0.0378662109375
0.0394775390625
0.0378662109375
0.040283203125
0.041088867187499996
0.041088867187499996
0.12568359375
0.21269531249999998
0.580078125
1.01513671875
1.3591552734374999
1.4034667968749999
1.8651123046875
2.209130859375
2.3203125
0.041088867187499996
0.04189453125
0.0878173828125
0.26022949218749997
0.7049560546875
3.0421875
3.0494384765625
3.0470214843749996
3.0486328124999997
3.0478271484375
3.0486328124999997
2.9342285156249996
2.8810546875
2.8335205078124996
2.785986328125
2.305810546875
1.9078125
1.203662109375
1.3092041015625
1.1158447265625
0.920068359375
3.043798828125
3.0486328124999997
3.0486328124999997
3.04541015625
2.631298828125
2.4274658203125
0.0394775390625
0.042700195312499994
0.0443115234375
0.042700195312499994
0.04189453125
0.040283203125
0.0362548828125
0.1571044921875
0.3601318359375
0.6936767578124999
1.0046630859374999
1.7587646484375
1.6411376953124999
1.8868652343749999
2.0536376953124997
0.040283203125
0.041088867187499996
0.041088867187499996
0.2586181640625
0.733154296875
0.045117187499999996
2.8109619140624997
3.0462158203125
3.04541015625
3.04541015625
3.0494384765625
3.0470214843749996
3.0486328124999997
2.9060302734374996
2.8899169921874996
2.5491210937499997
2.2179931640625
1.40830078125
1.6822265625
1.4364990234375
1.200439453125
3.0478271484375
3.0462158203125
3.0478271484375
3.05185546875
2.6619140624999997
3.0486328124999997
0.040283203125
0.04189453125
0.042700195312499994
0.041088867187499996
0.0394775390625
0.040283203125
0.040283203125
0.2118896484375
0.291650390625
0.604248046875
1.00546875
1.8071044921875
1.5984375
1.8957275390625
2.1116455078125
0.0362548828125
0.040283203125
0.040283203125
0.0910400390625
0.6356689453125
3.0389648437499996
2.5982666015625
3.0470214843749996
3.0486328124999997
3.0486328124999997
3.0486328124999997
3.0365478515624997
2.850439453125
2.7030029296875
2.6176025390624997
2.4451904296875
1.9078125
1.8498046874999998
1.2890625
1.155322265625
0.992578125
0.8161376953124999
3.0470214843749996
3.0494384765625
3.0526611328124997
2.834326171875
2.11083984375
2.9978759765625
0.0443115234375
0.041088867187499996
0.041088867187499996
0.043505859375
0.041088867187499996
0.042700195312499994
0.1861083984375
0.39638671875
0.6856201171874999
1.1255126953124999
1.3100097656249998
1.799853515625
2.0109375
2.2051025390625
2.280029296875
0.041088867187499996
0.040283203125
0.04189453125
0.28681640625
2.753759765625
2.3420654296875
3.0462158203125
3.0494384765625
3.0470214843749996
3.0478271484375
3.0470214843749996
2.9060302734374996
2.8641357421875
2.7086425781249996
2.5483154296875
2.23974609375
1.8054931640624998
1.3220947265624998
1.2568359375
1.069921875
0.952294921875
3.0470214843749996
3.0446044921874997
3.0470214843749996
2.8536621093749996
2.333203125
0.04189453125
0.0443115234375
0.041088867187499996
0.043505859375
0.04189453125
0.04189453125
0.043505859375
0.045117187499999996
0.31904296875
0.7194580078124999
0.9394042968749999
1.3237060546875
1.8006591796875
1.948095703125
2.152734375
2.29775390625
0.0378662109375
0.0378662109375
0.042700195312499994
0.28359375
0.8185546874999999
1.912646484375
3.0478271484375
3.0470214843749996
3.0470214843749996
3.050244140625
3.0486328124999997
2.9414794921875
2.85849609375
2.6063232421875
2.437939453125
2.1245361328125
1.7200927734375
1.8731689453125
1.303564453125
1.1214843749999999
0.9531005859374999
3.0470214843749996
3.0446044921874997
3.043798828125
3.0083496093749997
2.6055175781249997
3.0470214843749996
0.042700195312499994
0.04189453125
0.041088867187499996
0.04189453125
0.042700195312499994
0.041088867187499996
0.0443115234375
0.45439453124999996
0.31340332031249996
0.8113037109375
1.30517578125
1.3212890625
1.8457763671874998
2.0520263671875
2.263916015625
0.041088867187499996
0.04189453125
0.045117187499999996
0.24733886718749998
0.75087890625
1.5001464843749999
3.0462158203125
3.0486328124999997
3.0494384765625
3.0486328124999997
3.050244140625
2.98095703125
2.85849609375
2.7368408203124996
2.5483154296875
2.2018798828125
1.8538330078124998
1.329345703125
1.3849365234375
1.0916748046875
0.9329589843749999
2.8375488281249996
3.0478271484375
3.0470214843749996
3.0462158203125
2.6723876953124996
3.0470214843749996
0.042700195312499994
0.041088867187499996
0.0394775390625
0.038671874999999994
0.040283203125
0.041088867187499996
0.04189453125
0.2505615234375
0.41411132812499996
0.8274169921875
1.2181640624999999
1.5355957031249998
1.7128417968749998
2.109228515625
2.3074218749999997
0.0539794921875
0.041088867187499996
0.042700195312499994
0.058813476562499994
0.46970214843749997
0.0966796875
0.7323486328125
3.0470214843749996
3.0478271484375
3.0486328124999997
3.0478271484375
3.0236572265625
2.91328125
2.7384521484374997
2.6272705078125
2.31708984375
1.8409423828125
1.461474609375
1.368017578125
1.155322265625
0.9756591796874999
0.8113037109375
3.0446044921874997
3.0486328124999997
3.0486328124999997
2.7400634765625
0.3037353515625
2.7892089843749996
0.04189453125
0.040283203125
0.040283203125
0.040283203125
0.042700195312499994
0.043505859375
0.18449707031249998
0.34079589843749997
0.6348632812499999
1.0481689453125
1.6314697265625
1.72734375
1.9948242187499998
2.189794921875
0.15791015625
0.04189453125
0.045117187499999996
0.04189453125
0.44956054687499997
1.335791015625
3.0462158203125
3.0462158203125
3.043798828125
3.0478271484375
3.0494384765625
3.050244140625
2.88427734375
2.8230468749999997
2.5773193359374997
2.2905029296875
2.0761962890625
1.4638916015624999
1.34384765625
1.2238037109375
1.039306640625
0.8386962890624999
3.0470214843749996
3.0494384765625
3.05185546875
2.9366455078125
2.5048095703124997
0.042700195312499994
0.042700195312499994
0.041088867187499996
0.04189453125
0.0475341796875
0.0394775390625
0.040283203125
0.043505859375
0.3037353515625
0.8201660156249999
0.8701171875
1.590380859375
1.7047851562499998
1.993212890625
2.18818359375
2.3597900390624997
0.04189453125
0.041088867187499996
0.04189453125
0.29245605468749997
0.7879394531249999
3.0462158203125
3.0486328124999997
3.04541015625
3.0470214843749996
3.0470214843749996
3.05185546875
2.9414794921875
2.7908203124999997
2.7030029296875
2.7585937499999997
2.1849609375
1.7587646484375
1.4228027343749998
1.268115234375
1.0272216796875
0.8580322265625
3.050244140625
3.0446044921874997
3.0486328124999997
3.0486328124999997
2.634521484375
0.2457275390625
0.042700195312499994
0.038671874999999994
0.040283203125
0.0443115234375
0.040283203125
0.0443115234375
0.0443115234375
0.34482421874999997
0.410888671875
0.984521484375
1.2818115234374998
1.7208984374999998
1.8256347656249998
2.112451171875
2.25263671875
0.041088867187499996
0.041088867187499996
0.058813476562499994
0.08137207031249999
0.7001220703125
0.037060546874999996
3.050244140625
3.04541015625
3.0478271484375
3.0486328124999997
3.0478271484375
2.9277832031249997
2.86494140625
2.5966552734375
2.647412109375
2.2880859375
2.0181884765625
2.1333984375
1.3623779296874998
1.1537109374999999
0.9434326171874999
1.6959228515625
3.0462158203125
3.0494384765625
3.0486328124999997
2.6200195312499996
3.0486328124999997
0.62197265625
0.041088867187499996
0.03544921875
0.0378662109375
0.040283203125
0.04833984375
0.0443115234375
0.191748046875
0.38591308593749996
0.7532958984375
1.14404296875
0.9651855468749999
1.844970703125
2.070556640625
2.2510253906249997
1.2511962890625
0.04189453125
0.04189453125
0.0443115234375
0.7001220703125
2.30419921875
0.0394775390625
3.04541015625
3.0486328124999997
3.0462158203125
3.0486328124999997
3.001904296875
2.89072265625
2.7593994140625
2.6256591796874997
2.392822265625
1.973876953125
1.6854492187499999
1.3849365234375
1.2350830078125
1.013525390625
1.3390136718749999
3.05185546875
3.0478271484375
3.0446044921874997
2.760205078125
0.9853271484374999
0.62197265625
0.038671874999999994
0.043505859375
0.042700195312499994
0.041088867187499996
0.04189453125
0.041088867187499996
0.13212890624999998
0.4471435546875
0.631640625
1.0014404296875
1.013525390625
1.8062988281249999
1.993212890625
2.2083251953125
1.554931640625
0.0378662109375
0.0394775390625
0.0829833984375
0.4447265625
0.8749511718749999
3.0462158203125
3.04541015625
3.0486328124999997
3.0462158203125
3.0470214843749996
3.0494384765625
2.8858886718749996
2.7352294921875
2.4564697265624997
2.0004638671875
2.1503173828124997
1.6330810546874999
1.4864501953125
1.2753662109375
1.0248046874999999
0.8660888671875
3.0478271484375
3.0462158203125
3.037353515625
2.9350341796875
2.5201171875
0.0378662109375
0.04189453125
0.04189453125
0.043505859375
0.041088867187499996
0.040283203125
0.041088867187499996
0.10957031249999999
0.18852539062499998
0.7097900390624999
1.0111083984375
1.3414306640625
1.5138427734375
1.8892822265625
2.1599853515625
2.2832519531249997
0.0378662109375
0.04189453125
0.0797607421875
0.2779541015625
0.9353759765624999
3.0462158203125
3.0478271484375
3.0486328124999997
3.0478271484375
3.0470214843749996
3.0478271484375
2.9342285156249996
2.827880859375
2.7739013671875
2.7593994140625
2.29453125
1.8264404296874999
1.1456542968749999
1.2366943359375
1.0546142578125
0.849169921875
3.0470214843749996
3.0486328124999997
3.0486328124999997
3.0470214843749996
2.576513671875
2.6232421875
0.0443115234375
0.042700195312499994
0.0378662109375
0.043505859375
0.043505859375
0.04189453125
0.041088867187499996
0.2135009765625
0.51884765625
0.8346679687499999
1.2560302734375
1.9795166015624999
1.915869140625
2.1301757812499997
2.3154785156249997
0.04189453125
0.037060546874999996
0.042700195312499994
0.23525390624999998
0.6727294921875
0.04189453125
2.8995849609374997
3.0486328124999997
3.0486328124999997
3.0478271484375
3.0478271484375
2.9664550781249996
2.9044189453125
2.7126708984374996
2.6578857421874997
2.2727783203125
1.9343994140624998
1.0932861328124999
1.3873535156249999
1.1400146484375
0.9208740234374999
3.0486328124999997
3.0486328124999997
3.0470214843749996
3.0486328124999997
2.68125
2.8214355468749996
0.041088867187499996
0.040283203125
0.0443115234375
0.045117187499999996
0.041088867187499996
0.037060546874999996
0.041088867187499996
0.294873046875
0.4084716796875
0.7919677734374999
1.1996337890625
2.0471923828125
1.832080078125
2.1197021484375
2.296142578125
0.038671874999999994
0.040283203125
0.0394775390625
0.04189453125
0.526904296875
2.9438964843749997
2.3267578125
3.0462158203125
3.0486328124999997
3.0470214843749996
3.0486328124999997
3.0462158203125
2.8834716796874997
2.7432861328125
2.6490234375
2.4967529296874997
1.9343994140624998
1.9029785156249999
1.3229003906249999
1.1174560546874999
0.958740234375
0.8523925781249999
3.0486328124999997
3.0478271484375
3.0478271484375
2.866552734375
1.9327880859375
3.0478271484375
0.04189453125
0.04189453125
0.04189453125
0.0394775390625
0.0394775390625
0.041088867187499996
0.2054443359375
0.399609375
0.58974609375
1.15048828125
1.3430419921874999
1.8473876953125
2.05927734375
2.26552734375
2.3807373046875
0.0443115234375
0.04189453125
0.041088867187499996
0.35288085937499997
2.5257568359375
2.7223388671874997
3.04541015625
3.0462158203125
3.04541015625
3.0486328124999997
3.0486328124999997
2.8963623046875
2.8383544921875
2.6482177734374996
2.6039062499999996
2.183349609375
1.8183837890624999
1.31162109375
1.2044677734375
1.0111083984375
0.7822998046874999
3.04541015625
3.0486328124999997
3.0478271484375
2.8810546875
2.437939453125
0.04189453125
0.041088867187499996
0.040283203125
0.042700195312499994
0.0394775390625
0.038671874999999994
0.041088867187499996
0.0394775390625
0.372216796875
0.7387939453125
0.7855224609375
1.3237060546875
1.8586669921874999
1.9400390625
2.1720703125
2.3565673828125
0.042700195312499994
0.042700195312499994
0.07814941406249999
0.343212890625
0.8032470703125
1.1923828125
3.0462158203125
3.0486328124999997
3.0478271484375
3.0470214843749996
3.0462158203125
2.940673828125
2.8963623046875
2.60068359375
2.34931640625
2.1978515625
1.7595703125
1.79501953125
1.2963134765625
1.1384033203125
0.926513671875
3.0470214843749996
3.0478271484375
3.0478271484375
3.0421875
2.5869873046875
3.0494384765625
0.0443115234375
0.04189453125
0.040283203125
0.037060546874999996
0.041088867187499996
0.042700195312499994
0.045117187499999996
0.36577148437499996
0.19899902343749998
0.8040527343749999
1.3188720703124999
1.3559326171875
1.9247314453125
2.20107421875
2.3138671875
0.04189453125
0.04189453125
0.038671874999999994
0.1699951171875
0.704150390625
0.42136230468749997
3.0486328124999997
3.0462158203125
3.0429931640624996
3.04541015625
3.0486328124999997
2.9882080078124997
2.9100585937499996
2.6860839843749997
2.602294921875
2.228466796875
1.8546386718749999
1.4332763671875
1.4437499999999999
1.134375
0.936181640625
2.6643310546874996
3.0486328124999997
3.050244140625
3.0486328124999997
2.5918212890624996
3.0486328124999997
0.041088867187499996
0.041088867187499996
0.0394775390625
0.04189453125
0.04189453125
0.0443115234375
0.043505859375
0.175634765625
0.339990234375
0.8427246093749999
1.1690185546875
1.4880615234374999
1.8763916015625
2.051220703125
2.230078125
0.46164550781249997
0.0378662109375
0.043505859375
0.12568359375
0.7178466796874999
0.9812988281249999
0.038671874999999994
3.0470214843749996
3.0470214843749996
3.0478271484375
3.0478271484375
3.021240234375
2.8464111328125
2.753759765625
2.6280761718749996
2.2856689453125
1.8812255859375
1.5573486328125
1.3865478515624998
1.147265625
0.9595458984374999
2.1809326171875
3.0470214843749996
3.0446044921874997
3.0478271484375
2.7626220703124997
0.28359375
1.9956298828124999
0.040283203125
0.041088867187499996
0.04189453125
0.042700195312499994
0.041088867187499996
0.038671874999999994
0.09990234375
0.346435546875
0.5736328125
1.06025390625
1.2173583984375
1.6862548828125
1.9891845703125
2.19140625
0.0708984375
0.040283203125
0.043505859375
0.075732421875
0.49306640625
1.0505859375
3.0446044921874997
3.0446044921874997
3.0494384765625
3.0486328124999997
3.0478271484375
3.0446044921874997
2.8858886718749996
2.7585937499999997
2.6514404296875
2.3646240234375
2.1261474609374997
1.62744140625
1.3543212890624998
1.2697265624999998
1.0094970703125
0.8580322265625
3.0478271484375
3.05185546875
3.0478271484375
2.9463134765624996
2.5201171875
0.9788818359375
0.0378662109375
0.04189453125
0.040283203125
0.037060546874999996
0.041088867187499996
0.040283203125
0.10957031249999999
0.17885742187499998
0.8765624999999999
0.9482666015625
1.397021484375
1.6612792968749999
1.8973388671875
2.183349609375
2.3130615234375
0.041088867187499996
0.04189453125
0.09345703124999999
0.33757324218749996
0.7919677734374999
3.0470214843749996
3.04541015625
3.0462158203125
3.0478271484375
3.04541015625
3.0470214843749996
2.9036132812499997
2.83271484375
2.7078369140625
2.9060302734374996
2.3009765625
1.78857421875
1.5492919921875
1.2826171874999999
1.0803955078125
0.9410156249999999
3.0526611328124997
3.0446044921874997
3.0478271484375
3.0478271484375
2.5877929687499996
1.7772949218749998
0.038671874999999994
0.0394775390625
0.041088867187499996
0.041088867187499996
0.040283203125
0.038671874999999994
0.02578125
0.21591796875
0.7315429687499999
0.8048583984375
1.18271484375
1.5944091796875
1.8199951171875
2.064111328125
2.1954345703125
0.041088867187499996
0.041088867187499996
0.041088867187499996
0.1957763671875
0.7677978515624999
0.0394775390625
3.0486328124999997
3.0462158203125
3.050244140625
3.04541015625
3.0486328124999997
3.0139892578125
2.9503417968749996
2.6683593749999996
2.892333984375
2.354150390625
2.0496093749999997
1.3510986328124999
1.3881591796875
1.1384033203125
0.93779296875
3.0470214843749996
3.0470214843749996
3.0462158203125
3.0478271484375
2.650634765625
3.04541015625
0.043505859375
0.037060546874999996
0.038671874999999994
0.040283203125
0.04189453125
0.0378662109375
0.043505859375
0.270703125
0.4318359375
0.75732421875
1.276171875
1.9062011718749998
1.8473876953125
2.054443359375
2.2953369140624997
0.042700195312499994
0.0394775390625
0.042700195312499994
0.038671874999999994
0.5599365234375
3.0470214843749996
2.9745117187499996
3.0470214843749996
3.0494384765625
3.0470214843749996
3.0478271484375
2.96484375
2.8786376953125
2.70380859375
2.616796875
2.376708984375
1.9190917968749999
1.9529296875
1.3551269531249999
1.1786865234375
1.0167480468749999
0.945849609375
3.0462158203125
3.0486328124999997
3.0478271484375
2.8818603515624996
3.04541015625
2.8166015625
0.04189453125
0.04189453125
0.0378662109375
0.041088867187499996
0.04189453125
0.04189453125
0.18449707031249998
0.43425292968749996
0.734765625
1.1883544921875
1.155322265625
1.7797119140625
2.0109375
2.2067138671874997
2.2341064453125
0.04189453125
0.0394775390625
0.040283203125
0.5244873046874999
3.0494384765625
1.6854492187499999
3.0446044921874997
3.0486328124999997
3.0470214843749996
3.0478271484375
3.0478271484375
2.8754150390624997
2.8141845703125
2.6764160156249996
2.5402587890625
2.0246337890625
1.7909912109375
1.3833251953124999
1.2399169921875
1.0812011718749999
0.8757568359375
3.0510498046874996
3.0478271484375
3.0486328124999997
2.8939453124999996
2.281640625
0.043505859375
0.042700195312499994
0.040283203125
0.0362548828125
0.0394775390625
0.040283203125
0.041088867187499996
0.0394775390625
0.36979980468749996
0.52529296875
0.9208740234374999
1.271337890625
1.74345703125
1.88525390625
2.1221191406249997
2.31708984375
0.0459228515625
0.041088867187499996
0.040283203125
0.30615234375
0.8773681640625
2.0697509765624997
3.0478271484375
3.0413818359375
3.050244140625
3.04541015625
3.0478271484375
3.0067382812499996
2.91328125
2.65546875
2.2373291015625
2.354150390625
1.80791015625
1.8224121093749999
1.3156494140625
1.0562255859375
0.9144287109375
3.0478271484375
3.050244140625
3.0478271484375
3.0389648437499996
2.5821533203125
0.040283203125
0.04189453125
0.041088867187499996
