0.04189453125
0.5035400390625
0.2513671875
0.2989013671875
0.33757324218749996
0.04189453125
0.037060546874999996
0.037060546874999996
0.043505859375
0.04189453125
2.4177978515625
0.041088867187499996
3.0478271484375
3.0462158203125
3.0429931640624996
3.0486328124999997
3.04541015625
3.0486328124999997
3.0478271484375
3.0478271484375
3.0470214843749996
3.0478271484375
3.0470214843749996
2.892333984375
2.9664550781249996
2.8270751953124997
2.808544921875
3.0470214843749996
3.0486328124999997
3.0462158203125
3.043798828125
2.8335205078124996
3.050244140625
0.1740234375
0.040283203125
0.041088867187499996
0.040283203125
0.041088867187499996
0.040283203125
0.0443115234375
0.042700195312499994
0.037060546874999996
0.042700195312499994
0.040283203125
0.27392578125
0.246533203125
0.269091796875
0.13857421875
0.04189453125
0.040283203125
0.04189453125
0.04189453125
1.4066894531249998
1.3784912109374998
2.3066162109375
3.04541015625
3.0486328124999997
3.0478271484375
3.0462158203125
3.0470214843749996
3.0470214843749996
3.0494384765625
3.0478271484375
3.0462158203125
3.043798828125
3.050244140625
2.9519531249999997
2.89072265625
2.8270751953124997
3.0429931640624996
3.0478271484375
3.0421875
3.0478271484375
3.0470214843749996
0.040283203125
0.5986083984375
0.041088867187499996
0.04189453125
0.0394775390625
0.043505859375
0.0443115234375
0.043505859375
0.040283203125
0.0443115234375
0.040283203125
0.1297119140625
0.04189453125
0.2578125
0.33757324218749996
0.34079589843749997
0.0443115234375
0.04189453125
0.040283203125
0.041088867187499996
0.041088867187499996
0.038671874999999994
3.0470214843749996
3.0486328124999997
3.0486328124999997
3.0462158203125
3.0478271484375
3.0478271484375
3.04541015625
3.0462158203125
3.0421875
3.0470214843749996
3.043798828125
3.0462158203125
3.0147949218749996
2.9922363281249997
2.9011962890625
3.050244140625
3.0462158203125
3.0486328124999997
3.04541015625
3.0486328124999997
3.0470214843749996
0.29970703125
0.0394775390625
0.042700195312499994
0.040283203125
0.041088867187499996
0.043505859375
0.0443115234375
0.041088867187499996
0.043505859375
0.040283203125
0.0829833984375
0.041088867187499996
0.25620117187499997
0.23203125
0.2698974609375
0.04189453125
0.041088867187499996
0.04189453125
0.0378662109375
0.042700195312499994
0.043505859375
0.042700195312499994
3.05185546875
3.0494384765625
3.0470214843749996
3.0462158203125
3.04541015625
3.0446044921874997
3.0470214843749996
3.0462158203125
3.0478271484375
3.0462158203125
3.0365478515624997
3.0462158203125
2.9680664062499997
2.89072265625
3.0462158203125
3.0470214843749996
3.04541015625
3.0470214843749996
3.0421875
0.79921875
1.571044921875
0.0580078125
0.042700195312499994
0.04189453125
0.041088867187499996
0.04189453125
0.041088867187499996
0.0443115234375
0.040283203125
0.0394775390625
0.040283203125
0.038671874999999994
0.042700195312499994
0.16677246093749998
0.23525390624999998
0.041088867187499996
0.045117187499999996
0.04189453125
0.0394775390625
0.04189453125
0.04189453125
0.0394775390625
3.04541015625
3.0494384765625
3.0510498046874996
3.0478271484375
3.0462158203125
3.0486328124999997
3.043798828125
3.0462158203125
3.0462158203125
3.0486328124999997
3.0268798828124996
3.0478271484375
2.9841796874999997
2.9173095703125
2.76826171875
3.04541015625
3.04541015625
3.04541015625
3.04541015625
1.0078857421875
2.4604980468749997
1.0965087890625
0.041088867187499996
0.04189453125
0.041088867187499996
0.04189453125
0.04189453125
0.043505859375
0.038671874999999994
0.041088867187499996
0.043505859375
0.1168212890625
0.043505859375
0.198193359375
0.307763671875
0.32871093749999997
0.04189453125
0.040283203125
0.04189453125
0.0443115234375
0.041088867187499996
0.0394775390625
2.4846679687499997
3.04541015625
3.0470214843749996
3.0494384765625
3.0486328124999997
3.0470214843749996
3.0486328124999997
3.0446044921874997
3.0470214843749996
3.0462158203125
3.050244140625
3.0470214843749996
3.0083496093749997
2.9350341796875
2.840771484375
3.0510498046874996
3.0486328124999997
3.0486328124999997
3.0470214843749996
3.0470214843749996
3.0486328124999997
0.042700195312499994
0.0394775390625
0.041088867187499996
0.0394775390625
0.037060546874999996
0.04189453125
0.042700195312499994
0.041088867187499996
0.0378662109375
0.049951171875
0.0797607421875
0.040283203125
0.19497070312499998
0.26103515625
0.28439941406249997
0.033837890625
0.038671874999999994
0.0394775390625
0.041088867187499996
0.04189453125
0.0378662109375
0.0362548828125
3.0462158203125
3.0478271484375
3.0462158203125
3.04541015625
3.0470214843749996
3.0462158203125
3.0462158203125
3.0462158203125
3.0478271484375
3.0429931640624996
2.7803466796875
3.0043212890624997
2.9060302734374996
2.8576904296874996
3.0486328124999997
3.0462158203125
3.0486328124999997
3.0478271484375
3.0478271484375
3.0462158203125
0.041088867187499996
0.037060546874999996
0.041088867187499996
0.038671874999999994
0.04189453125
0.049951171875
0.040283203125
0.0378662109375
0.041088867187499996
0.041088867187499996
0.0443115234375
0.4004150390625
0.153076171875
0.201416015625
0.265869140625
0.0394775390625
0.0378662109375
0.04189453125
0.041088867187499996
0.041088867187499996
1.5138427734375
0.04189453125
3.0470214843749996
3.0462158203125
3.050244140625
3.0486328124999997
3.0446044921874997
3.0486328124999997
3.0470214843749996
3.0486328124999997
3.0478271484375
3.0446044921874997
3.0446044921874997
2.8431884765624997
2.8955566406249997
2.8786376953125
2.8214355468749996
3.0462158203125
3.0470214843749996
3.0462158203125
3.043798828125
2.737646484375
3.0478271484375
0.29326171875
0.04189453125
0.0378662109375
0.040283203125
0.03544921875
0.04189453125
0.040283203125
0.0346435546875
0.041088867187499996
0.042700195312499994
0.040283203125
0.28842773437499997
0.2731201171875
0.307763671875
0.2989013671875
0.04189453125
0.043505859375
0.04189453125
0.042700195312499994
1.02802734375
1.9859619140625
2.50400390625
3.0486328124999997
3.0470214843749996
3.050244140625
3.0470214843749996
3.0429931640624996
3.050244140625
3.0470214843749996
3.0478271484375
3.0486328124999997
3.0470214843749996
3.0462158203125
2.963232421875
2.8834716796874997
2.8391601562499997
3.04541015625
3.0478271484375
3.0478271484375
3.0478271484375
3.0470214843749996
0.0394775390625
0.36496582031249997
0.04189453125
0.0443115234375
0.041088867187499996
0.040283203125
0.041088867187499996
0.041088867187499996
0.0394775390625
0.0378662109375
0.04189453125
0.13615722656249998
0.041088867187499996
0.2038330078125
0.2795654296875
0.265869140625
0.04189453125
0.041088867187499996
0.0322265625
0.04189453125
0.04189453125
0.040283203125
3.0558837890625
3.0494384765625
3.04541015625
3.0462158203125
3.0486328124999997
3.0446044921874997
3.0470214843749996
3.0478271484375
3.0462158203125
3.0486328124999997
3.0494384765625
3.04541015625
2.9680664062499997
2.9785400390624996
2.8625244140625
3.050244140625
3.053466796875
3.0478271484375
3.0486328124999997
3.0486328124999997
3.050244140625
0.041088867187499996
0.041088867187499996
0.041088867187499996
0.042700195312499994
0.041088867187499996
0.03544921875
0.038671874999999994
0.041088867187499996
0.038671874999999994
0.041088867187499996
0.040283203125
0.04189453125
0.2199462890625
0.2255859375
0.2650634765625
0.043505859375
0.0443115234375
0.041088867187499996
0.04189453125
0.04189453125
0.394775390625
0.8838134765625
3.0462158203125
3.0478271484375
3.0429931640624996
3.04541015625
3.0470214843749996
3.0486328124999997
3.0526611328124997
3.0510498046874996
3.0446044921874997
3.0510498046874996
3.0486328124999997
3.0486328124999997
2.9801513671874997
2.8560791015625
3.0510498046874996
3.0470214843749996
3.043798828125
3.0470214843749996
3.0486328124999997
1.090869140625
2.0343017578125
0.103125
0.040283203125
0.042700195312499994
0.041088867187499996
0.04189453125
0.0443115234375
0.04189453125
0.040283203125
0.0378662109375
0.042700195312499994
0.042700195312499994
0.111181640625
0.22316894531249998
0.29970703125
0.04189453125
0.038671874999999994
0.0394775390625
0.041088867187499996
0.04189453125
1.2141357421874999
0.0394775390625
3.050244140625
3.0470214843749996
3.0429931640624996
3.050244140625
3.0494384765625
3.0429931640624996
3.0494384765625
3.0462158203125
3.0478271484375
3.043798828125
3.0083496093749997
3.04541015625
2.98740234375
2.908447265625
2.8206298828125
3.0462158203125
3.0486328124999997
3.0462158203125
3.0446044921874997
1.6935058593749999
1.522705078125
0.942626953125
0.041088867187499996
0.041088867187499996
0.0443115234375
0.042700195312499994
0.0378662109375
0.042700195312499994
0.045117187499999996
0.037060546874999996
0.04189453125
0.08217773437499999
0.045117187499999996
0.19255371093749998
0.2698974609375
0.30051269531249997
0.041088867187499996
0.0378662109375
0.04189453125
0.038671874999999994
0.040283203125
0.041088867187499996
2.9350341796875
3.0462158203125
3.0486328124999997
3.0486328124999997
3.05185546875
3.0510498046874996
3.04541015625
3.0470214843749996
3.0470214843749996
3.0486328124999997
3.04541015625
3.05185546875
2.9197265624999997
2.882666015625
2.7980712890625
3.0478271484375
3.050244140625
3.0478271484375
3.0462158203125
3.0470214843749996
3.0478271484375
0.04189453125
0.041088867187499996
0.042700195312499994
0.0443115234375
0.043505859375
0.04189453125
0.041088867187499996
0.04189453125
0.0394775390625
0.040283203125
0.04189453125
0.042700195312499994
0.1554931640625
0.20866699218749998
0.26748046875
0.0394775390625
0.04189453125
0.0443115234375
0.042700195312499994
0.042700195312499994
0.040283203125
3.0478271484375
3.0462158203125
3.0494384765625
3.0486328124999997
3.0470214843749996
3.0462158203125
3.0470214843749996
3.0470214843749996
3.0446044921874997
3.0486328124999997
3.0470214843749996
2.65546875
2.9761230468749997
2.8818603515624996
2.8464111328125
3.0446044921874997
3.0494384765625
3.04541015625
3.0494384765625
3.0470214843749996
3.0486328124999997
0.04189453125
0.04189453125
0.0378662109375
0.042700195312499994
0.038671874999999994
0.041088867187499996
0.038671874999999994
0.037060546874999996
0.040283203125
0.042700195312499994
0.08701171875
0.3673828125
0.167578125
0.24331054687499998
0.34079589843749997
0.0394775390625
0.041088867187499996
0.04189453125
0.041088867187499996
0.041088867187499996
1.18916015625
0.04189453125
3.0429931640624996
3.0446044921874997
3.0494384765625
3.0462158203125
3.0470214843749996
3.0446044921874997
3.0446044921874997
3.0405761718749997
3.0486328124999997
3.0486328124999997
3.0486328124999997
2.9350341796875
2.9358398437499997
2.9011962890625
2.7980712890625
3.043798828125
3.0470214843749996
3.0462158203125
3.0542724609375
1.957763671875
3.050244140625
0.041088867187499996
0.038671874999999994
0.045117187499999996
0.040283203125
0.04189453125
0.041088867187499996
0.0443115234375
0.0394775390625
0.041088867187499996
0.04189453125
0.21591796875
0.2827880859375
0.24492187499999998
0.2972900390625
0.3150146484375
0.0362548828125
0.043505859375
0.038671874999999994
0.041088867187499996
0.11923828125
2.489501953125
1.6564453124999998
3.0486328124999997
3.0478271484375
3.0494384765625
3.04541015625
3.043798828125
3.0470214843749996
3.0486328124999997
3.0486328124999997
3.0413818359375
3.0405761718749997
2.9688720703125
3.0067382812499996
2.9479248046874997
2.8955566406249997
3.043798828125
3.0429931640624996
3.0494384765625
3.043798828125
3.04541015625
0.8668945312499999
0.040283203125
0.0443115234375
0.040283203125
0.041088867187499996
0.040283203125
0.040283203125
0.041088867187499996
0.040283203125
0.040283203125
0.040283203125
0.053173828124999996
0.0990966796875
0.1377685546875
0.2698974609375
0.28037109374999997
0.0394775390625
0.0378662109375
0.04189453125
0.0394775390625
0.040283203125
0.045117187499999996
0.2505615234375
3.0470214843749996
3.043798828125
3.0486328124999997
3.0462158203125
3.0494384765625
3.050244140625
3.0462158203125
3.0470214843749996
3.0486328124999997
3.0470214843749996
3.043798828125
2.9849853515625
2.9898193359375
2.8689697265625
3.0478271484375
3.0462158203125
3.0486328124999997
3.04541015625
3.0486328124999997
3.0478271484375
0.043505859375
0.0394775390625
0.04189453125
0.037060546874999996
0.040283203125
0.042700195312499994
0.040283203125
0.041088867187499996
0.040283203125
0.049145507812499996
0.111181640625
0.2199462890625
0.23525390624999998
0.230419921875
0.3053466796875
0.0322265625
0.045117187499999996
0.0394775390625
0.0394775390625
0.041088867187499996
0.9917724609374999
0.6227783203124999
3.0462158203125
3.043798828125
3.0470214843749996
3.0470214843749996
3.04541015625
3.0462158203125
3.0462158203125
3.0526611328124997
3.0446044921874997
3.0486328124999997
3.050244140625
3.04541015625
2.9680664062499997
2.921337890625
3.04541015625
3.0486328124999997
3.0462158203125
3.04541015625
3.0486328124999997
3.0486328124999997
3.0494384765625
0.04189453125
0.0443115234375
0.042700195312499994
0.04189453125
0.043505859375
0.040283203125
0.037060546874999996
0.04189453125
0.038671874999999994
0.046728515624999994
0.042700195312499994
0.1893310546875
0.2731201171875
0.32468261718749997
0.041088867187499996
0.042700195312499994
0.04189453125
0.041088867187499996
0.041088867187499996
1.9746826171874998
0.08217773437499999
3.0470214843749996
3.0470214843749996
3.0446044921874997
3.0462158203125
3.0494384765625
3.0478271484375
3.0470214843749996
3.0470214843749996
3.0470214843749996
3.0470214843749996
3.04541015625
3.050244140625
2.9479248046874997
2.8375488281249996
2.7183105468749997
3.0470214843749996
3.0478271484375
3.0470214843749996
3.0494384765625
2.2518310546875
0.40524902343749997
1.158544921875
0.04189453125
0.041088867187499996
0.041088867187499996
0.042700195312499994
0.038671874999999994
0.038671874999999994
0.04189453125
0.041088867187499996
0.0378662109375
0.0443115234375
0.0443115234375
0.1329345703125
0.23122558593749998
0.28037109374999997
0.038671874999999994
0.0346435546875
0.041088867187499996
0.04189453125
0.04189453125
0.04189453125
2.8915283203124997
3.0462158203125
3.0478271484375
3.050244140625
3.0462158203125
3.04541015625
3.0478271484375
3.0462158203125
3.0494384765625
3.0446044921874997
3.0405761718749997
3.0462158203125
2.9608154296875
2.9430908203125
2.840771484375
3.0486328124999997
3.0486328124999997
3.0446044921874997
3.0486328124999997
3.0494384765625
3.0470214843749996
0.784716796875
0.0394775390625
0.040283203125
0.042700195312499994
0.045117187499999996
0.0394775390625
0.0443115234375
0.04189453125
0.04189453125
0.050756835937499994
0.10957031249999999
0.04189453125
0.275537109375
0.3069580078125
0.35771484374999996
0.041088867187499996
0.0443115234375
0.04189453125
0.040283203125
0.040283203125
0.040283203125
3.0510498046874996
3.0470214843749996
3.0486328124999997
3.0470214843749996
3.0486328124999997
3.0494384765625
3.0470214843749996
3.0462158203125
3.0478271484375
3.04541015625
3.0486328124999997
2.8456054687499996
3.0421875
2.9575927734375
2.8915283203124997
3.0494384765625
3.0486328124999997
3.050244140625
3.0429931640624996
3.0462158203125
2.7263671874999997
0.0378662109375
0.0378662109375
0.042700195312499994
0.0378662109375
0.041088867187499996
0.041088867187499996
0.043505859375
0.0443115234375
0.040283203125
0.040283203125
0.042700195312499994
0.30615234375
0.1119873046875
0.17080078124999998
0.3029296875
0.037060546874999996
0.04189453125
0.033837890625
0.041088867187499996
0.041088867187499996
0.5244873046874999
0.041088867187499996
3.04541015625
3.0478271484375
3.0478271484375
3.0462158203125
3.0486328124999997
3.0486328124999997
3.0470214843749996
3.0494384765625
3.0486328124999997
3.0478271484375
3.0470214843749996
2.89072265625
2.9414794921875
2.8778320312499996
2.78759765625
3.0462158203125
3.0478271484375
3.04541015625
3.050244140625
1.558154296875
3.050244140625
0.44794921875
0.04189453125
0.0378662109375
0.040283203125
0.041088867187499996
0.042700195312499994
0.033032226562499996
0.045117187499999996
0.041088867187499996
0.041088867187499996
0.19497070312499998
0.14018554687499998
0.2135009765625
0.2578125
0.2618408203125
0.04189453125
0.045117187499999996
0.04189453125
0.042700195312499994
0.0459228515625
2.8149902343749997
0.95068359375
3.0462158203125
3.043798828125
3.0478271484375
3.0470214843749996
3.0413818359375
3.0486328124999997
3.0494384765625
3.04541015625
3.0486328124999997
3.0470214843749996
2.995458984375
3.0156005859375
2.9438964843749997
2.8713867187499997
3.0462158203125
3.0486328124999997
3.0486328124999997
3.0462158203125
3.0470214843749996
1.1923828125
0.042700195312499994
0.041088867187499996
0.043505859375
0.0378662109375
0.0378662109375
0.040283203125
0.04189453125
0.0394775390625
0.041088867187499996
0.0378662109375
0.10957031249999999
0.1474365234375
0.2022216796875
0.298095703125
0.3158203125
0.040283203125
0.041088867187499996
0.041088867187499996
0.038671874999999994
0.0443115234375
0.043505859375
0.7927734375
3.0462158203125
3.0429931640624996
3.0470214843749996
3.0486328124999997
3.04541015625
3.0470214843749996
3.0486328124999997
3.04541015625
3.0510498046874996
3.0470214843749996
3.0526611328124997
2.9608154296875
2.98740234375
2.8399658203125
3.0478271484375
3.0462158203125
3.0446044921874997
3.0486328124999997
3.0478271484375
3.0462158203125
0.041088867187499996
0.040283203125
0.043505859375
0.040283203125
0.042700195312499994
0.042700195312499994
0.040283203125
0.041088867187499996
0.040283203125
0.041088867187499996
0.103125
0.21108398437499998
0.24895019531249998
0.246533203125
0.2989013671875
0.040283203125
0.040283203125
0.04189453125
0.041088867187499996
0.041088867187499996
1.42119140625
0.040283203125
3.04541015625
3.0478271484375
3.0462158203125
3.0478271484375
3.0486328124999997
3.050244140625
3.0462158203125
3.0478271484375
3.0478271484375
3.0470214843749996
3.0470214843749996
2.979345703125
3.001904296875
2.9269775390625
3.0462158203125
3.0478271484375
3.0462158203125
3.0470214843749996
3.05185546875
3.0478271484375
3.05185546875
0.153076171875
0.040283203125
0.040283203125
0.03544921875
0.041088867187499996
0.041088867187499996
0.043505859375
0.041088867187499996
0.0394775390625
0.04189453125
0.041088867187499996
0.185302734375
0.1877197265625
0.294873046875
0.04189453125
0.0394775390625
0.042700195312499994
0.040283203125
0.041088867187499996
2.3477050781249997
0.041088867187499996
3.0462158203125
3.0462158203125
3.0494384765625
3.0486328124999997
3.050244140625
3.04541015625
3.0470214843749996
3.0486328124999997
3.0446044921874997
3.0486328124999997
3.0478271484375
2.9430908203125
2.989013671875
2.8899169921874996
2.7908203124999997
3.0486328124999997
3.0486328124999997
3.0486328124999997
3.05185546875
2.6562744140624996
0.0378662109375
1.1351806640625
0.04189453125
0.0378662109375
0.041088867187499996
0.0378662109375
0.041088867187499996
0.043505859375
0.04189453125
0.038671874999999994
0.0443115234375
0.08056640625
0.265869140625
0.1796630859375
0.259423828125
0.3198486328125
0.042700195312499994
0.043505859375
0.0394775390625
0.0443115234375
0.0394775390625
0.040283203125
3.0470214843749996
3.043798828125
3.0421875
3.0470214843749996
3.0470214843749996
3.0486328124999997
3.0494384765625
3.0486328124999997
3.0462158203125
3.043798828125
3.043798828125
3.04541015625
2.953564453125
2.9414794921875
2.8069335937499997
3.0470214843749996
3.04541015625
3.0470214843749996
3.04541015625
3.0462158203125
3.0486328124999997
0.7597412109374999
0.04189453125
0.04189453125
0.04189453125
0.041088867187499996
0.0443115234375
0.0378662109375
0.0362548828125
0.041088867187499996
0.0378662109375
0.08056640625
0.043505859375
0.1812744140625
0.1893310546875
0.27231445312499997
0.0378662109375
0.04189453125
0.040283203125
0.040283203125
0.038671874999999994
0.042700195312499994
3.0478271484375
3.0470214843749996
3.0510498046874996
3.0462158203125
3.0462158203125
3.0429931640624996
3.0494384765625
3.0462158203125
3.050244140625
3.0486328124999997
3.0462158203125
2.7352294921875
3.0470214843749996
2.989013671875
2.91328125
3.0486328124999997
3.0478271484375
3.0478271484375
3.0470214843749996
3.0462158203125
3.0470214843749996
0.042700195312499994
0.040283203125
0.041088867187499996
0.041088867187499996
0.04189453125
0.04189453125
0.0378662109375
0.040283203125
0.042700195312499994
0.0443115234375
0.0443115234375
0.18288574218749998
0.0475341796875
0.18369140625
0.252978515625
0.043505859375
0.040283203125
0.043505859375
0.0394775390625
0.041088867187499996
0.043505859375
0.038671874999999994
3.043798828125
3.0470214843749996
3.0478271484375
3.0462158203125
3.04541015625
3.0470214843749996
3.0486328124999997
3.0405761718749997
3.0486328124999997
3.04541015625
3.0462158203125
2.9430908203125
2.9769287109375
2.91650390625
2.8077392578125
3.0486328124999997
3.0462158203125
3.04541015625
3.0470214843749996
1.1400146484375
3.0462158203125
0.3923583984375
0.041088867187499996
0.0394775390625
0.041088867187499996
0.04189453125
0.041088867187499996
0.04833984375
0.04189453125
0.041088867187499996
0.043505859375
0.2956787109375
0.075732421875
0.2344482421875
0.26748046875
0.3311279296875
0.041088867187499996
0.04189453125
0.04189453125
0.04189453125
0.0394775390625
2.7166992187499996
1.98193359375
3.0470214843749996
3.0494384765625
3.043798828125
3.0478271484375
3.0470214843749996
3.0486328124999997
3.0478271484375
3.0470214843749996
3.0470214843749996
3.04541015625
3.0405761718749997
2.99384765625
2.9076416015624997
2.784375
3.0494384765625
3.0478271484375
3.0470214843749996
3.0494384765625
3.0470214843749996
1.6975341796874999
0.4632568359375
0.041088867187499996
0.043505859375
0.040283203125
0.043505859375
0.038671874999999994
0.040283203125
0.043505859375
0.040283203125
0.040283203125
0.069287109375
0.104736328125
0.17482910156249998
0.22075195312499998
0.2666748046875
0.0378662109375
0.040283203125
0.0394775390625
0.041088867187499996
0.0394775390625
0.042700195312499994
2.1003662109375
3.050244140625
3.0478271484375
3.0486328124999997
3.0478271484375
3.0478271484375
3.0470214843749996
3.0526611328124997
3.0470214843749996
3.0470214843749996
3.0164062499999997
3.0470214843749996
2.9994873046875
3.0268798828124996
2.8657470703124996
3.0446044921874997
3.0470214843749996
3.0478271484375
3.0494384765625
3.0494384765625
3.050244140625
0.0394775390625
0.040283203125
0.040283203125
0.04189453125
0.041088867187499996
0.042700195312499994
0.037060546874999996
0.041088867187499996
0.040283203125
0.043505859375
0.040283203125
0.185302734375
0.130517578125
0.1812744140625
0.21269531249999998
0.045117187499999996
0.0443115234375
0.042700195312499994
0.042700195312499994
0.041088867187499996
0.038671874999999994
0.0394775390625
3.0486328124999997
3.0478271484375
3.0446044921874997
3.0510498046874996
3.0470214843749996
3.0494384765625
3.04541015625
3.050244140625
3.0486328124999997
3.0486328124999997
3.0462158203125
2.905224609375
2.95517578125
2.8955566406249997
3.0494384765625
3.0486328124999997
3.0486328124999997
3.0462158203125
3.0478271484375
3.0478271484375
3.0470214843749996
0.041088867187499996
0.042700195312499994
0.041088867187499996
0.04189453125
0.042700195312499994
0.04189453125
0.04189453125
0.041088867187499996
0.0378662109375
0.0443115234375
0.043505859375
0.25458984375
0.2360595703125
0.30454101562499997
0.04189453125
0.041088867187499996
0.041088867187499996
0.041088867187499996
0.041088867187499996
2.20107421875
0.04189453125
3.0446044921874997
3.0478271484375
3.0429931640624996
3.0470214843749996
3.0470214843749996
3.0470214843749996
3.0478271484375
3.0470214843749996
3.0494384765625
3.0470214843749996
3.0486328124999997
2.956787109375
3.0421875
2.977734375
2.905224609375
3.0478271484375
3.0470214843749996
3.0429931640624996
3.0486328124999997
2.89072265625
0.04189453125
0.992578125
0.04189453125
0.042700195312499994
0.04189453125
0.041088867187499996
0.04189453125
0.040283203125
0.0443115234375
0.040283203125
0.038671874999999994
0.08056640625
0.2537841796875
0.169189453125
0.24089355468749998
0.28359375
0.038671874999999994
0.0362548828125
0.041088867187499996
0.041088867187499996
0.0443115234375
0.038671874999999994
3.0462158203125
3.0470214843749996
3.0462158203125
3.0478271484375
3.0462158203125
3.0478271484375
3.050244140625
3.0486328124999997
3.0470214843749996
3.0470214843749996
3.0462158203125
3.0478271484375
3.005126953125
3.021240234375
2.92294921875
3.0486328124999997
3.0462158203125
3.0478271484375
3.0478271484375
3.04541015625
3.0470214843749996
0.8370849609375
0.041088867187499996
0.040283203125
0.042700195312499994
0.040283203125
0.041088867187499996
0.040283203125
0.043505859375
0.040283203125
0.0362548828125
0.0378662109375
0.04189453125
0.14501953125
0.1732177734375
0.2457275390625
0.041088867187499996
0.040283203125
0.042700195312499994
0.0378662109375
0.041088867187499996
0.042700195312499994
2.7730957031249996
3.0470214843749996
3.0446044921874997
3.0470214843749996
3.0478271484375
3.050244140625
3.0494384765625
3.0478271484375
3.04541015625
3.0470214843749996
3.0486328124999997
2.811767578125
3.04541015625
3.0244628906249997
2.9269775390625
3.0470214843749996
3.04541015625
3.0486328124999997
3.0486328124999997
3.0470214843749996
3.0470214843749996
0.042700195312499994
0.040283203125
0.045117187499999996
0.0378662109375
0.037060546874999996
0.04189453125
0.04189453125
0.045117187499999996
0.043505859375
0.041088867187499996
0.040283203125
0.182080078125
0.0733154296875
0.23525390624999998
0.3101806640625
0.04833984375
0.040283203125
0.0378662109375
0.04189453125
0.04189453125
0.0443115234375
0.04189453125
3.0486328124999997
3.0462158203125
3.0486328124999997
3.0486328124999997
3.0470214843749996
3.050244140625
3.0462158203125
3.050244140625
3.0421875
3.050244140625
3.04541015625
2.953564453125
2.9745117187499996
2.9390625
2.8536621093749996
3.04541015625
3.04541015625
3.0462158203125
3.0470214843749996
0.8918701171875
3.0462158203125
0.37785644531249996
0.0459228515625
0.040283203125
0.040283203125
0.043505859375
0.041088867187499996
0.0394775390625
0.0394775390625
0.0378662109375
0.038671874999999994
0.285205078125
0.053173828124999996
0.19497070312499998
0.21914062499999998
0.285205078125
0.0443115234375
0.0378662109375
0.041088867187499996
0.0394775390625
0.040283203125
2.070556640625
1.4195800781249999
3.0462158203125
3.04541015625
3.0494384765625
3.0446044921874997
3.0462158203125
3.0462158203125
3.0478271484375
3.0470214843749996
3.0494384765625
3.043798828125
3.0027099609374996
3.0333251953125
2.9156982421874997
2.848828125
3.0478271484375
3.043798828125
3.0478271484375
3.0478271484375
3.0486328124999997
2.5394531249999996
1.0505859375
0.045117187499999996
0.041088867187499996
0.038671874999999994
0.04189453125
0.04189453125
0.0459228515625
0.041088867187499996
0.043505859375
0.0394775390625
0.0443115234375
0.0539794921875
0.1264892578125
0.17080078124999998
0.223974609375
0.04189453125
0.04189453125
0.0394775390625
0.042700195312499994
0.043505859375
0.045117187499999996
1.5162597656249999
3.04541015625
3.0478271484375
3.0486328124999997
3.0470214843749996
3.0470214843749996
3.0462158203125
3.0494384765625
3.0486328124999997
3.0478271484375
3.050244140625
2.9261718749999996
3.0325195312499997
2.9906249999999996
2.8802490234375
3.0486328124999997
3.0429931640624996
3.04541015625
3.0470214843749996
3.0470214843749996
3.0462158203125
0.040283203125
0.041088867187499996
0.04189453125
0.038671874999999994
0.042700195312499994
0.042700195312499994
0.041088867187499996
0.0394775390625
0.04189453125
0.040283203125
0.0958740234375
0.3472412109375
0.2537841796875
0.2715087890625
0.294873046875
0.041088867187499996
0.04189453125
0.0394775390625
0.038671874999999994
0.040283203125
0.0378662109375
0.042700195312499994
3.0486328124999997
3.0462158203125
3.0510498046874996
3.0462158203125
3.04541015625
3.0478271484375
3.0470214843749996
3.0462158203125
3.0462158203125
3.0462158203125
3.0486328124999997
2.98740234375
2.9575927734375
2.8899169921874996
3.0462158203125
3.0494384765625
3.0470214843749996
3.0486328124999997
3.0470214843749996
3.0429931640624996
3.0462158203125
0.041088867187499996
0.04189453125
0.0394775390625
0.041088867187499996
0.04189453125
0.041088867187499996
0.038671874999999994
0.040283203125
0.040283203125
0.049145507812499996
0.041088867187499996
0.21108398437499998
0.19658203124999998
0.23203125
0.041088867187499996
0.042700195312499994
0.041088867187499996
0.04189453125
0.042700195312499994
2.07216796875
0.09829101562499999
2.8431884765624997
3.04541015625
3.0486328124999997
3.0486328124999997
3.0470214843749996
3.0566894531249997
3.0494384765625
3.0462158203125
3.0510498046874996
3.0478271484375
3.0486328124999997
2.8802490234375
3.0027099609374996
2.9124755859375
2.8633300781249997
3.0486328124999997
3.0486328124999997
3.04541015625
3.0510498046874996
2.9156982421874997
0.043505859375
1.1883544921875
0.041088867187499996
0.041088867187499996
0.041088867187499996
0.042700195312499994
0.041088867187499996
0.043505859375
0.041088867187499996
0.041088867187499996
0.0443115234375
0.040283203125
0.20302734374999998
0.09426269531249999
0.2038330078125
0.22719726562499998
0.0378662109375
0.04189453125
0.0523681640625
0.041088867187499996
0.0443115234375
0.041088867187499996
3.0446044921874997
3.04541015625
3.04541015625
3.04541015625
3.0486328124999997
3.0494384765625
3.043798828125
3.0494384765625
3.0470214843749996
3.04541015625
3.0470214843749996
3.0510498046874996
2.9688720703125
2.9769287109375
2.91328125
3.0494384765625
3.0478271484375
3.0470214843749996
3.0478271484375
3.0470214843749996
3.0494384765625
0.5744384765625
0.04189453125
0.042700195312499994
0.0378662109375
0.041088867187499996
0.040283203125
0.037060546874999996
0.037060546874999996
0.041088867187499996
0.037060546874999996
0.09426269531249999
0.041088867187499996
0.2102783203125
0.2280029296875
0.34160156249999996
0.041088867187499996
0.041088867187499996
0.043505859375
0.0394775390625
0.040283203125
0.041088867187499996
3.0462158203125
3.043798828125
3.0470214843749996
3.0478271484375
3.0494384765625
3.04541015625
3.0446044921874997
3.0494384765625
3.0470214843749996
3.0486328124999997
3.0486328124999997
2.8166015625
3.0470214843749996
2.9986816406249996
2.9366455078125
3.0494384765625
3.0470214843749996
3.0526611328124997
3.0486328124999997
3.0470214843749996
3.0397705078125
0.5244873046874999
0.043505859375
0.04189453125
0.041088867187499996
0.04189453125
0.038671874999999994
0.040283203125
0.04189453125
0.043505859375
0.040283203125
0.04189453125
0.11923828125
0.0555908203125
0.233642578125
0.2892333984375
0.04189453125
0.04189453125
0.041088867187499996
0.041088867187499996
0.041088867187499996
0.04189453125
0.041088867187499996
3.05185546875
3.0462158203125
3.0478271484375
3.0470214843749996
3.0510498046874996
3.0470214843749996
3.0478271484375
3.0470214843749996
3.0486328124999997
3.0478271484375
2.9745117187499996
3.0172119140625
3.0309082031249996
2.9688720703125
2.9181152343749996
3.0494384765625
3.0429931640624996
3.0510498046874996
3.04541015625
0.889453125
3.04541015625
0.984521484375
0.041088867187499996
0.041088867187499996
0.040283203125
0.0362548828125
0.04189453125
0.040283203125
0.040283203125
0.041088867187499996
0.0515625
0.23928222656249998
0.0394775390625
0.1796630859375
0.2054443359375
0.26828613281249997
0.04189453125
0.04189453125
0.0459228515625
0.043505859375
0.04189453125
1.3768798828125
1.490478515625
3.0478271484375
3.0446044921874997
3.0462158203125
3.0486328124999997
3.0429931640624996
3.0494384765625
3.0486328124999997
3.050244140625
3.0446044921874997
3.0462158203125
3.0429931640624996
3.0462158203125
3.0002929687499997
2.8995849609374997
3.0470214843749996
3.0462158203125
3.0470214843749996
3.0478271484375
3.0462158203125
2.9455078125
0.837890625
0.043505859375
0.041088867187499996
0.043505859375
0.038671874999999994
0.041088867187499996
0.042700195312499994
0.043505859375
0.054785156249999994
0.042700195312499994
0.10231933593749999
0.08217773437499999
0.1812744140625
0.2771484375
0.3198486328125
0.040283203125
0.038671874999999994
0.041088867187499996
0.0394775390625
0.043505859375
0.042700195312499994
2.6079345703124996
3.0462158203125
3.0486328124999997
3.043798828125
3.0494384765625
3.0470214843749996
3.0470214843749996
3.0462158203125
3.0486328124999997
3.0478271484375
3.0486328124999997
3.0059326171875
3.018017578125
2.995458984375
2.9020019531249996
3.0470214843749996
3.0478271484375
3.0462158203125
3.050244140625
3.0510498046874996
3.0478271484375
0.038671874999999994
0.0443115234375
0.0378662109375
0.04189453125
0.045117187499999996
0.041088867187499996
0.040283203125
0.04189453125
0.041088867187499996
0.041088867187499996
0.06606445312499999
0.30051269531249997
0.16274414062499998
0.21269531249999998
0.24895019531249998
0.042700195312499994
0.041088867187499996
0.04189453125
0.040283203125
0.04189453125
2.1438720703125
0.037060546874999996
3.0446044921874997
3.0470214843749996
3.0486328124999997
3.050244140625
3.0486328124999997
3.050244140625
3.050244140625
3.0462158203125
3.0462158203125
3.0478271484375
3.050244140625
2.9422851562499996
2.995458984375
2.9479248046874997
3.04541015625
3.0429931640624996
3.050244140625
3.0486328124999997
3.0478271484375
3.0462158203125
3.0470214843749996
0.21672363281249998
0.040283203125
0.041088867187499996
0.04189453125
0.0394775390625
0.041088867187499996
0.041088867187499996
0.04189453125
0.038671874999999994
0.0443115234375
0.040283203125
0.22719726562499998
0.18691406249999998
0.22075195312499998
0.038671874999999994
0.042700195312499994
0.04189453125
0.0378662109375
0.04189453125
1.31162109375
0.9112060546874999
2.616796875
3.050244140625
3.0470214843749996
3.0478271484375
3.0494384765625
3.0494384765625
3.0478271484375
3.0478271484375
3.0510498046874996
3.0470214843749996
3.0470214843749996
2.91650390625
3.01318359375
2.9527587890625
2.88427734375
3.0446044921874997
3.04541015625
3.0462158203125
3.0462158203125
3.0462158203125
0.042700195312499994
1.0014404296875
0.043505859375
0.043505859375
0.041088867187499996
0.0346435546875
0.041088867187499996
0.040283203125
0.038671874999999994
0.04189453125
0.040283203125
0.1071533203125
0.298095703125
0.18449707031249998
0.281982421875
0.327099609375
0.04189453125
0.038671874999999994
0.0459228515625
0.040283203125
0.040283203125
0.042700195312499994
3.04541015625
3.0470214843749996
3.0486328124999997
3.0421875
3.050244140625
3.0486328124999997
3.0494384765625
3.0470214843749996
3.04541015625
3.0478271484375
3.0446044921874997
3.0470214843749996
2.972900390625
3.0043212890624997
2.9108642578125
3.0486328124999997
3.0478271484375
3.043798828125
3.0470214843749996
3.04541015625
3.0462158203125
0.265869140625
0.041088867187499996
0.042700195312499994
0.041088867187499996
0.040283203125
0.043505859375
0.0378662109375
0.043505859375
0.037060546874999996
0.042700195312499994
0.038671874999999994
0.033032226562499996
0.15146484375
0.1716064453125
0.233642578125
0.04189453125
0.043505859375
0.043505859375
0.041088867187499996
0.041088867187499996
0.0394775390625
2.8174072265624996
3.043798828125
3.0462158203125
3.0494384765625
3.0494384765625
3.05185546875
3.0478271484375
3.0446044921874997
3.043798828125
3.043798828125
3.0486328124999997
2.972900390625
3.0462158203125
2.9720947265624997
2.91328125
3.0470214843749996
3.0470214843749996
3.0470214843749996
3.0486328124999997
3.043798828125
3.0462158203125
0.439892578125
0.043505859375
0.043505859375
0.04189453125
0.043505859375
0.04189453125
0.041088867187499996
0.0362548828125
0.041088867187499996
0.0394775390625
0.0394775390625
0.041088867187499996
0.040283203125
0.1458251953125
0.20705566406249998
0.04189453125
0.040283203125
0.04189453125
0.042700195312499994
0.045117187499999996
0.07734374999999999
0.04189453125
3.0486328124999997
3.0462158203125
3.04541015625
3.0486328124999997
3.050244140625
3.0446044921874997
3.0510498046874996
3.0486328124999997
3.04541015625
3.0470214843749996
2.9583984374999996
2.9833740234375
3.0188232421874996
2.9011962890625
2.7988769531249997
3.04541015625
3.0446044921874997
3.0486328124999997
3.0478271484375
0.897509765625
3.043798828125
0.7154296874999999
0.038671874999999994
0.041088867187499996
0.0378662109375
0.040283203125
0.041088867187499996
0.043505859375
0.041088867187499996
0.04189453125
0.040283203125
0.22075195312499998
0.1313232421875
0.21108398437499998
0.2457275390625
0.24169921875
0.0394775390625
0.0443115234375
0.040283203125
0.037060546874999996
0.0394775390625
0.20302734374999998
2.318701171875
3.0446044921874997
3.0526611328124997
3.0421875
3.0486328124999997
3.0462158203125
3.0446044921874997
3.0470214843749996
3.0446044921874997
3.0470214843749996
3.04541015625
3.04541015625
3.0462158203125
2.9769287109375
2.8625244140625
3.0486328124999997
3.0486328124999997
3.0478271484375
3.04541015625
3.0494384765625
3.050244140625
1.095703125
0.041088867187499996
0.04189453125
0.040283203125
0.040283203125
0.0394775390625
0.041088867187499996
0.04189453125
0.045117187499999996
0.040283203125
0.04189453125
0.038671874999999994
0.11762695312499999
0.23122558593749998
0.27231445312499997
0.0394775390625
0.04189453125
0.0378662109375
0.041088867187499996
0.040283203125
0.043505859375
2.705419921875
3.0486328124999997
3.050244140625
3.0486328124999997
3.0478271484375
3.0478271484375
3.0470214843749996
3.043798828125
3.0470214843749996
3.0470214843749996
3.0462158203125
2.8931396484375
2.979345703125
2.979345703125
2.9100585937499996
3.0470214843749996
3.0446044921874997
3.0462158203125
3.0462158203125
3.0462158203125
3.0462158203125
0.040283203125
0.042700195312499994
0.0443115234375
0.040283203125
0.038671874999999994
0.042700195312499994
0.040283203125
0.041088867187499996
0.040283203125
0.037060546874999996
0.043505859375
0.3391845703125
0.127294921875
0.16032714843749998
0.223974609375
0.045117187499999996
0.0443115234375
0.041088867187499996
0.041088867187499996
0.043505859375
1.8844482421875
0.040283203125
3.050244140625
3.0494384765625
3.0462158203125
3.0462158203125
3.0494384765625
3.0486328124999997
3.0486328124999997
3.0486328124999997
3.0470214843749996
3.0470214843749996
3.0462158203125
3.0010986328125
3.003515625
2.9608154296875
2.9479248046874997
3.04541015625
3.0494384765625
3.0494384765625
3.04541015625
3.0470214843749996
3.04541015625
0.04189453125
0.041088867187499996
0.04189453125
0.038671874999999994
0.0378662109375
0.042700195312499994
0.042700195312499994
0.041088867187499996
0.040283203125
0.0378662109375
0.041088867187499996
0.28681640625
0.252978515625
0.29648437499999997
0.17241210937499998
0.041088867187499996
0.0443115234375
0.0443115234375
0.0362548828125
1.5589599609375
0.97646484375
2.69736328125
3.0486328124999997
3.0470214843749996
3.0510498046874996
3.0462158203125
3.05185546875
3.0470214843749996
3.0462158203125
3.0486328124999997
3.0462158203125
3.0478271484375
2.9712890625
3.043798828125
2.972900390625
2.9181152343749996
3.04541015625
3.0494384765625
3.0470214843749996
3.050244140625
3.0486328124999997
0.038671874999999994
0.5929687499999999
0.04189453125
0.0394775390625
0.0394775390625
0.043505859375
0.037060546874999996
0.038671874999999994
0.042700195312499994
0.041088867187499996
0.041088867187499996
0.042700195312499994
0.2441162109375
0.1152099609375
0.19497070312499998
0.23203125
0.045117187499999996
0.04189453125
0.0443115234375
0.0378662109375
0.0394775390625
0.041088867187499996
1.3180664062499998
3.0542724609375
3.0470214843749996
3.043798828125
3.0470214843749996
3.050244140625
3.0470214843749996
3.0486328124999997
3.0470214843749996
3.0462158203125
3.0486328124999997
3.0462158203125
2.9761230468749997
3.0091552734375
2.9068359375
3.0486328124999997
3.0470214843749996
3.0526611328124997
3.0478271484375
3.0478271484375
3.0470214843749996
0.08540039062499999
0.0378662109375
0.0394775390625
0.040283203125
0.040283203125
0.040283203125
0.041088867187499996
0.04189453125
0.0378662109375
0.043505859375
0.042700195312499994
0.041088867187499996
0.1893310546875
0.18449707031249998
0.2376708984375
0.043505859375
0.04189453125
0.04189453125
0.0362548828125
0.0394775390625
0.038671874999999994
0.040283203125
3.0470214843749996
3.050244140625
3.0478271484375
3.0446044921874997
3.0494384765625
3.0494384765625
3.0478271484375
3.0470214843749996
3.0462158203125
3.04541015625
3.0470214843749996
3.0486328124999997
2.9994873046875
2.96162109375
3.0446044921874997
3.0486328124999997
3.0462158203125
3.04541015625
3.0470214843749996
3.04541015625
1.3188720703124999
0.041088867187499996
0.04189453125
0.041088867187499996
0.0378662109375
0.0394775390625
0.0378662109375
0.041088867187499996
0.043505859375
0.045117187499999996
0.049951171875
0.041088867187499996
0.1071533203125
0.25217285156249997
0.322265625
0.04189453125
0.042700195312499994
0.042700195312499994
0.0443115234375
0.042700195312499994
0.4970947265625
0.038671874999999994
3.0429931640624996
3.043798828125
3.0478271484375
3.0486328124999997
3.0486328124999997
3.0510498046874996
3.0397705078125
3.04541015625
3.0494384765625
3.0470214843749996
2.98095703125
3.0510498046874996
3.0429931640624996
2.9575927734375
2.850439453125
3.04541015625
3.0470214843749996
3.0478271484375
3.04541015625
1.095703125
2.6997802734375
0.9869384765625
0.045117187499999996
0.045117187499999996
0.037060546874999996
0.0394775390625
0.0394775390625
0.037060546874999996
0.040283203125
0.0394775390625
0.046728515624999994
0.13857421875
0.0717041015625
0.1812744140625
0.2376708984375
0.2570068359375
0.0459228515625
0.04189453125
0.037060546874999996
0.041088867187499996
0.040283203125
0.038671874999999994
1.7531249999999998
3.0478271484375
3.0462158203125
3.0470214843749996
3.0486328124999997
3.050244140625
3.0478271484375
3.05185546875
3.0494384765625
3.0486328124999997
3.0446044921874997
3.0486328124999997
3.0284912109374997
3.0059326171875
2.889111328125
3.0470214843749996
3.04541015625
3.0470214843749996
3.0486328124999997
3.0462158203125
3.0486328124999997
1.19560546875
0.037060546874999996
0.0443115234375
0.033837890625
0.0378662109375
0.04189453125
0.041088867187499996
0.041088867187499996
0.041088867187499996
0.040283203125
0.07814941406249999
0.0378662109375
0.18691406249999998
0.23928222656249998
0.31259765624999997
0.041088867187499996
0.04189453125
0.0394775390625
0.038671874999999994
0.041088867187499996
0.0378662109375
2.6176025390624997
3.0478271484375
3.0462158203125
3.0470214843749996
3.0478271484375
3.0478271484375
3.04541015625
3.0486328124999997
3.0478271484375
3.0486328124999997
3.0470214843749996
2.8883056640625
3.02607421875
2.9849853515625
2.9463134765624996
3.0478271484375
3.0486328124999997
3.0486328124999997
3.04541015625
3.0470214843749996
3.0462158203125
0.041088867187499996
0.040283203125
0.0362548828125
0.043505859375
0.040283203125
0.040283203125
0.041088867187499996
0.041088867187499996
0.0394775390625
0.037060546874999996
0.0708984375
0.45358886718749997
0.207861328125
0.26425781249999997
0.3069580078125
0.0394775390625
0.0394775390625
0.037060546874999996
0.041088867187499996
0.04189453125
0.040283203125
0.038671874999999994
3.0470214843749996
3.0494384765625
3.0478271484375
3.0486328124999997
3.0470214843749996
3.0429931640624996
3.0478271484375
3.0470214843749996
3.043798828125
3.0486328124999997
3.0462158203125
2.9028076171875
2.9575927734375
2.9237548828124997
2.892333984375
3.0470214843749996
3.04541015625
3.0486328124999997
3.0486328124999997
3.0478271484375
3.0486328124999997
0.275537109375
0.041088867187499996
0.041088867187499996
0.038671874999999994
0.04189453125
0.0394775390625
0.04189453125
0.041088867187499996
0.041088867187499996
0.043505859375
0.04189453125
0.230419921875
0.16435546874999998
0.17080078124999998
0.17724609375
0.041088867187499996
0.041088867187499996
0.0394775390625
0.04189453125
0.04189453125
1.8981445312499998
1.7265380859375
3.0494384765625
3.0486328124999997
3.0494384765625
3.043798828125
3.0470214843749996
3.0446044921874997
3.0470214843749996
3.0429931640624996
3.0486328124999997
3.0462158203125
2.8206298828125
2.9833740234375
2.91328125
2.818212890625
3.0462158203125
3.0486328124999997
3.0478271484375
3.0462158203125
3.0486328124999997
0.042700195312499994
0.36416015625
0.040283203125
0.040283203125
0.040283203125
0.04189453125
0.037060546874999996
0.042700195312499994
0.041088867187499996
0.043505859375
0.0394775390625
0.0797607421875
0.2892333984375
0.1861083984375
0.278759765625
0.3021240234375
0.041088867187499996
0.043505859375
0.04189453125
0.038671874999999994
0.041088867187499996
0.040283203125
1.6218017578125
3.0486328124999997
3.0462158203125
3.0486328124999997
3.0470214843749996
3.04541015625
3.0478271484375
3.04541015625
3.04541015625
3.0478271484375
3.0486328124999997
3.0470214843749996
3.0010986328125
2.972900390625
2.9318115234374997
3.050244140625
3.0470214843749996
3.0429931640624996
3.0470214843749996
3.0470214843749996
0.4390869140625
0.45842285156249996
0.0378662109375
0.041088867187499996
0.040283203125
0.04189453125
0.040283203125
0.042700195312499994
0.041088867187499996
0.0362548828125
0.0443115234375
0.13212890624999998
0.041088867187499996
0.25217285156249997
0.31904296875
0.346435546875
0.0346435546875
0.041088867187499996
0.040283203125
0.042700195312499994
0.040283203125
0.0394775390625
2.302587890625
3.0486328124999997
3.0478271484375
3.050244140625
3.050244140625
3.0470214843749996
3.0486328124999997
3.0470214843749996
3.050244140625
3.0429931640624996
3.0478271484375
3.04541015625
3.0470214843749996
2.9978759765625
2.8713867187499997
3.0510498046874996
3.0462158203125
3.0478271484375
3.0478271484375
3.0550781249999996
3.0494384765625
1.973876953125
0.22880859374999998
0.043505859375
0.0394775390625
0.042700195312499994
0.038671874999999994
0.041088867187499996
0.040283203125
0.0378662109375
0.040283203125
0.041088867187499996
0.038671874999999994
0.20625
0.2022216796875
0.2505615234375
0.041088867187499996
0.04189453125
0.041088867187499996
0.056396484375
0.04189453125
0.9837158203124999
0.040283203125
3.0510498046874996
3.0462158203125
3.0470214843749996
3.0470214843749996
3.050244140625
3.0470214843749996
3.0486328124999997
3.0470214843749996
3.0470214843749996
3.0470214843749996
2.9656494140625
3.0478271484375
2.9946533203124996
2.92939453125
3.04541015625
3.0478271484375
3.0421875
3.0470214843749996
3.0486328124999997
1.3301513671874998
2.151123046875
0.14421386718749998
0.04189453125
0.041088867187499996
0.041088867187499996
0.0378662109375
0.041088867187499996
0.057202148437499996
0.041088867187499996
0.0443115234375
0.037060546874999996
0.09023437499999999
0.13212890624999998
0.19255371093749998
0.2384765625
0.04189453125
0.041088867187499996
0.041088867187499996
0.037060546874999996
0.037060546874999996
0.0378662109375
0.0394775390625
3.0494384765625
3.0446044921874997
3.0462158203125
3.0470214843749996
3.0462158203125
3.0478271484375
3.0470214843749996
3.0486328124999997
3.0494384765625
3.050244140625
3.0462158203125
3.0494384765625
3.0284912109374997
2.9575927734375
2.8770263671875
3.043798828125
3.0470214843749996
3.0462158203125
3.0486328124999997
3.0470214843749996
2.9930419921875
1.007080078125
0.04189453125
0.04189453125
0.045117187499999996
0.040283203125
0.040283203125
0.040283203125
0.0394775390625
0.040283203125
0.0281982421875
0.1119873046875
0.040283203125
0.2183349609375
0.262646484375
0.29326171875
0.040283203125
0.041088867187499996
0.041088867187499996
0.041088867187499996
0.038671874999999994
0.0394775390625
3.0446044921874997
3.0486328124999997
3.0486328124999997
3.043798828125
3.0470214843749996
3.0462158203125
3.050244140625
3.0462158203125
3.0486328124999997
3.0486328124999997
3.0478271484375
2.8270751953124997
3.0325195312499997
2.953564453125
2.8874999999999997
3.043798828125
3.04541015625
3.0462158203125
3.0510498046874996
3.0486328124999997
3.0486328124999997
0.045117187499999996
0.040283203125
0.038671874999999994
0.045117187499999996
0.0443115234375
0.040283203125
0.041088867187499996
0.0394775390625
0.045117187499999996
0.0443115234375
0.042700195312499994
0.362548828125
0.09023437499999999
0.21269531249999998
0.246533203125
0.04189453125
0.042700195312499994
0.040283203125
0.041088867187499996
0.041088867187499996
0.033032226562499996
0.03544921875
3.050244140625
3.0510498046874996
3.043798828125
3.0470214843749996
3.0478271484375
3.04541015625
3.0470214843749996
3.0470214843749996
3.0478271484375
3.0470214843749996
3.0470214843749996
3.0333251953125
2.9656494140625
2.9156982421874997
2.8528564453125
3.0486328124999997
3.050244140625
3.0486328124999997
3.0486328124999997
2.8423828125
3.0446044921874997
0.25458984375
0.0378662109375
0.04189453125
0.04189453125
0.04189453125
0.043505859375
0.04189453125
0.041088867187499996
0.043505859375
0.042700195312499994
0.0443115234375
0.088623046875
0.19899902343749998
0.2618408203125
0.2771484375
0.040283203125
0.042700195312499994
0.042700195312499994
0.0394775390625
0.29648437499999997
1.91748046875
1.9472900390624999
3.0446044921874997
3.0470214843749996
3.0462158203125
3.0470214843749996
3.0486328124999997
3.0486328124999997
3.0470214843749996
3.04541015625
3.04541015625
3.043798828125
2.8625244140625
2.9745117187499996
2.9342285156249996
2.8874999999999997
3.0462158203125
3.0526611328124997
3.0478271484375
3.0478271484375
3.0478271484375
0.042700195312499994
0.038671874999999994
0.0362548828125
0.040283203125
0.040283203125
0.045117187499999996
0.041088867187499996
0.041088867187499996
0.0378662109375
0.0394775390625
0.041088867187499996
0.1039306640625
0.19899902343749998
0.15629882812499998
0.25217285156249997
0.2634521484375
0.043505859375
0.038671874999999994
0.04189453125
0.040283203125
0.041088867187499996
0.040283203125
2.09150390625
3.0462158203125
3.0470214843749996
3.0478271484375
3.0462158203125
3.0478271484375
3.0470214843749996
3.0470214843749996
3.0486328124999997
3.0486328124999997
3.04541015625
3.0470214843749996
2.96484375
2.956787109375
2.892333984375
3.0494384765625
3.050244140625
3.0486328124999997
3.043798828125
3.0470214843749996
1.0417236328125
0.040283203125
0.037060546874999996
0.041088867187499996
0.037060546874999996
0.0394775390625
0.041088867187499996
0.04189453125
0.038671874999999994
0.038671874999999994
0.038671874999999994
0.042700195312499994
0.040283203125
0.1861083984375
0.2384765625
0.2505615234375
0.038671874999999994
0.041088867187499996
0.0443115234375
0.042700195312499994
0.041088867187499996
0.04189453125
0.9788818359375
3.0470214843749996
3.04541015625
3.0486328124999997
3.0486328124999997
3.0470214843749996
3.04541015625
3.0494384765625
3.0470214843749996
3.0470214843749996
3.0478271484375
3.053466796875
3.043798828125
2.9608154296875
2.8689697265625
3.0446044921874997
3.0462158203125
3.0462158203125
3.0486328124999997
3.0429931640624996
3.0478271484375
2.3114501953124997
0.111181640625
0.04189453125
0.042700195312499994
0.04189453125
0.0394775390625
0.041088867187499996
0.0394775390625
0.040283203125
0.040283203125
0.041088867187499996
0.041088867187499996
0.1297119140625
0.23122558593749998
0.2908447265625
0.04189453125
0.041088867187499996
0.0443115234375
0.041088867187499996
0.04189453125
1.4066894531249998
0.040283203125
3.0470214843749996
3.04541015625
3.0486328124999997
3.0486328124999997
3.0470214843749996
3.0421875
3.0478271484375
3.0470214843749996
3.0470214843749996
3.0486328124999997
3.0494384765625
3.0228515624999996
3.0478271484375
2.995458984375
2.9092529296875
3.043798828125
3.0462158203125
3.0494384765625
3.04541015625
1.8522216796875
1.3712402343749999
0.9901611328125
0.033837890625
0.04189453125
0.0394775390625
0.04189453125
0.04189453125
0.0394775390625
0.042700195312499994
0.04189453125
0.042700195312499994
0.072509765625
0.18691406249999998
0.201416015625
0.2634521484375
0.314208984375
0.041088867187499996
0.041088867187499996
0.041088867187499996
0.0378662109375
0.040283203125
0.045117187499999996
2.6441894531249996
3.0486328124999997
3.0470214843749996
3.0486328124999997
3.0462158203125
3.0462158203125
3.0486328124999997
3.05185546875
3.050244140625
3.050244140625
3.04541015625
3.04541015625
3.011572265625
2.9906249999999996
2.9181152343749996
3.0494384765625
3.0478271484375
3.0429931640624996
3.0429931640624996
3.050244140625
3.0486328124999997
1.1939941406249999
0.042700195312499994
0.04189453125
0.041088867187499996
0.041088867187499996
0.0475341796875
0.040283203125
0.041088867187499996
0.041088867187499996
0.0443115234375
0.0652587890625
0.040283203125
0.182080078125
0.2022216796875
0.249755859375
0.037060546874999996
0.04189453125
0.043505859375
0.038671874999999994
0.042700195312499994
0.041088867187499996
3.04541015625
3.0478271484375
3.04541015625
3.0486328124999997
3.0446044921874997
3.0446044921874997
3.0478271484375
3.0470214843749996
3.0470214843749996
3.0470214843749996
3.0470214843749996
2.7142822265624997
3.0446044921874997
2.9704833984374996
2.898779296875
3.0478271484375
3.0478271484375
3.0470214843749996
3.0462158203125
3.0421875
3.0462158203125
0.0394775390625
0.0394775390625
0.043505859375
0.0459228515625
0.04189453125
0.038671874999999994
0.041088867187499996
0.0394775390625
0.041088867187499996
0.04189453125
0.045117187499999996
0.38994140624999996
0.0966796875
0.22075195312499998
0.31259765624999997
0.041088867187499996
0.0378662109375
0.041088867187499996
0.0475341796875
0.04189453125
0.041088867187499996
0.0443115234375
3.0486328124999997
3.043798828125
3.04541015625
3.0470214843749996
3.0462158203125
3.0510498046874996
3.0526611328124997
3.04541015625
3.0478271484375
3.0486328124999997
3.0494384765625
2.947119140625
2.98095703125
2.9156982421874997
2.8391601562499997
3.043798828125
3.050244140625
3.04541015625
3.0486328124999997
2.360595703125
3.0478271484375
0.04189453125
0.0443115234375
0.041088867187499996
0.040283203125
0.04189453125
0.040283203125
0.045117187499999996
0.040283203125
0.0378662109375
0.0394775390625
0.072509765625
0.3198486328125
0.2054443359375
0.23525390624999998
0.2747314453125
0.040283203125
0.04189453125
0.038671874999999994
0.0394775390625
0.041088867187499996
2.3630126953125
1.5041748046874999
3.0470214843749996
3.0470214843749996
3.0421875
3.050244140625
3.04541015625
3.0470214843749996
3.050244140625
3.0470214843749996
3.0494384765625
3.0462158203125
2.9543701171874996
2.9930419921875
2.9261718749999996
2.8206298828125
3.0478271484375
3.0478271484375
3.0486328124999997
3.0470214843749996
3.0470214843749996
0.52529296875
0.7226806640625
0.04189453125
0.040283203125
0.042700195312499994
0.04189453125
0.040283203125
0.040283203125
0.04189453125
0.043505859375
0.041088867187499996
0.078955078125
0.20625
0.1611328125
0.2344482421875
0.27392578125
0.0443115234375
0.04189453125
0.0443115234375
0.04189453125
0.04189453125
0.037060546874999996
1.3954101562499999
3.0462158203125
3.0462158203125
3.0462158203125
3.0470214843749996
3.0486328124999997
3.0470214843749996
3.0446044921874997
3.0446044921874997
3.04541015625
3.0446044921874997
3.04541015625
2.9688720703125
3.005126953125
2.9342285156249996
3.0429931640624996
3.0486328124999997
3.0462158203125
3.0462158203125
3.04541015625
3.0494384765625
0.0394775390625
0.041088867187499996
0.040283203125
0.041088867187499996
0.041088867187499996
0.04189453125
0.0394775390625
0.040283203125
0.033032226562499996
0.043505859375
0.1474365234375
0.0749267578125
0.2537841796875
0.1732177734375
0.27392578125
0.042700195312499994
0.043505859375
0.038671874999999994
0.04189453125
0.042700195312499994
0.8338623046875
1.7410400390624998
3.04541015625
3.0486328124999997
3.0486328124999997
3.0470214843749996
3.0462158203125
3.0462158203125
3.0494384765625
3.0462158203125
3.0486328124999997
3.0470214843749996
3.0470214843749996
3.0478271484375
2.9825683593749996
2.8818603515624996
3.0470214843749996
3.0470214843749996
3.0470214843749996
3.0486328124999997
3.0478271484375
3.0470214843749996
3.0462158203125
0.043505859375
0.040283203125
0.040283203125
0.040283203125
0.042700195312499994
0.04189453125
0.041088867187499996
0.0378662109375
0.043505859375
0.040283203125
0.041088867187499996
0.1119873046875
0.2038330078125
0.24895019531249998
0.0378662109375
0.0394775390625
0.038671874999999994
0.04189453125
0.04833984375
1.8385253906249999
0.0459228515625
3.0470214843749996
3.0470214843749996
3.0478271484375
3.0421875
3.0510498046874996
3.0486328124999997
3.0478271484375
3.0462158203125
3.0510498046874996
3.050244140625
3.0413818359375
2.9737060546875
2.9986816406249996
2.892333984375
2.8061279296875
3.0478271484375
3.0486328124999997
3.050244140625
3.0470214843749996
1.996435546875
0.8185546874999999
1.148876953125
0.038671874999999994
0.03544921875
0.043505859375
0.041088867187499996
0.0443115234375
0.040283203125
0.040283203125
0.040283203125
0.040283203125
0.06606445312499999
0.19899902343749998
0.14824218749999998
0.21269531249999998
0.259423828125
0.0394775390625
0.045117187499999996
0.04189453125
0.04189453125
0.0394775390625
0.04189453125
2.8335205078124996
3.053466796875
3.0486328124999997
3.04541015625
3.0526611328124997
3.04541015625
3.0429931640624996
3.0494384765625
3.0478271484375
3.043798828125
3.0526611328124997
3.04541015625
3.01962890625
3.0059326171875
2.89072265625
3.0470214843749996
3.0470214843749996
3.043798828125
3.050244140625
3.0470214843749996
3.0486328124999997
1.019970703125
0.041088867187499996
0.038671874999999994
0.040283203125
0.041088867187499996
0.041088867187499996
0.038671874999999994
0.043505859375
0.040283203125
0.041088867187499996
0.0539794921875
0.0346435546875
0.19497070312499998
0.2425048828125
0.2537841796875
0.041088867187499996
0.0394775390625
0.0443115234375
0.040283203125
0.04189453125
0.043505859375
3.0486328124999997
3.0470214843749996
3.0566894531249997
3.050244140625
3.043798828125
3.0494384765625
3.0478271484375
3.0429931640624996
3.0486328124999997
3.0486328124999997
3.04541015625
2.7432861328125
3.0446044921874997
2.9922363281249997
2.9124755859375
3.0470214843749996
3.0478271484375
3.0470214843749996
3.0462158203125
3.0494384765625
3.0470214843749996
0.043505859375
0.041088867187499996
0.04189453125
0.041088867187499996
0.0443115234375
0.04189453125
0.040283203125
0.041088867187499996
0.0443115234375
0.04189453125
0.0620361328125
0.4326416015625
0.143408203125
0.230419921875
0.2811767578125
0.040283203125
0.041088867187499996
0.0378662109375
0.041088867187499996
0.04189453125
0.0346435546875
0.043505859375
3.0470214843749996
3.0462158203125
3.043798828125
3.0478271484375
3.0462158203125
3.0478271484375
3.0470214843749996
3.0486328124999997
3.0470214843749996
3.050244140625
3.05185546875
2.9543701171874996
2.9680664062499997
2.9390625
2.8689697265625
3.0470214843749996
3.0470214843749996
3.0494384765625
3.0486328124999997
1.9779052734375
3.0526611328124997
0.45439453124999996
0.041088867187499996
0.040283203125
0.041088867187499996
0.0362548828125
0.04189453125
0.0394775390625
0.042700195312499994
0.04189453125
0.04189453125
0.0765380859375
0.17482910156249998
0.15629882812499998
0.1973876953125
0.23928222656249998
0.043505859375
0.043505859375
0.040283203125
0.041088867187499996
0.037060546874999996
1.8957275390625
1.052197265625
3.0470214843749996
3.0462158203125
3.0470214843749996
3.0462158203125
3.0478271484375
3.0510498046874996
3.0470214843749996
3.04541015625
3.0470214843749996
3.053466796875
3.003515625
3.0429931640624996
2.9656494140625
2.9769287109375
3.0470214843749996
3.0486328124999997
3.0478271484375
3.0486328124999997
3.0462158203125
0.6050537109374999
0.2296142578125
0.041088867187499996
0.0378662109375
0.041088867187499996
0.040283203125
0.042700195312499994
0.041088867187499996
0.041088867187499996
0.0378662109375
0.0394775390625
0.1345458984375
0.28681640625
0.2215576171875
0.2972900390625
0.3182373046875
0.0378662109375
0.040283203125
0.04189453125
0.038671874999999994
0.041088867187499996
0.038671874999999994
1.4767822265625
3.0429931640624996
3.0494384765625
3.0470214843749996
3.04541015625
3.0462158203125
3.0462158203125
3.0478271484375
3.0462158203125
3.0470214843749996
3.050244140625
3.0470214843749996
2.9962646484374997
2.9994873046875
2.889111328125
3.04541015625
3.0470214843749996
3.0494384765625
3.0510498046874996
3.0494384765625
3.0478271484375
0.041088867187499996
0.041088867187499996
0.040283203125
0.040283203125
0.037060546874999996
0.049145507812499996
0.04189453125
0.0378662109375
0.042700195312499994
0.0394775390625
0.111181640625
0.116015625
0.2199462890625
0.2255859375
0.29326171875
0.04189453125
0.0394775390625
0.0394775390625
0.0378662109375
0.040283203125
0.9498779296875
0.037060546874999996
3.0462158203125
3.0486328124999997
3.0429931640624996
3.0470214843749996
3.04541015625
3.0462158203125
3.0478271484375
3.04541015625
3.0486328124999997
3.050244140625
3.0478271484375
3.0405761718749997
2.9640380859374997
2.8874999999999997
3.0470214843749996
3.0486328124999997
3.050244140625
3.043798828125
3.050244140625
3.0470214843749996
3.0510498046874996
0.182080078125
0.040283203125
0.040283203125
0.041088867187499996
0.041088867187499996
0.041088867187499996
0.040283203125
0.041088867187499996
0.041088867187499996
0.041088867187499996
0.0378662109375
0.103125
0.193359375
0.2892333984375
0.042700195312499994
0.0394775390625
0.04189453125
0.0443115234375
0.041088867187499996
1.9223144531249998
0.0443115234375
3.050244140625
3.0486328124999997
3.0470214843749996
3.0470214843749996
3.0486328124999997
3.0478271484375
3.04541015625
3.0478271484375
3.0486328124999997
3.04541015625
3.043798828125
3.0486328124999997
3.0486328124999997
2.9543701171874996
2.892333984375
3.04541015625
3.0462158203125
3.0462158203125
3.0494384765625
2.151123046875
0.6678955078125
1.018359375
0.042700195312499994
0.0459228515625
0.041088867187499996
0.0443115234375
0.041088867187499996
0.0394775390625
0.042700195312499994
0.040283203125
0.041088867187499996
0.1168212890625
0.041088867187499996
0.21591796875
0.269091796875
0.26103515625
0.041088867187499996
0.041088867187499996
0.04189453125
0.040283203125
0.041088867187499996
0.040283203125
2.8858886718749996
3.04541015625
3.0478271484375
3.0470214843749996
3.0470214843749996
3.0478271484375
3.0462158203125
3.0470214843749996
3.0470214843749996
3.0470214843749996
3.0462158203125
3.0470214843749996
3.0478271484375
3.0002929687499997
2.9302001953124996
3.0486328124999997
3.0462158203125
3.0446044921874997
3.04541015625
3.043798828125
3.0470214843749996
1.2455566406249998
0.04189453125
0.041088867187499996
0.042700195312499994
0.042700195312499994
0.04189453125
0.043505859375
0.0378662109375
0.040283203125
0.042700195312499994
0.078955078125
0.033837890625
0.20061035156249998
0.275537109375
0.29326171875
0.04189453125
0.04189453125
0.04189453125
0.04189453125
0.040283203125
0.04189453125
3.0470214843749996
3.0429931640624996
3.0486328124999997
3.0478271484375
3.0462158203125
3.0470214843749996
3.04541015625
3.0470214843749996
3.0478271484375
3.04541015625
3.0470214843749996
2.6933349609375
3.037353515625
2.9712890625
2.8681640625
3.0486328124999997
3.0486328124999997
3.0462158203125
3.0470214843749996
3.0462158203125
3.04541015625
0.042700195312499994
0.040283203125
0.041088867187499996
0.040283203125
0.0394775390625
0.04189453125
0.038671874999999994
0.0362548828125
0.0378662109375
0.041088867187499996
0.041088867187499996
0.30856933593749997
0.08056640625
0.1796630859375
0.2827880859375
0.0394775390625
0.041088867187499996
0.0394775390625
0.033837890625
0.040283203125
0.041088867187499996
0.0394775390625
3.0470214843749996
3.04541015625
3.0494384765625
3.0494384765625
3.0470214843749996
3.0462158203125
3.0470214843749996
3.0478271484375
3.050244140625
3.0462158203125
3.05185546875
2.876220703125
2.9712890625
2.9350341796875
2.85849609375
3.043798828125
3.0462158203125
3.0478271484375
3.0446044921874997
1.9916015624999999
3.04541015625
0.10151367187499999
0.041088867187499996
0.04189453125
0.0394775390625
0.04189453125
0.041088867187499996
0.04189453125
0.0443115234375
0.040283203125
0.041088867187499996
0.21591796875
0.2940673828125
0.24331054687499998
0.28359375
0.32548828124999996
0.043505859375
0.0394775390625
0.0394775390625
0.04189453125
0.040283203125
2.270361328125
1.4759765624999999
3.04541015625
3.0478271484375
3.0446044921874997
3.0470214843749996
3.04541015625
3.050244140625
3.0462158203125
3.043798828125
3.0470214843749996
3.0462158203125
2.9269775390625
3.01318359375
2.9398681640624997
2.9036132812499997
3.0486328124999997
3.0486328124999997
3.04541015625
3.0494384765625
3.0478271484375
0.5873291015625
0.459228515625
0.0394775390625
0.0443115234375
0.04189453125
0.043505859375
0.041088867187499996
0.04189453125
0.041088867187499996
0.040283203125
0.04189453125
0.1007080078125
0.259423828125
0.214306640625
0.3182373046875
0.32871093749999997
0.041088867187499996
0.041088867187499996
0.04189453125
0.03544921875
0.038671874999999994
0.041088867187499996
1.213330078125
3.0470214843749996
3.0462158203125
3.05185546875
3.0478271484375
3.05185546875
3.0486328124999997
3.0486328124999997
3.04541015625
3.0462158203125
3.0478271484375
3.0478271484375
2.979345703125
2.9914306640625
2.8810546875
3.0446044921874997
3.0470214843749996
3.0478271484375
3.0486328124999997
3.0486328124999997
3.0478271484375
0.040283203125
0.037060546874999996
0.040283203125
0.040283203125
0.04189453125
0.038671874999999994
0.040283203125
0.040283203125
0.040283203125
0.040283203125
0.04189453125
0.08217773437499999
0.223974609375
0.217529296875
0.291650390625
0.040283203125
0.038671874999999994
0.0378662109375
0.042700195312499994
0.041088867187499996
1.0127197265624999
0.041088867187499996
3.0429931640624996
3.0478271484375
3.0494384765625
3.050244140625
3.0446044921874997
3.0478271484375
3.0510498046874996
3.0478271484375
3.0510498046874996
3.0470214843749996
3.0510498046874996
3.0470214843749996
2.9906249999999996
2.8915283203124997
3.0470214843749996
3.0478271484375
3.0462158203125
3.0478271484375
3.0470214843749996
1.3011474609375
2.9124755859375
0.040283203125
0.041088867187499996
0.040283203125
0.041088867187499996
0.040283203125
0.038671874999999994
0.041088867187499996
0.041088867187499996
0.0394775390625
0.069287109375
0.040283203125
0.1409912109375
0.2634521484375
0.29245605468749997
0.04189453125
0.040283203125
0.0443115234375
0.04189453125
0.0475341796875
1.893310546875
0.04189453125
3.0494384765625
3.0462158203125
3.050244140625
3.0470214843749996
3.0470214843749996
3.0478271484375
3.0486328124999997
3.0486328124999997
3.0486328124999997
3.0462158203125
3.0470214843749996
3.04541015625
3.0486328124999997
2.989013671875
2.8770263671875
3.050244140625
3.0486328124999997
3.04541015625
3.0462158203125
2.0625
1.0256103515625
1.168212890625
0.043505859375
0.041088867187499996
0.045117187499999996
0.040283203125
0.041088867187499996
0.0394775390625
0.040283203125
0.043505859375
0.043505859375
0.075732421875
0.0394775390625
0.2022216796875
0.27392578125
0.31259765624999997
0.037060546874999996
0.0394775390625
0.041088867187499996
0.041088867187499996
0.041088867187499996
0.041088867187499996
2.553955078125
3.04541015625
3.0462158203125
3.0470214843749996
3.050244140625
3.0478271484375
3.04541015625
3.0462158203125
3.0478271484375
3.043798828125
3.0494384765625
3.0478271484375
2.9737060546875
2.9414794921875
2.824658203125
3.0486328124999997
3.0478271484375
3.0462158203125
3.0470214843749996
3.04541015625
3.0494384765625
1.0763671875
0.041088867187499996
0.040283203125
0.041088867187499996
0.040283203125
0.040283203125
0.041088867187499996
0.041088867187499996
0.040283203125
0.042700195312499994
0.0394775390625
0.038671874999999994
0.1619384765625
0.2054443359375
0.21511230468749998
0.038671874999999994
0.0394775390625
0.037060546874999996
0.038671874999999994
0.040283203125
0.043505859375
3.04541015625
3.0486328124999997
3.0478271484375
3.0510498046874996
3.0486328124999997
3.05185546875
3.0470214843749996
3.0486328124999997
3.0478271484375
3.0470214843749996
3.0486328124999997
2.7610107421874996
3.0470214843749996
2.9841796874999997
2.9140869140624996
3.04541015625
3.0494384765625
3.0470214843749996
3.0470214843749996
3.0486328124999997
3.0421875
0.0459228515625
0.040283203125
0.0394775390625
0.040283203125
0.042700195312499994
0.040283203125
0.050756835937499994
0.04189453125
0.0394775390625
0.040283203125
0.049951171875
0.36577148437499996
0.1635498046875
0.29970703125
0.3440185546875
0.0378662109375
0.037060546874999996
0.041088867187499996
0.040283203125
0.040283203125
0.7919677734374999
0.041088867187499996
3.0486328124999997
3.0494384765625
3.0462158203125
3.0470214843749996
3.04541015625
3.0470214843749996
3.0462158203125
3.0478271484375
3.0486328124999997
3.050244140625
3.0486328124999997
2.89072265625
2.9914306640625
2.9318115234374997
2.8423828125
3.0478271484375
3.0486328124999997
3.0478271484375
3.0462158203125
1.9005615234375
3.0486328124999997
0.042700195312499994
0.040283203125
0.04189453125
0.04189453125
0.0443115234375
0.041088867187499996
0.041088867187499996
0.043505859375
0.0394775390625
0.043505859375
0.185302734375
0.18369140625
0.193359375
0.23122558593749998
0.262646484375
0.04189453125
0.040283203125
0.0378662109375
0.0459228515625
0.040283203125
2.0560546875
0.6904541015625
3.050244140625
3.0478271484375
3.0486328124999997
3.0421875
3.0462158203125
3.0470214843749996
3.0470214843749996
3.0494384765625
3.0478271484375
3.0446044921874997
2.995458984375
3.0389648437499996
3.0099609375
3.003515625
3.04541015625
3.0470214843749996
3.0478271484375
3.05185546875
3.0478271484375
0.9313476562499999
0.042700195312499994
0.04189453125
0.04189453125
0.040283203125
0.03544921875
0.043505859375
0.038671874999999994
0.04189453125
0.042700195312499994
0.040283203125
0.0717041015625
0.11762695312499999
0.1329345703125
0.22719726562499998
0.27231445312499997
0.040283203125
0.0394775390625
0.0394775390625
0.04189453125
0.043505859375
0.040283203125
0.0378662109375
3.0462158203125
3.04541015625
3.0470214843749996
3.0550781249999996
3.0470214843749996
3.0446044921874997
3.0470214843749996
3.0494384765625
3.04541015625
3.053466796875
3.0478271484375
3.0228515624999996
3.0139892578125
2.9253662109375
3.0405761718749997
3.0486328124999997
3.0462158203125
3.0462158203125
3.0462158203125
3.043798828125
0.042700195312499994
0.0394775390625
0.04189453125
0.040283203125
0.046728515624999994
0.0394775390625
0.041088867187499996
0.041088867187499996
