0.0443115234375
0.041088867187499996
0.049145507812499996
0.1377685546875
0.04189453125
0.2118896484375
0.29245605468749997
0.32468261718749997
0.04189453125
0.040283203125
0.040283203125
0.040283203125
0.037060546874999996
0.042700195312499994
3.043798828125
3.0478271484375
3.0462158203125
3.0478271484375
3.0478271484375
3.0526611328124997
3.0470214843749996
3.04541015625
3.0470214843749996
3.04541015625
3.0478271484375
2.914892578125
3.0462158203125
3.0446044921874997
2.9785400390624996
3.0446044921874997
3.0470214843749996
3.0470214843749996
3.0470214843749996
3.04541015625
3.04541015625
0.040283203125
0.038671874999999994
0.0394775390625
0.040283203125
0.040283203125
0.040283203125
0.040283203125
0.037060546874999996
0.04189453125
0.0394775390625
0.10634765624999999
0.41733398437499997
0.23686523437499998
0.265869140625
0.327099609375
0.0378662109375
0.041088867187499996
0.045117187499999996
0.040283203125
0.0378662109375
0.0394775390625
0.041088867187499996
3.0478271484375
3.0429931640624996
3.0494384765625
3.043798828125
3.0470214843749996
3.04541015625
3.0470214843749996
3.04541015625
3.0470214843749996
3.0470214843749996
2.892333984375
3.0486328124999997
3.0470214843749996
3.0164062499999997
3.04541015625
3.04541015625
3.0446044921874997
3.0446044921874997
3.050244140625
2.5031982421874996
3.043798828125
0.04189453125
0.0378662109375
0.04189453125
0.038671874999999994
0.040283203125
0.04189453125
0.0394775390625
0.043505859375
0.038671874999999994
0.0475341796875
0.1313232421875
0.07734374999999999
0.2135009765625
0.2811767578125
0.038671874999999994
0.040283203125
0.0394775390625
0.04189453125
0.041088867187499996
0.040283203125
1.8570556640625
3.0478271484375
3.0478271484375
3.0470214843749996
3.0494384765625
3.0470214843749996
3.0486328124999997
3.0478271484375
3.0446044921874997
3.050244140625
3.0478271484375
3.0357421875
2.9583984374999996
3.0301025390625
2.9801513671874997
2.905224609375
3.0397705078125
3.04541015625
3.04541015625
3.0478271484375
3.0446044921874997
3.0478271484375
0.80888671875
0.040283203125
0.040283203125
0.0362548828125
0.0459228515625
0.041088867187499996
0.042700195312499994
0.041088867187499996
0.041088867187499996
0.0555908203125
0.33837890625
0.19658203124999998
0.16677246093749998
0.2505615234375
0.2876220703125
0.040283203125
0.040283203125
0.041088867187499996
0.041088867187499996
0.041088867187499996
1.2914794921875
1.3285400390625
3.0446044921874997
3.04541015625
3.0510498046874996
3.0470214843749996
3.0486328124999997
3.05185546875
3.04541015625
3.0510498046874996
3.0486328124999997
3.0486328124999997
3.0478271484375
3.04541015625
3.018017578125
2.9463134765624996
3.0470214843749996
3.04541015625
3.0462158203125
3.0470214843749996
3.0510498046874996
1.91748046875
0.14501953125
0.0394775390625
0.041088867187499996
0.040283203125
0.042700195312499994
0.043505859375
0.042700195312499994
0.0394775390625
0.037060546874999996
0.042700195312499994
0.11923828125
0.22478027343749998
0.2296142578125
0.28359375
0.32065429687499997
0.0378662109375
0.041088867187499996
0.040283203125
0.04189453125
0.040283203125
0.043505859375
0.04189453125
3.05185546875
3.0470214843749996
3.05185546875
3.04541015625
3.0470214843749996
3.04541015625
3.04541015625
3.0486328124999997
3.0470214843749996
3.04541015625
3.0494384765625
3.04541015625
3.01962890625
2.9753173828125
3.0446044921874997
3.0470214843749996
3.0486328124999997
3.0429931640624996
3.0470214843749996
3.0470214843749996
3.0470214843749996
0.030615234374999998
0.046728515624999994
0.042700195312499994
0.040283203125
0.0394775390625
0.041088867187499996
0.041088867187499996
0.040283203125
0.049145507812499996
0.038671874999999994
0.040283203125
0.2183349609375
0.2360595703125
0.27231445312499997
0.041088867187499996
0.045117187499999996
0.04189453125
0.040283203125
0.040283203125
0.136962890625
0.040283203125
3.0462158203125
3.0486328124999997
3.0470214843749996
3.0486328124999997
3.0470214843749996
3.0470214843749996
3.0462158203125
3.0494384765625
3.0478271484375
3.0413818359375
3.0486328124999997
3.0421875
3.0478271484375
2.985791015625
3.0446044921874997
3.0486328124999997
3.0462158203125
3.0478271484375
3.0470214843749996
2.4774169921875
3.0421875
0.2199462890625
0.04189453125
0.038671874999999994
0.043505859375
0.0394775390625
0.042700195312499994
0.0378662109375
0.037060546874999996
0.0378662109375
0.040283203125
0.038671874999999994
0.2513671875
0.2038330078125
0.32065429687499997
0.15871582031249998
0.0314208984375
0.041088867187499996
0.041088867187499996
0.038671874999999994
0.0394775390625
0.041088867187499996
2.209130859375
3.0486328124999997
3.04541015625
3.0446044921874997
3.0470214843749996
3.0478271484375
3.043798828125
3.0494384765625
3.0470214843749996
3.0478271484375
3.0478271484375
3.0478271484375
3.0446044921874997
3.003515625
2.9592041015625
3.0462158203125
3.043798828125
3.0470214843749996
3.04541015625
3.050244140625
0.0394775390625
1.593603515625
0.038671874999999994
0.042700195312499994
0.037060546874999996
0.040283203125
0.0394775390625
0.041088867187499996
0.0394775390625
0.0394775390625
0.038671874999999994
0.09023437499999999
0.04189453125
0.249755859375
0.32951660156249996
0.372216796875
0.041088867187499996
0.041088867187499996
0.037060546874999996
0.040283203125
0.04833984375
0.041088867187499996
2.68125
3.0478271484375
3.0470214843749996
3.0462158203125
3.0462158203125
3.0429931640624996
3.0486328124999997
3.0478271484375
3.0446044921874997
3.0462158203125
3.0470214843749996
2.7948486328124997
3.029296875
3.043798828125
2.9825683593749996
3.043798828125
3.0478271484375
3.043798828125
3.043798828125
3.04541015625
3.0462158203125
0.28842773437499997
0.0394775390625
0.040283203125
0.040283203125
0.0394775390625
0.040283203125
0.046728515624999994
0.04833984375
0.041088867187499996
0.04189453125
0.042700195312499994
0.1699951171875
0.159521484375
0.1796630859375
0.22719726562499998
0.041088867187499996
0.04189453125
0.04189453125
0.043505859375
0.0394775390625
0.040283203125
0.040283203125
3.04541015625
3.0470214843749996
3.0470214843749996
3.0462158203125
3.0470214843749996
3.043798828125
3.0462158203125
3.0526611328124997
3.0478271484375
3.0462158203125
3.0478271484375
3.0462158203125
3.0462158203125
3.0139892578125
3.0462158203125
3.04541015625
3.04541015625
3.0462158203125
3.0462158203125
1.09248046875
3.0462158203125
0.046728515624999994
0.042700195312499994
0.038671874999999994
0.040283203125
0.04189453125
0.0459228515625
0.0459228515625
0.041088867187499996
0.042700195312499994
0.07009277343749999
0.043505859375
0.062841796875
0.20947265625
0.2827880859375
0.040283203125
0.0378662109375
0.045117187499999996
0.0443115234375
0.040283203125
0.040283203125
0.330322265625
3.0462158203125
3.0446044921874997
3.050244140625
3.04541015625
3.0470214843749996
3.0486328124999997
3.0486328124999997
3.050244140625
3.0470214843749996
3.0486328124999997
2.9906249999999996
3.0228515624999996
3.0470214843749996
2.9841796874999997
2.91328125
3.0462158203125
3.0470214843749996
3.0462158203125
3.0486328124999997
3.0478271484375
3.0462158203125
0.5792724609375
0.04189453125
0.041088867187499996
0.041088867187499996
0.040283203125
0.043505859375
0.04189453125
0.0378662109375
0.0346435546875
0.0362548828125
0.22478027343749998
0.09345703124999999
0.15871582031249998
0.28681640625
0.29970703125
0.042700195312499994
0.0443115234375
0.038671874999999994
0.0443115234375
0.038671874999999994
0.0378662109375
2.2598876953125
3.0462158203125
3.043798828125
3.0462158203125
3.04541015625
3.0486328124999997
3.0429931640624996
3.0470214843749996
3.0478271484375
3.0494384765625
3.0478271484375
3.029296875
3.0413818359375
3.0446044921874997
2.9865966796874996
3.0486328124999997
3.0470214843749996
3.0494384765625
3.0494384765625
3.04541015625
3.0494384765625
0.0443115234375
0.040283203125
0.04189453125
0.0378662109375
0.04189453125
0.041088867187499996
0.04189453125
0.0394775390625
0.040283203125
0.040283203125
0.041088867187499996
0.2892333984375
0.18449707031249998
0.2553955078125
0.2779541015625
0.0394775390625
0.040283203125
0.0394775390625
0.0394775390625
0.040283203125
0.041088867187499996
0.043505859375
3.0462158203125
3.0462158203125
3.0486328124999997
3.0486328124999997
3.0470214843749996
3.0478271484375
3.0510498046874996
3.0494384765625
3.0478271484375
3.04541015625
3.0486328124999997
3.0470214843749996
3.0470214843749996
2.9946533203124996
3.0462158203125
3.04541015625
3.0470214843749996
3.050244140625
3.0486328124999997
3.0446044921874997
3.0421875
0.041088867187499996
0.037060546874999996
0.043505859375
0.041088867187499996
0.038671874999999994
0.0394775390625
0.0362548828125
0.0378662109375
0.0394775390625
0.04189453125
0.041088867187499996
0.1506591796875
0.22316894531249998
0.27231445312499997
0.0394775390625
0.0394775390625
0.0394775390625
0.04189453125
0.040283203125
0.4793701171875
0.0459228515625
3.0470214843749996
3.0462158203125
3.0510498046874996
3.0510498046874996
3.0446044921874997
3.0462158203125
3.0462158203125
3.0462158203125
3.0462158203125
3.0478271484375
3.0462158203125
3.0188232421874996
3.0470214843749996
2.9737060546875
2.9334228515625
3.0446044921874997
3.0470214843749996
3.050244140625
3.0462158203125
3.0228515624999996
3.0446044921874997
0.043505859375
0.041088867187499996
0.0443115234375
0.040283203125
0.040283203125
0.0362548828125
0.04189453125
0.040283203125
0.0394775390625
0.043505859375
0.040283203125
0.249755859375
0.182080078125
0.2731201171875
0.2876220703125
0.038671874999999994
0.046728515624999994
0.04189453125
0.041088867187499996
0.041088867187499996
0.6268066406249999
1.7184814453125
3.0494384765625
3.04541015625
3.0446044921874997
3.0462158203125
3.04541015625
3.043798828125
3.0446044921874997
3.0429931640624996
3.0478271484375
3.04541015625
3.0486328124999997
3.0405761718749997
3.018017578125
2.995458984375
3.04541015625
3.050244140625
3.0486328124999997
3.0486328124999997
3.0486328124999997
0.041088867187499996
0.85400390625
0.041088867187499996
0.043505859375
0.041088867187499996
0.040283203125
0.0394775390625
0.0394775390625
0.037060546874999996
0.040283203125
0.041088867187499996
0.042700195312499994
0.038671874999999994
0.1699951171875
0.24814453125
0.269091796875
0.041088867187499996
0.04189453125
0.040283203125
0.041088867187499996
0.0443115234375
0.040283203125
2.367041015625
3.0470214843749996
3.0470214843749996
3.0478271484375
3.0446044921874997
3.0421875
3.0446044921874997
3.0462158203125
3.0478271484375
3.0486328124999997
3.0478271484375
2.9326171875
3.0429931640624996
3.0421875
2.9656494140625
3.0486328124999997
3.0478271484375
3.0470214843749996
3.0462158203125
3.0486328124999997
3.0446044921874997
0.7871337890625
0.040283203125
0.042700195312499994
0.043505859375
0.043505859375
0.040283203125
0.0394775390625
0.043505859375
0.045117187499999996
0.043505859375
0.0443115234375
0.042700195312499994
0.191748046875
0.19013671875
0.24089355468749998
0.041088867187499996
0.04833984375
0.041088867187499996
0.0394775390625
0.0378662109375
0.040283203125
0.040283203125
3.0470214843749996
3.050244140625
3.0462158203125
3.04541015625
3.0470214843749996
3.04541015625
3.0470214843749996
3.0462158203125
3.0494384765625
3.0510498046874996
3.0462158203125
3.0462158203125
3.0446044921874997
2.9994873046875
3.05185546875
3.050244140625
3.04541015625
3.050244140625
3.0470214843749996
1.0239990234375
3.0462158203125
0.038671874999999994
0.0394775390625
0.0378662109375
0.04189453125
0.042700195312499994
0.045117187499999996
0.0443115234375
0.040283203125
0.040283203125
0.041088867187499996
0.285205078125
0.07412109374999999
0.19899902343749998
0.269091796875
0.040283203125
0.041088867187499996
0.042700195312499994
0.04189453125
0.042700195312499994
0.040283203125
0.041088867187499996
3.0462158203125
3.0462158203125
3.0462158203125
3.0486328124999997
3.050244140625
3.0470214843749996
3.0486328124999997
3.0446044921874997
3.043798828125
3.0470214843749996
2.98095703125
3.0462158203125
3.04541015625
2.9769287109375
2.8931396484375
3.0470214843749996
3.0494384765625
3.0470214843749996
3.0486328124999997
3.0478271484375
2.386376953125
1.0272216796875
0.040283203125
0.040283203125
0.038671874999999994
0.0394775390625
0.0394775390625
0.040283203125
0.0394775390625
0.04189453125
0.041088867187499996
0.09023437499999999
0.038671874999999994
0.1345458984375
0.23122558593749998
0.2586181640625
0.040283203125
0.0459228515625
0.041088867187499996
0.040283203125
0.03544921875
0.040283203125
2.0584716796875
3.0421875
3.04541015625
3.0478271484375
3.043798828125
3.0470214843749996
3.0486328124999997
3.04541015625
3.059912109375
3.0478271484375
3.0462158203125
2.9737060546875
3.0462158203125
3.0139892578125
2.9447021484375
3.043798828125
3.0470214843749996
3.0470214843749996
3.0470214843749996
3.0478271484375
3.0462158203125
0.04189453125
0.0362548828125
0.0443115234375
0.042700195312499994
0.042700195312499994
0.038671874999999994
0.041088867187499996
0.040283203125
0.0378662109375
0.04189453125
0.062841796875
0.36577148437499996
0.1345458984375
0.17482910156249998
0.20061035156249998
0.04189453125
0.040283203125
0.041088867187499996
0.040283203125
0.040283203125
0.0394775390625
0.040283203125
3.0494384765625
3.04541015625
3.0446044921874997
3.0486328124999997
3.0462158203125
3.0462158203125
3.043798828125
3.0470214843749996
3.0446044921874997
3.0526611328124997
3.0486328124999997
3.0486328124999997
3.0462158203125
3.0317138671875
3.0478271484375
3.04541015625
3.04541015625
3.0462158203125
3.0470214843749996
3.0470214843749996
3.0478271484375
0.040283203125
0.042700195312499994
0.04189453125
0.041088867187499996
0.0378662109375
0.041088867187499996
0.04189453125
0.0394775390625
0.040283203125
0.0378662109375
0.038671874999999994
0.1377685546875
0.21591796875
0.2666748046875
0.0394775390625
0.042700195312499994
0.038671874999999994
0.0362548828125
0.0378662109375
0.03544921875
1.3382080078124998
3.0478271484375
3.0478271484375
3.050244140625
3.0429931640624996
3.0462158203125
3.0470214843749996
3.04541015625
3.04541015625
3.0494384765625
3.0470214843749996
3.04541015625
2.8770263671875
3.0010986328125
2.92294921875
2.8609130859375
3.0478271484375
3.0462158203125
3.04541015625
3.0462158203125
3.0486328124999997
0.0394775390625
0.2940673828125
0.0394775390625
0.040283203125
0.0394775390625
0.040283203125
0.043505859375
0.040283203125
0.041088867187499996
0.0378662109375
0.0394775390625
0.042700195312499994
0.12568359375
0.09023437499999999
0.1893310546875
0.214306640625
0.040283203125
0.04189453125
0.043505859375
0.040283203125
0.041088867187499996
0.033032226562499996
0.7758544921874999
3.0429931640624996
3.04541015625
3.0470214843749996
3.0470214843749996
3.0486328124999997
3.0470214843749996
3.0462158203125
3.0486328124999997
3.0486328124999997
3.0486328124999997
3.0429931640624996
3.0421875
3.021240234375
2.9785400390624996
3.04541015625
3.0478271484375
3.0470214843749996
3.0486328124999997
3.0470214843749996
0.420556640625
0.35126953125
0.042700195312499994
0.040283203125
0.041088867187499996
0.040283203125
0.0394775390625
0.041088867187499996
0.040283203125
0.04189453125
0.041088867187499996
0.09426269531249999
0.040283203125
0.20866699218749998
0.24331054687499998
0.262646484375
0.0378662109375
0.037060546874999996
0.037060546874999996
0.0378662109375
0.041088867187499996
0.0394775390625
0.0346435546875
3.0486328124999997
3.043798828125
3.04541015625
3.050244140625
3.043798828125
3.0446044921874997
3.0446044921874997
3.0462158203125
3.0494384765625
3.04541015625
3.0494384765625
3.0446044921874997
3.0462158203125
2.9930419921875
3.0462158203125
3.0462158203125
3.0446044921874997
3.0486328124999997
3.0478271484375
3.0470214843749996
1.92392578125
0.041088867187499996
0.040283203125
0.042700195312499994
0.04189453125
0.041088867187499996
0.041088867187499996
0.040283203125
0.041088867187499996
0.040283203125
0.040283203125
0.041088867187499996
0.11762695312499999
0.24733886718749998
0.2972900390625
0.041088867187499996
0.0394775390625
0.04189453125
0.027392578124999997
0.040283203125
1.1150390625
0.040283203125
3.0478271484375
3.043798828125
3.0462158203125
3.0486328124999997
3.0470214843749996
3.0462158203125
3.0470214843749996
3.050244140625
3.0462158203125
3.0462158203125
3.0043212890624997
3.04541015625
3.0446044921874997
3.0043212890624997
3.0478271484375
3.0510498046874996
3.0429931640624996
3.0470214843749996
3.0413818359375
1.5726562499999999
2.1712646484375
0.2183349609375
0.042700195312499994
0.041088867187499996
0.041088867187499996
0.041088867187499996
0.038671874999999994
0.0378662109375
0.0394775390625
0.040283203125
0.042700195312499994
0.0636474609375
0.095068359375
0.1554931640625
0.23283691406249998
0.038671874999999994
0.043505859375
0.0394775390625
0.041088867187499996
0.041088867187499996
0.041088867187499996
0.0394775390625
2.7964599609375
3.0470214843749996
3.0494384765625
3.0470214843749996
3.0470214843749996
3.0486328124999997
3.0462158203125
3.0486328124999997
3.04541015625
3.0470214843749996
3.0462158203125
3.0478271484375
3.0462158203125
2.9745117187499996
2.874609375
3.0462158203125
3.0494384765625
3.0462158203125
3.0470214843749996
3.0470214843749996
3.0470214843749996
1.1408203125
0.040283203125
0.040283203125
0.040283203125
0.040283203125
0.0443115234375
0.0378662109375
0.040283203125
0.040283203125
0.0394775390625
0.0555908203125
0.033032226562499996
0.193359375
0.252978515625
0.298095703125
0.043505859375
0.04189453125
0.042700195312499994
0.0378662109375
0.043505859375
0.0443115234375
3.0478271484375
3.0478271484375
3.0462158203125
3.0446044921874997
3.0470214843749996
3.0478271484375
3.050244140625
3.0494384765625
3.043798828125
3.04541015625
3.0429931640624996
2.7884033203125
3.0470214843749996
3.0325195312499997
2.9761230468749997
3.0478271484375
3.0446044921874997
3.0462158203125
3.043798828125
3.050244140625
3.0470214843749996
0.0378662109375
0.0394775390625
0.04189453125
0.0394775390625
0.04189453125
0.0362548828125
0.041088867187499996
0.040283203125
0.0378662109375
0.0394775390625
0.045117187499999996
0.375439453125
0.146630859375
0.2296142578125
0.26748046875
0.0394775390625
0.04189453125
0.040283203125
0.040283203125
0.041088867187499996
0.041088867187499996
0.0394775390625
3.0462158203125
3.0462158203125
3.04541015625
3.04541015625
3.0470214843749996
3.0470214843749996
3.0494384765625
3.043798828125
3.0470214843749996
3.0462158203125
3.0446044921874997
3.04541015625
3.0462158203125
2.9994873046875
2.96162109375
3.043798828125
3.0470214843749996
3.0470214843749996
3.0478271484375
2.6321044921874996
3.0462158203125
0.33515625
0.041088867187499996
0.037060546874999996
0.042700195312499994
0.04189453125
0.040283203125
0.0378662109375
0.0378662109375
0.043505859375
0.0443115234375
0.07412109374999999
0.0910400390625
0.22075195312499998
0.2989013671875
0.3029296875
0.040283203125
0.041088867187499996
0.0394775390625
0.040283203125
0.72509765625
2.5330078124999997
3.043798828125
3.04541015625
3.0462158203125
3.0446044921874997
3.0470214843749996
3.0486328124999997
3.050244140625
3.043798828125
3.0446044921874997
3.0478271484375
3.0526611328124997
2.969677734375
3.0252685546875
2.9664550781249996
2.8609130859375
3.0462158203125
3.0494384765625
3.043798828125
3.0478271484375
3.04541015625
0.1071533203125
0.24492187499999998
0.041088867187499996
0.041088867187499996
0.0443115234375
0.0378662109375
0.0394775390625
0.041088867187499996
0.041088867187499996
0.041088867187499996
0.040283203125
0.1345458984375
0.249755859375
0.207861328125
0.294873046875
0.29326171875
0.040283203125
0.041088867187499996
0.041088867187499996
0.04189453125
0.0394775390625
0.043505859375
1.6266357421875
3.0462158203125
3.04541015625
3.0478271484375
3.04541015625
3.0470214843749996
3.0478271484375
3.050244140625
3.0486328124999997
3.0494384765625
3.0486328124999997
3.0462158203125
3.0067382812499996
2.99384765625
2.9269775390625
3.0470214843749996
3.0486328124999997
3.0470214843749996
3.0486328124999997
3.0478271484375
1.5895751953125
0.0459228515625
0.0523681640625
0.040283203125
0.04189453125
0.040283203125
0.0443115234375
0.041088867187499996
0.053173828124999996
0.040283203125
0.040283203125
0.09345703124999999
0.16032714843749998
0.246533203125
0.31340332031249996
0.33757324218749996
0.04189453125
0.0443115234375
0.038671874999999994
0.041088867187499996
0.041088867187499996
0.041088867187499996
0.555908203125
3.0357421875
3.04541015625
3.0486328124999997
3.0470214843749996
3.0478271484375
3.04541015625
3.04541015625
3.04541015625
3.0462158203125
3.04541015625
3.05185546875
3.0462158203125
2.9398681640624997
2.8536621093749996
3.0470214843749996
3.0486328124999997
3.0470214843749996
3.0478271484375
3.0397705078125
3.0462158203125
2.9277832031249997
0.042700195312499994
0.0443115234375
0.0394775390625
0.042700195312499994
0.0378662109375
0.040283203125
0.045117187499999996
0.037060546874999996
0.040283203125
0.040283203125
0.042700195312499994
0.09829101562499999
0.169189453125
0.252978515625
0.04189453125
0.041088867187499996
0.043505859375
0.041088867187499996
0.04189453125
2.0633056640625
0.04189453125
3.0470214843749996
3.0462158203125
3.0486328124999997
3.04541015625
3.0478271484375
3.04541015625
3.0462158203125
3.0486328124999997
3.04541015625
3.0462158203125
3.0470214843749996
2.9656494140625
3.0107666015624996
2.900390625
3.0462158203125
3.0470214843749996
3.0462158203125
3.04541015625
3.04541015625
2.21396484375
0.781494140625
0.0394775390625
0.0362548828125
0.041088867187499996
0.0378662109375
0.040283203125
0.040283203125
0.038671874999999994
0.043505859375
0.0378662109375
0.040283203125
0.0684814453125
0.207861328125
0.193359375
0.275537109375
0.056396484375
0.042700195312499994
0.041088867187499996
0.045117187499999996
0.042700195312499994
0.03544921875
0.041088867187499996
3.0172119140625
3.0478271484375
3.0470214843749996
3.0470214843749996
3.0470214843749996
3.0486328124999997
3.0494384765625
3.04541015625
3.0494384765625
3.0478271484375
3.0462158203125
3.0446044921874997
3.001904296875
2.9430908203125
2.8351318359374997
3.0446044921874997
3.0446044921874997
3.0470214843749996
3.0470214843749996
3.0470214843749996
3.0478271484375
1.3954101562499999
0.0443115234375
0.0443115234375
0.04189453125
0.040283203125
0.041088867187499996
0.041088867187499996
0.041088867187499996
0.0362548828125
0.041088867187499996
0.10151367187499999
0.040283203125
0.191748046875
0.2876220703125
0.36093749999999997
0.037060546874999996
0.041088867187499996
0.0443115234375
0.040283203125
0.042700195312499994
0.041088867187499996
3.0470214843749996
3.0470214843749996
3.0478271484375
3.0486328124999997
3.0462158203125
3.043798828125
3.0478271484375
3.0478271484375
3.04541015625
3.0470214843749996
3.0470214843749996
2.69736328125
3.0002929687499997
2.9253662109375
2.8367431640625
3.043798828125
3.0446044921874997
3.0462158203125
3.0446044921874997
3.0470214843749996
3.043798828125
0.041088867187499996
0.0394775390625
0.041088867187499996
0.040283203125
0.042700195312499994
0.045117187499999996
0.041088867187499996
0.042700195312499994
0.043505859375
0.043505859375
0.041088867187499996
0.24814453125
0.0708984375
0.20061035156249998
0.269091796875
0.041088867187499996
0.037060546874999996
0.040283203125
0.041088867187499996
0.041088867187499996
0.041088867187499996
0.030615234374999998
3.04541015625
3.0462158203125
3.043798828125
3.0470214843749996
3.0470214843749996
3.0421875
3.0526611328124997
3.0470214843749996
3.0470214843749996
3.0470214843749996
2.8850830078125
2.8206298828125
2.8681640625
2.8512451171874997
2.7529541015624996
3.0486328124999997
3.0446044921874997
3.0470214843749996
3.04541015625
1.3140380859374998
3.04541015625
0.3021240234375
0.0394775390625
0.0394775390625
0.040283203125
0.0394775390625
0.0459228515625
0.040283203125
0.043505859375
0.040283203125
0.04189453125
0.2940673828125
0.233642578125
0.20463867187499998
0.207861328125
0.233642578125
0.0362548828125
0.038671874999999994
0.0394775390625
0.0378662109375
0.0362548828125
1.7587646484375
1.5799072265624998
3.04541015625
3.04541015625
3.0494384765625
3.0462158203125
3.0486328124999997
3.0462158203125
3.0470214843749996
3.0462158203125
3.04541015625
3.0486328124999997
3.029296875
3.0317138671875
2.9672607421875
2.8472167968749997
3.0486328124999997
3.0446044921874997
3.0462158203125
3.0478271484375
3.0486328124999997
1.4864501953125
0.40283203125
0.041088867187499996
0.043505859375
0.040283203125
0.037060546874999996
0.0394775390625
0.040283203125
0.0394775390625
0.041088867187499996
0.041088867187499996
0.10554199218749999
0.1353515625
0.16274414062499998
0.26748046875
0.2634521484375
0.040283203125
0.043505859375
0.042700195312499994
0.040283203125
0.040283203125
0.040283203125
2.11728515625
3.0413818359375
3.0446044921874997
3.043798828125
3.0470214843749996
3.0470214843749996
3.0470214843749996
3.0486328124999997
3.050244140625
3.0470214843749996
3.043798828125
3.0478271484375
2.9559814453124997
2.9841796874999997
2.8302978515625
3.0470214843749996
3.0486328124999997
3.0478271484375
3.0470214843749996
3.0470214843749996
3.04541015625
0.033837890625
0.042700195312499994
0.042700195312499994
0.040283203125
0.040283203125
0.0394775390625
0.043505859375
0.043505859375
0.040283203125
0.042700195312499994
0.040283203125
0.1426025390625
0.09023437499999999
0.0878173828125
0.165966796875
0.042700195312499994
0.041088867187499996
0.0394775390625
0.0443115234375
0.040283203125
0.040283203125
0.038671874999999994
3.043798828125
3.0462158203125
3.0486328124999997
3.043798828125
3.043798828125
3.0470214843749996
3.0429931640624996
3.0462158203125
3.0494384765625
3.0470214843749996
3.050244140625
2.979345703125
3.021240234375
2.9712890625
3.0462158203125
3.0470214843749996
3.0462158203125
3.0486328124999997
3.0470214843749996
3.0462158203125
3.043798828125
0.16677246093749998
0.033837890625
0.041088867187499996
0.040283203125
0.0443115234375
0.0362548828125
0.04189453125
0.0443115234375
0.04189453125
0.0733154296875
0.0378662109375
0.217529296875
0.21108398437499998
0.2578125
0.040283203125
0.037060546874999996
0.043505859375
0.0378662109375
0.038671874999999994
1.0014404296875
0.041088867187499996
2.7392578125
3.0510498046874996
3.0462158203125
3.04541015625
3.04541015625
3.0462158203125
3.0494384765625
3.04541015625
3.0462158203125
3.0462158203125
3.0470214843749996
3.018017578125
3.0526611328124997
2.98740234375
2.9237548828124997
3.0421875
3.0470214843749996
3.0462158203125
3.0462158203125
2.9527587890625
0.038671874999999994
1.6024658203125
0.038671874999999994
0.041088867187499996
0.037060546874999996
0.040283203125
0.041088867187499996
0.0394775390625
0.0394775390625
0.041088867187499996
0.038671874999999994
0.09345703124999999
0.2360595703125
0.13615722656249998
0.2280029296875
0.22478027343749998
0.04189453125
0.0394775390625
0.0378662109375
0.040283203125
0.041088867187499996
0.041088867187499996
2.8335205078124996
3.0486328124999997
3.04541015625
3.0397705078125
3.0486328124999997
3.0446044921874997
3.050244140625
3.0486328124999997
3.04541015625
3.0462158203125
3.050244140625
3.0470214843749996
3.029296875
3.0228515624999996
2.9656494140625
3.0462158203125
3.0446044921874997
3.0470214843749996
3.0494384765625
3.0703857421875
3.0526611328124997
0.8789794921874999
0.04189453125
0.041088867187499996
0.0394775390625
0.04189453125
0.0346435546875
0.03544921875
0.043505859375
0.042700195312499994
0.040283203125
0.04189453125
0.0394775390625
0.1329345703125
0.1474365234375
0.2457275390625
0.041088867187499996
0.04189453125
0.0378662109375
0.040283203125
0.040283203125
0.042700195312499994
0.13857421875
3.0526611328124997
3.0470214843749996
3.0486328124999997
3.0478271484375
3.0470214843749996
3.043798828125
3.0478271484375
3.0462158203125
3.0470214843749996
3.0470214843749996
2.8899169921874996
3.04541015625
3.0486328124999997
3.0067382812499996
3.0486328124999997
3.0494384765625
3.0478271484375
3.0510498046874996
3.0462158203125
3.0478271484375
0.581689453125
0.040283203125
0.041088867187499996
0.0378662109375
0.040283203125
0.04189453125
0.041088867187499996
0.040283203125
0.0394775390625
0.037060546874999996
0.041088867187499996
0.07412109374999999
0.08217773437499999
0.2263916015625
0.30615234375
0.042700195312499994
0.0394775390625
0.041088867187499996
0.041088867187499996
0.041088867187499996
0.041088867187499996
0.0394775390625
3.0470214843749996
3.050244140625
3.043798828125
3.0421875
3.0486328124999997
3.0486328124999997
3.04541015625
3.0486328124999997
3.0478271484375
3.0462158203125
3.0446044921874997
3.04541015625
3.0421875
3.0075439453125
2.9398681640624997
3.0462158203125
3.0470214843749996
3.0470214843749996
3.04541015625
0.9998291015624999
3.0478271484375
0.40202636718749996
0.040283203125
0.040283203125
0.0394775390625
0.040283203125
0.038671874999999994
0.042700195312499994
0.040283203125
0.043505859375
0.040283203125
0.2811767578125
0.0837890625
0.2199462890625
0.25458984375
0.27392578125
0.03544921875
0.040283203125
0.040283203125
0.042700195312499994
0.041088867187499996
0.0378662109375
1.0973144531249999
3.04541015625
3.0470214843749996
3.0470214843749996
3.04541015625
3.0470214843749996
3.0470214843749996
3.04541015625
3.0478271484375
3.0462158203125
3.0486328124999997
3.0478271484375
3.04541015625
3.0478271484375
2.9350341796875
3.0470214843749996
3.0462158203125
3.0470214843749996
3.04541015625
3.0478271484375
3.05185546875
1.18916015625
0.041088867187499996
0.041088867187499996
0.038671874999999994
0.041088867187499996
0.041088867187499996
0.041088867187499996
0.0394775390625
0.0346435546875
0.0394775390625
0.0322265625
0.0378662109375
0.1297119140625
0.20463867187499998
0.2578125
0.040283203125
0.041088867187499996
0.0378662109375
0.043505859375
0.041088867187499996
0.0378662109375
2.04638671875
3.0486328124999997
3.04541015625
3.0462158203125
3.0486328124999997
3.0494384765625
3.043798828125
3.043798828125
3.0478271484375
3.0446044921874997
3.0470214843749996
2.9326171875
3.043798828125
3.011572265625
2.9672607421875
3.0486328124999997
3.0462158203125
3.0429931640624996
3.0486328124999997
3.0478271484375
3.0462158203125
0.037060546874999996
0.040283203125
0.041088867187499996
0.041088867187499996
0.04189453125
0.040283203125
0.041088867187499996
0.041088867187499996
0.043505859375
0.043505859375
0.0845947265625
0.4165283203125
0.20625
0.25620117187499997
0.30856933593749997
0.043505859375
0.037060546874999996
0.04189453125
0.040283203125
0.0378662109375
0.0378662109375
0.040283203125
3.0470214843749996
3.0470214843749996
3.0470214843749996
3.0462158203125
3.043798828125
3.0510498046874996
3.0470214843749996
3.04541015625
3.0462158203125
3.0486328124999997
3.0470214843749996
3.0228515624999996
3.0478271484375
2.9753173828125
2.9986816406249996
3.0470214843749996
3.0478271484375
3.04541015625
3.0462158203125
3.0462158203125
3.04541015625
0.04189453125
0.038671874999999994
0.0394775390625
0.04189453125
0.040283203125
0.045117187499999996
0.040283203125
0.0378662109375
0.041088867187499996
0.038671874999999994
0.042700195312499994
0.1796630859375
0.22236328125
0.23122558593749998
0.15871582031249998
0.041088867187499996
0.040283203125
0.042700195312499994
0.040283203125
0.038671874999999994
0.20463867187499998
1.448583984375
3.04541015625
3.0486328124999997
3.043798828125
3.04541015625
3.0462158203125
3.043798828125
3.0470214843749996
3.0470214843749996
3.043798828125
3.043798828125
2.96162109375
3.0462158203125
2.9833740234375
2.876220703125
3.0470214843749996
3.0470214843749996
3.04541015625
3.0494384765625
3.0486328124999997
0.04189453125
0.46567382812499997
0.040283203125
0.040283203125
0.041088867187499996
0.040283203125
0.04189453125
0.0394775390625
0.042700195312499994
0.040283203125
0.0394775390625
0.062841796875
0.21108398437499998
0.15227050781249998
0.278759765625
0.291650390625
0.041088867187499996
0.04189453125
0.041088867187499996
0.03544921875
0.04189453125
0.040283203125
1.029638671875
3.0494384765625
3.0486328124999997
3.04541015625
3.0494384765625
3.0470214843749996
3.0421875
3.0470214843749996
3.0470214843749996
3.0470214843749996
3.0470214843749996
3.0397705078125
3.0470214843749996
3.0365478515624997
2.98740234375
3.0470214843749996
3.0470214843749996
3.0470214843749996
3.0486328124999997
3.0470214843749996
0.2779541015625
0.6509765624999999
0.04189453125
0.0394775390625
0.041088867187499996
0.04189453125
0.040283203125
0.0394775390625
0.0394775390625
0.042700195312499994
0.041088867187499996
0.116015625
0.0475341796875
0.26103515625
0.3037353515625
0.307763671875
0.041088867187499996
0.0378662109375
0.0362548828125
0.0378662109375
0.040283203125
0.043505859375
0.5607421874999999
3.0470214843749996
3.0478271484375
3.04541015625
3.0470214843749996
3.0462158203125
3.0486328124999997
3.04541015625
3.0462158203125
3.0446044921874997
3.0446044921874997
3.0462158203125
3.0462158203125
2.9986816406249996
2.9608154296875
3.04541015625
3.0462158203125
3.050244140625
3.0421875
3.0478271484375
3.0446044921874997
2.147900390625
0.04189453125
0.041088867187499996
0.040283203125
0.038671874999999994
0.0394775390625
0.040283203125
0.041088867187499996
0.0394775390625
0.040283203125
0.043505859375
0.041088867187499996
0.15146484375
0.19094238281249998
0.2553955078125
0.042700195312499994
0.040283203125
0.043505859375
0.0378662109375
0.041088867187499996
0.043505859375
0.04189453125
3.0478271484375
3.04541015625
3.0470214843749996
3.0494384765625
3.0494384765625
3.050244140625
3.043798828125
3.0470214843749996
3.0421875
3.0446044921874997
3.0228515624999996
3.0478271484375
3.0470214843749996
2.9922363281249997
3.0478271484375
3.050244140625
3.0510498046874996
3.0470214843749996
3.0478271484375
1.69189453125
1.796630859375
0.28037109374999997
0.0394775390625
0.041088867187499996
0.041088867187499996
0.040283203125
0.043505859375
0.04189453125
0.0394775390625
0.0378662109375
0.03544921875
0.041088867187499996
0.15791015625
0.1893310546875
0.2618408203125
0.038671874999999994
0.0378662109375
0.040283203125
0.0394775390625
0.040283203125
0.0394775390625
0.040283203125
2.6216308593749997
3.0462158203125
3.0486328124999997
3.0470214843749996
3.0470214843749996
3.0462158203125
3.0478271484375
3.0510498046874996
3.0470214843749996
3.0429931640624996
3.0470214843749996
3.0462158203125
3.0462158203125
3.0462158203125
2.9720947265624997
3.0470214843749996
3.0470214843749996
3.04541015625
3.0486328124999997
3.0470214843749996
3.0470214843749996
1.432470703125
0.041088867187499996
0.0378662109375
0.0394775390625
0.040283203125
0.037060546874999996
0.041088867187499996
0.041088867187499996
0.0394775390625
0.037060546874999996
0.11762695312499999
0.040283203125
0.249755859375
0.3037353515625
0.32468261718749997
0.043505859375
0.042700195312499994
0.041088867187499996
0.041088867187499996
0.042700195312499994
0.041088867187499996
3.0470214843749996
3.04541015625
3.0470214843749996
3.0486328124999997
3.04541015625
3.043798828125
3.0470214843749996
3.0470214843749996
3.0478271484375
3.0462158203125
3.050244140625
2.8319091796875
3.0494384765625
3.0083496093749997
2.9390625
3.0470214843749996
3.0478271484375
3.0486328124999997
3.0470214843749996
3.04541015625
3.0446044921874997
0.041088867187499996
0.0394775390625
0.042700195312499994
0.040283203125
0.040283203125
0.041088867187499996
0.0443115234375
0.041088867187499996
0.038671874999999994
0.043505859375
0.041088867187499996
0.3311279296875
0.1297119140625
0.21914062499999998
0.262646484375
0.0378662109375
0.0378662109375
0.041088867187499996
0.040283203125
0.042700195312499994
0.040283203125
0.041088867187499996
3.05185546875
3.0446044921874997
3.0470214843749996
3.0421875
3.0462158203125
3.0470214843749996
3.0470214843749996
3.0462158203125
3.0486328124999997
3.04541015625
3.050244140625
3.0486328124999997
3.04541015625
3.0284912109374997
2.956787109375
3.0510498046874996
3.0462158203125
3.0478271484375
3.05185546875
1.90458984375
3.0462158203125
0.5736328125
0.042700195312499994
0.033837890625
0.0394775390625
0.040283203125
0.040283203125
0.040283203125
0.042700195312499994
0.0443115234375
0.041088867187499996
0.259423828125
0.0684814453125
0.18449707031249998
0.22719726562499998
0.21914062499999998
0.04189453125
0.041088867187499996
0.0394775390625
0.040283203125
0.041088867187499996
1.187548828125
3.0462158203125
3.0470214843749996
3.0478271484375
3.0470214843749996
3.0462158203125
3.0470214843749996
3.0462158203125
3.0462158203125
3.0478271484375
3.0550781249999996
3.0309082031249996
3.0470214843749996
3.0494384765625
3.0397705078125
2.9447021484375
3.0494384765625
3.0470214843749996
3.0494384765625
3.0470214843749996
3.0494384765625
1.5976318359375
0.6147216796875
0.0378662109375
0.040283203125
0.041088867187499996
0.041088867187499996
0.040283203125
0.040283203125
0.040283203125
0.041088867187499996
0.03544921875
0.298095703125
0.19255371093749998
0.20947265625
0.294873046875
0.33757324218749996
0.042700195312499994
0.041088867187499996
0.041088867187499996
0.0555908203125
0.042700195312499994
0.0459228515625
1.786962890625
3.0470214843749996
3.04541015625
3.0446044921874997
3.04541015625
3.0470214843749996
3.0421875
3.0478271484375
3.0478271484375
3.0486328124999997
3.04541015625
2.9575927734375
3.0470214843749996
3.0478271484375
2.9849853515625
3.0470214843749996
3.0470214843749996
3.04541015625
3.0478271484375
3.04541015625
3.050244140625
0.0394775390625
0.0394775390625
0.037060546874999996
0.043505859375
0.0515625
0.04189453125
0.040283203125
0.038671874999999994
0.040283203125
0.04189453125
0.0966796875
0.3440185546875
0.19255371093749998
0.21672363281249998
0.2425048828125
0.040283203125
0.0443115234375
0.042700195312499994
0.040283203125
0.040283203125
0.0443115234375
0.041088867187499996
3.0486328124999997
3.043798828125
3.0462158203125
3.043798828125
3.0470214843749996
3.050244140625
3.0486328124999997
3.0462158203125
3.0462158203125
3.043798828125
3.0446044921874997
3.0357421875
2.98740234375
2.9350341796875
3.04541015625
3.0478271484375
3.0462158203125
3.0470214843749996
3.050244140625
3.0486328124999997
3.0470214843749996
0.04189453125
0.0362548828125
0.0443115234375
0.043505859375
0.040283203125
0.0378662109375
0.04189453125
0.041088867187499996
0.038671874999999994
0.040283203125
0.040283203125
0.13212890624999998
0.1877197265625
0.249755859375
0.0475341796875
0.040283203125
0.041088867187499996
0.041088867187499996
0.042700195312499994
0.0394775390625
0.041088867187499996
3.0462158203125
3.0478271484375
3.0486328124999997
3.0429931640624996
3.0462158203125
3.0470214843749996
3.0494384765625
3.0486328124999997
3.0462158203125
3.0462158203125
3.0470214843749996
3.0059326171875
3.04541015625
3.05830078125
2.9583984374999996
3.0486328124999997
3.0470214843749996
3.0470214843749996
3.04541015625
3.0470214843749996
0.0394775390625
0.037060546874999996
0.040283203125
0.040283203125
0.0443115234375
0.04189453125
0.040283203125
0.041088867187499996
0.041088867187499996
0.0378662109375
0.0394775390625
0.041088867187499996
0.2795654296875
0.18288574218749998
0.270703125
0.281982421875
0.0394775390625
0.040283203125
0.040283203125
0.042700195312499994
0.04189453125
0.040283203125
2.1390380859375
3.0486328124999997
3.0486328124999997
3.0486328124999997
3.0486328124999997
3.0478271484375
3.0478271484375
3.043798828125
3.0446044921874997
3.0429931640624996
3.0486328124999997
3.0494384765625
3.04541015625
3.0389648437499996
3.0027099609374996
3.0446044921874997
3.0494384765625
3.043798828125
3.043798828125
3.0470214843749996
0.041088867187499996
1.0127197265624999
0.0378662109375
0.04189453125
0.040283203125
0.0378662109375
0.043505859375
0.04189453125
0.040283203125
0.041088867187499996
0.041088867187499996
0.0717041015625
0.0394775390625
0.167578125
0.230419921875
0.2255859375
0.041088867187499996
0.041088867187499996
0.038671874999999994
0.03544921875
0.04189453125
0.041088867187499996
1.6636962890625
3.0462158203125
3.0429931640624996
3.0486328124999997
3.04541015625
3.0486328124999997
3.0462158203125
3.0470214843749996
3.0486328124999997
3.0486328124999997
3.043798828125
3.0446044921874997
3.0349365234374996
3.01962890625
2.9414794921875
3.0470214843749996
3.0446044921874997
3.04541015625
3.0470214843749996
3.0478271484375
3.0462158203125
1.0731445312499999
0.040283203125
0.041088867187499996
0.041088867187499996
0.041088867187499996
0.043505859375
0.040283203125
0.038671874999999994
0.043505859375
0.040283203125
0.040283203125
0.0394775390625
0.175634765625
0.191748046875
0.2771484375
0.043505859375
0.037060546874999996
0.038671874999999994
0.0394775390625
0.037060546874999996
0.041088867187499996
0.0362548828125
3.04541015625
3.0478271484375
3.0470214843749996
3.0462158203125
3.04541015625
3.0462158203125
3.0486328124999997
3.04541015625
3.0494384765625
3.0462158203125
2.98095703125
3.0478271484375
3.0470214843749996
2.9801513671874997
3.04541015625
3.0486328124999997
3.0462158203125
3.0470214843749996
3.0510498046874996
0.9812988281249999
3.04541015625
0.041088867187499996
0.04189453125
0.0394775390625
0.0378662109375
0.041088867187499996
0.040283203125
0.041088867187499996
0.040283203125
0.04189453125
0.040283203125
0.2054443359375
0.1426025390625
0.246533203125
0.3158203125
0.0378662109375
0.040283203125
0.043505859375
0.040283203125
0.037060546874999996
0.0378662109375
0.038671874999999994
3.0462158203125
3.043798828125
3.043798828125
3.0486328124999997
3.0478271484375
3.0478271484375
3.0478271484375
3.0446044921874997
3.0478271484375
3.0462158203125
3.037353515625
3.0462158203125
3.0462158203125
3.0099609375
2.9060302734374996
3.04541015625
3.0470214843749996
3.04541015625
3.0478271484375
3.0486328124999997
1.98193359375
0.994189453125
0.041088867187499996
0.0459228515625
0.042700195312499994
0.0362548828125
0.041088867187499996
0.041088867187499996
0.04189453125
0.0378662109375
0.04189453125
0.07814941406249999
0.037060546874999996
0.18691406249999998
0.26022949218749997
0.30856933593749997
0.040283203125
0.0394775390625
0.042700195312499994
0.040283203125
0.0523681640625
0.040283203125
1.9223144531249998
3.0446044921874997
3.0446044921874997
3.0470214843749996
3.04541015625
3.0462158203125
3.0470214843749996
3.0470214843749996
3.0470214843749996
3.04541015625
3.0478271484375
2.8012939453124996
3.0429931640624996
3.0357421875
2.96162109375
3.0486328124999997
3.04541015625
3.0478271484375
3.043798828125
3.04541015625
3.0494384765625
0.040283203125
0.0394775390625
0.0378662109375
0.040283203125
0.04189453125
0.038671874999999994
0.04189453125
0.038671874999999994
0.038671874999999994
0.038671874999999994
0.043505859375
0.327099609375
0.13212890624999998
0.1877197265625
0.22075195312499998
0.041088867187499996
0.0394775390625
0.040283203125
0.0459228515625
0.040283203125
0.0394775390625
0.0394775390625
3.050244140625
3.0470214843749996
3.0429931640624996
3.043798828125
3.0478271484375
3.0462158203125
3.0429931640624996
3.0446044921874997
3.0486328124999997
3.0446044921874997
3.0470214843749996
3.0478271484375
3.0381591796875
3.0204345703124997
3.0470214843749996
3.0429931640624996
3.0429931640624996
3.0446044921874997
3.043798828125
3.0462158203125
3.0470214843749996
0.040283203125
0.0378662109375
0.040283203125
0.0394775390625
0.040283203125
0.04189453125
0.040283203125
0.04189453125
0.040283203125
0.033837890625
0.041088867187499996
0.08217773437499999
0.17644042968749998
0.2054443359375
0.042700195312499994
0.038671874999999994
0.040283203125
0.043505859375
0.043505859375
0.040283203125
0.32145996093749996
3.0446044921874997
3.0446044921874997
3.04541015625
3.0462158203125
3.0462158203125
3.043798828125
3.0478271484375
3.050244140625
3.0470214843749996
3.0486328124999997
3.0446044921874997
3.0317138671875
3.04541015625
3.0446044921874997
2.9672607421875
3.0462158203125
3.0421875
3.0462158203125
3.043798828125
3.0510498046874996
0.038671874999999994
0.3279052734375
0.041088867187499996
0.042700195312499994
0.040283203125
0.0443115234375
0.040283203125
0.042700195312499994
0.043505859375
0.041088867187499996
0.045117187499999996
0.19658203124999998
0.16838378906249998
0.08620605468749999
0.1651611328125
0.21108398437499998
0.041088867187499996
0.0394775390625
0.040283203125
0.038671874999999994
0.043505859375
0.040283203125
0.7436279296874999
3.0462158203125
3.0462158203125
3.0478271484375
3.050244140625
3.0478271484375
3.0478271484375
3.0494384765625
3.0478271484375
3.0486328124999997
3.0478271484375
3.0478271484375
3.0421875
3.0357421875
3.0091552734375
3.0470214843749996
3.0510498046874996
3.0478271484375
3.0486328124999997
3.043798828125
1.203662109375
0.1458251953125
0.09748535156249999
0.040283203125
0.041088867187499996
0.042700195312499994
0.041088867187499996
0.043505859375
0.042700195312499994
0.041088867187499996
0.040283203125
0.062841796875
0.041088867187499996
0.20061035156249998
0.24814453125
0.2425048828125
0.042700195312499994
0.038671874999999994
0.040283203125
0.040283203125
0.040283203125
0.038671874999999994
0.20463867187499998
3.0462158203125
3.0494384765625
3.0478271484375
3.050244140625
3.0462158203125
3.04541015625
3.0462158203125
3.0470214843749996
3.0470214843749996
3.0486328124999997
3.0478271484375
3.0429931640624996
3.0381591796875
3.0107666015624996
3.0494384765625
3.0470214843749996
3.0478271484375
3.0470214843749996
3.0421875
3.0478271484375
2.7448974609374996
0.043505859375
0.040283203125
0.043505859375
0.041088867187499996
0.040283203125
0.041088867187499996
0.04189453125
0.041088867187499996
0.0362548828125
0.049145507812499996
0.0443115234375
0.146630859375
0.22478027343749998
0.30937499999999996
0.042700195312499994
0.0378662109375
0.0394775390625
0.04189453125
0.040283203125
0.11923828125
0.0443115234375
2.96484375
3.0446044921874997
3.0486328124999997
3.0470214843749996
3.04541015625
3.0478271484375
3.0462158203125
3.0486328124999997
3.0470214843749996
3.0470214843749996
3.043798828125
3.04541015625
3.04541015625
3.0470214843749996
3.0429931640624996
3.0486328124999997
3.0325195312499997
3.0478271484375
3.0486328124999997
2.1648193359375
1.4848388671875
0.2553955078125
0.040283203125
0.041088867187499996
0.042700195312499994
0.038671874999999994
0.037060546874999996
0.04189453125
0.0394775390625
0.040283203125
0.041088867187499996
0.0394775390625
0.143408203125
0.1538818359375
0.2296142578125
0.037060546874999996
0.041088867187499996
0.04189453125
0.04189453125
0.0443115234375
0.040283203125
0.04189453125
2.592626953125
3.0446044921874997
3.0462158203125
3.04541015625
3.04541015625
3.0446044921874997
3.0470214843749996
3.04541015625
3.0478271484375
3.0470214843749996
3.0413818359375
3.0470214843749996
3.0389648437499996
3.01962890625
2.9527587890625
3.04541015625
3.04541015625
3.050244140625
3.0470214843749996
3.0462158203125
3.0470214843749996
1.147265625
0.0394775390625
0.04189453125
0.043505859375
0.037060546874999996
0.037060546874999996
0.041088867187499996
0.0362548828125
0.040283203125
0.0394775390625
0.049145507812499996
0.040283203125
0.14018554687499998
0.17482910156249998
0.23686523437499998
0.0394775390625
0.0394775390625
0.043505859375
0.043505859375
0.042700195312499994
0.038671874999999994
2.94873046875
3.0462158203125
3.0462158203125
3.04541015625
3.0470214843749996
3.043798828125
3.0429931640624996
3.0470214843749996
3.0478271484375
3.0429931640624996
3.04541015625
2.785986328125
3.0494384765625
3.0421875
3.0349365234374996
3.0462158203125
3.043798828125
3.0486328124999997
3.05185546875
3.0510498046874996
3.0478271484375
0.042700195312499994
0.041088867187499996
0.040283203125
0.04189453125
0.033837890625
0.040283203125
0.045117187499999996
0.043505859375
0.040283203125
0.037060546874999996
0.042700195312499994
0.25620117187499997
0.09023437499999999
0.2344482421875
0.31259765624999997
0.042700195312499994
0.041088867187499996
0.041088867187499996
0.041088867187499996
0.04189453125
0.0378662109375
0.042700195312499994
3.0470214843749996
3.0462158203125
3.0486328124999997
3.0470214843749996
3.0478271484375
3.0470214843749996
3.0462158203125
3.0429931640624996
3.0478271484375
3.0470214843749996
3.0446044921874997
3.0486328124999997
3.0446044921874997
3.0228515624999996
2.9463134765624996
3.0470214843749996
3.0478271484375
3.0470214843749996
3.04541015625
1.5702392578125
3.0478271484375
0.526904296875
0.038671874999999994
0.041088867187499996
0.0346435546875
0.040283203125
0.040283203125
0.033032226562499996
0.0394775390625
0.040283203125
0.0394775390625
0.2908447265625
0.041088867187499996
0.15227050781249998
0.18691406249999998
0.17644042968749998
0.0346435546875
0.04189453125
0.042700195312499994
0.0378662109375
0.0443115234375
0.8282226562499999
0.5349609375
3.0486328124999997
3.0470214843749996
3.04541015625
3.0486328124999997
3.0462158203125
3.0486328124999997
3.04541015625
3.0470214843749996
3.037353515625
3.01962890625
3.0486328124999997
3.043798828125
3.0204345703124997
2.940673828125
3.0470214843749996
3.050244140625
3.0486328124999997
3.043798828125
3.0470214843749996
1.98837890625
0.7822998046874999
0.041088867187499996
0.0394775390625
0.0475341796875
0.0475341796875
0.040283203125
0.042700195312499994
0.04189453125
0.04189453125
0.040283203125
0.1651611328125
0.0845947265625
0.15146484375
0.23203125
0.22880859374999998
0.04189453125
0.0378662109375
0.040283203125
0.041088867187499996
0.04189453125
0.0394775390625
1.364794921875
3.0470214843749996
3.0429931640624996
3.04541015625
3.050244140625
3.04541015625
3.0462158203125
3.0478271484375
3.0494384765625
3.0462158203125
3.050244140625
3.0462158203125
3.0574951171875
3.0462158203125
2.9970703125
3.0470214843749996
3.050244140625
3.0470214843749996
3.04541015625
3.0494384765625
3.050244140625
0.0362548828125
0.040283203125
0.0394775390625
0.042700195312499994
0.037060546874999996
0.040283203125
0.040283203125
0.041088867187499996
0.042700195312499994
0.043505859375
0.10957031249999999
0.30454101562499997
0.21269531249999998
0.3021240234375
0.30051269531249997
0.038671874999999994
0.041088867187499996
0.042700195312499994
0.041088867187499996
0.040283203125
0.043505859375
0.040283203125
3.0486328124999997
3.0486328124999997
3.0470214843749996
3.0470214843749996
3.050244140625
3.0470214843749996
3.0470214843749996
3.0478271484375
3.0462158203125
3.0486328124999997
3.0470214843749996
3.0462158203125
3.0494384765625
3.0429931640624996
3.0478271484375
3.0478271484375
3.0462158203125
3.0462158203125
3.0470214843749996
3.0510498046874996
3.0470214843749996
0.2634521484375
0.0394775390625
0.04189453125
0.041088867187499996
0.0443115234375
0.04189453125
0.040283203125
0.0394775390625
0.0394775390625
0.041088867187499996
0.037060546874999996
0.2183349609375
0.19497070312499998
0.2360595703125
0.072509765625
0.041088867187499996
0.04189453125
0.043505859375
0.041088867187499996
0.0394775390625
0.041088867187499996
1.7394287109375
3.043798828125
3.0462158203125
3.050244140625
3.043798828125
3.0494384765625
3.0486328124999997
3.04541015625
3.0462158203125
3.0470214843749996
3.0462158203125
3.043798828125
3.05185546875
3.0429931640624996
3.0462158203125
3.0462158203125
3.0470214843749996
3.043798828125
3.0429931640624996
3.0446044921874997
0.038671874999999994
0.1619384765625
0.042700195312499994
0.042700195312499994
0.041088867187499996
0.043505859375
0.037060546874999996
0.042700195312499994
0.041088867187499996
0.040283203125
0.041088867187499996
0.0652587890625
0.30051269531249997
0.21269531249999998
0.3158203125
0.3424072265625
0.043505859375
0.041088867187499996
0.0394775390625
0.04189453125
0.037060546874999996
0.04189453125
2.0488037109375
3.0470214843749996
3.0470214843749996
3.0486328124999997
3.0462158203125
3.0486328124999997
3.0470214843749996
3.04541015625
3.04541015625
3.0462158203125
3.0462158203125
3.0470214843749996
3.0462158203125
3.0349365234374996
3.0083496093749997
3.0486328124999997
3.0494384765625
3.04541015625
3.0462158203125
3.0486328124999997
3.0494384765625
1.5919921874999998
0.04189453125
0.041088867187499996
0.042700195312499994
0.0394775390625
0.041088867187499996
0.043505859375
0.041088867187499996
0.053173828124999996
0.040283203125
0.088623046875
0.04189453125
0.19094238281249998
0.207861328125
0.2578125
0.041088867187499996
0.040283203125
0.0378662109375
0.041088867187499996
0.037060546874999996
0.0394775390625
1.2503906249999999
3.0470214843749996
3.0470214843749996
3.0446044921874997
3.0478271484375
3.0429931640624996
3.050244140625
3.0462158203125
3.0510498046874996
3.0462158203125
3.05185546875
3.043798828125
3.0462158203125
3.0429931640624996
3.0147949218749996
3.04541015625
3.0446044921874997
3.0462158203125
3.0486328124999997
3.04541015625
3.0478271484375
1.0385009765625
0.0459228515625
0.038671874999999994
0.041088867187499996
0.041088867187499996
0.042700195312499994
0.0394775390625
0.045117187499999996
0.041088867187499996
0.040283203125
0.038671874999999994
0.045117187499999996
0.040283203125
0.185302734375
0.23122558593749998
0.0378662109375
0.0394775390625
0.040283203125
0.040283203125
0.040283203125
0.040283203125
0.0394775390625
3.0478271484375
3.0429931640624996
3.0478271484375
3.0486328124999997
3.0462158203125
3.0429931640624996
3.04541015625
3.0478271484375
3.0470214843749996
3.0462158203125
2.9688720703125
3.043798828125
3.0486328124999997
3.04541015625
2.96162109375
3.04541015625
3.0470214843749996
3.0429931640624996
3.0478271484375
1.087646484375
3.0429931640624996
0.75732421875
0.040283203125
0.043505859375
0.0378662109375
0.040283203125
0.042700195312499994
0.04189453125
0.0394775390625
0.0394775390625
0.04189453125
0.14824218749999998
0.103125
0.1716064453125
0.2513671875
0.2940673828125
0.042700195312499994
0.0394775390625
0.0378662109375
0.04189453125
0.040283203125
0.045117187499999996
1.6121337890624998
3.0478271484375
3.0462158203125
3.04541015625
3.0486328124999997
3.0470214843749996
3.050244140625
3.0462158203125
3.0494384765625
3.0462158203125
3.04541015625
3.0478271484375
3.050244140625
3.0446044921874997
2.9438964843749997
3.0462158203125
3.0478271484375
3.0405761718749997
3.0446044921874997
3.04541015625
3.0470214843749996
1.0409179687499999
0.04189453125
0.040283203125
0.041088867187499996
0.042700195312499994
0.043505859375
0.040283203125
0.0394775390625
0.04189453125
0.041088867187499996
0.0910400390625
0.0378662109375
0.19013671875
0.23928222656249998
0.294873046875
0.046728515624999994
0.038671874999999994
0.042700195312499994
0.040283203125
0.041088867187499996
0.038671874999999994
2.2147705078124997
3.0486328124999997
3.0446044921874997
3.0421875
3.0462158203125
3.0462158203125
3.0486328124999997
3.0478271484375
3.04541015625
3.0470214843749996
3.0478271484375
2.8689697265625
3.0446044921874997
3.0333251953125
2.9801513671874997
3.04541015625
3.0462158203125
3.0486328124999997
3.0478271484375
3.0470214843749996
3.0486328124999997
0.040283203125
0.0394775390625
0.043505859375
0.040283203125
0.043505859375
0.0378662109375
0.0394775390625
0.045117187499999996
0.040283203125
0.041088867187499996
0.042700195312499994
0.33515625
0.10957031249999999
0.21511230468749998
0.2296142578125
0.04189453125
0.04189453125
0.041088867187499996
0.040283203125
0.040283203125
0.0201416015625
0.038671874999999994
2.8157958984375
3.04541015625
3.04541015625
3.0462158203125
3.0462158203125
3.0486328124999997
3.0478271484375
3.0462158203125
3.0478271484375
3.0462158203125
3.0494384765625
3.0486328124999997
3.050244140625
3.0083496093749997
2.96162109375
3.0486328124999997
3.050244140625
3.0462158203125
3.0462158203125
3.0462158203125
3.050244140625
0.20463867187499998
0.041088867187499996
0.0346435546875
0.04189453125
0.0394775390625
0.040283203125
0.042700195312499994
0.041088867187499996
0.043505859375
0.04189453125
0.033032226562499996
0.1393798828125
0.24814453125
0.3101806640625
0.31662597656249997
0.0346435546875
0.041088867187499996
0.0394775390625
0.041088867187499996
0.040283203125
1.0852294921874999
1.8828369140624999
3.0470214843749996
3.0462158203125
3.0470214843749996
3.0478271484375
3.0462158203125
3.0478271484375
3.0462158203125
3.0494384765625
3.0470214843749996
3.05185546875
3.0421875
3.0478271484375
3.0139892578125
2.9261718749999996
3.0446044921874997
3.0486328124999997
3.0470214843749996
3.04541015625
3.0429931640624996
0.04189453125
0.04189453125
0.040283203125
0.0378662109375
0.040283203125
0.040283203125
0.0314208984375
0.040283203125
0.043505859375
0.040283203125
0.042700195312499994
0.103125
0.24733886718749998
0.133740234375
0.21511230468749998
0.2135009765625
0.04189453125
0.037060546874999996
0.0378662109375
0.0378662109375
0.042700195312499994
0.038671874999999994
1.0578369140625
3.0470214843749996
3.0462158203125
3.0486328124999997
3.0470214843749996
3.050244140625
3.0470214843749996
3.0478271484375
3.0421875
3.0470214843749996
3.0494384765625
3.050244140625
3.050244140625
3.04541015625
3.0268798828124996
3.0446044921874997
3.050244140625
3.0462158203125
3.050244140625
3.043798828125
3.0486328124999997
0.15227050781249998
0.04189453125
0.040283203125
0.0443115234375
0.037060546874999996
0.038671874999999994
0.0443115234375
0.042700195312499994
0.040283203125
0.0394775390625
0.0837890625
0.0523681640625
0.1877197265625
0.15468749999999998
0.26828613281249997
0.043505859375
0.041088867187499996
0.043505859375
0.041088867187499996
0.0394775390625
0.0394775390625
0.04189453125
3.0470214843749996
3.0486328124999997
3.0462158203125
3.0413818359375
3.0470214843749996
3.0462158203125
3.0470214843749996
3.0446044921874997
3.0470214843749996
3.0470214843749996
3.050244140625
3.050244140625
3.0462158203125
3.0284912109374997
3.04541015625
3.043798828125
3.0462158203125
3.050244140625
3.0470214843749996
3.0446044921874997
2.824658203125
0.22236328125
0.0378662109375
0.043505859375
0.0378662109375
0.0394775390625
0.041088867187499996
0.03544921875
0.0394775390625
0.0394775390625
0.041088867187499996
0.041088867187499996
0.1780517578125
0.22478027343749998
0.2731201171875
0.040283203125
0.041088867187499996
0.041088867187499996
0.040283203125
0.040283203125
0.4197509765625
0.041088867187499996
3.0478271484375
3.0478271484375
3.0494384765625
3.043798828125
3.05185546875
3.0470214843749996
3.04541015625
3.0470214843749996
3.0429931640624996
3.0478271484375
3.050244140625
3.037353515625
3.0478271484375
3.0244628906249997
3.04541015625
3.0470214843749996
3.04541015625
3.0470214843749996
3.0470214843749996
2.254248046875
1.1778808593749999
1.4389160156249998
0.040283203125
0.0394775390625
0.0459228515625
0.042700195312499994
0.04189453125
0.041088867187499996
0.042700195312499994
0.045117187499999996
0.040283203125
0.10151367187499999
0.2384765625
0.1973876953125
0.230419921875
0.038671874999999994
0.043505859375
0.040283203125
0.041088867187499996
0.038671874999999994
0.0378662109375
0.04189453125
2.255859375
3.0478271484375
3.0462158203125
3.0486328124999997
3.0486328124999997
3.0470214843749996
3.0470214843749996
3.0478271484375
3.0470214843749996
3.0486328124999997
3.0486328124999997
3.0486328124999997
3.0478271484375
3.043798828125
2.9914306640625
3.0494384765625
3.0494384765625
3.0470214843749996
3.0470214843749996
3.0446044921874997
3.0470214843749996
1.2431396484375
0.038671874999999994
0.038671874999999994
0.042700195312499994
0.0394775390625
0.0362548828125
0.0378662109375
0.0394775390625
0.0394775390625
0.040283203125
0.041088867187499996
0.04189453125
0.14421386718749998
0.1699951171875
0.2215576171875
0.038671874999999994
0.040283203125
0.0362548828125
0.041088867187499996
0.041088867187499996
0.043505859375
2.1696533203125
3.043798828125
3.0470214843749996
3.0462158203125
3.0389648437499996
3.0470214843749996
3.0494384765625
3.0486328124999997
3.0486328124999997
3.0446044921874997
3.0478271484375
2.9036132812499997
3.05185546875
3.0470214843749996
3.037353515625
3.0470214843749996
3.0470214843749996
3.0470214843749996
3.0486328124999997
3.0446044921874997
3.0478271484375
0.0394775390625
0.041088867187499996
0.0394775390625
0.040283203125
0.0378662109375
0.04189453125
0.041088867187499996
0.040283203125
0.0378662109375
0.038671874999999994
0.04833984375
0.21591796875
0.11359863281249999
0.19658203124999998
0.217529296875
0.041088867187499996
0.038671874999999994
0.04189453125
0.043505859375
0.04189453125
0.041088867187499996
0.040283203125
3.0478271484375
3.0486328124999997
3.04541015625
3.0470214843749996
3.0478271484375
3.0470214843749996
3.0470214843749996
3.0478271484375
3.0486328124999997
3.0462158203125
3.0486328124999997
3.04541015625
3.0478271484375
3.04541015625
2.9994873046875
3.0478271484375
3.0470214843749996
3.0429931640624996
3.0470214843749996
1.32451171875
3.0470214843749996
0.22719726562499998
0.0378662109375
0.0459228515625
0.040283203125
0.040283203125
0.0394775390625
0.0394775390625
0.0394775390625
0.0394775390625
0.043505859375
0.2505615234375
0.0668701171875
0.1538818359375
0.19013671875
0.15629882812499998
0.041088867187499996
0.043505859375
0.041088867187499996
0.040283203125
0.042700195312499994
0.6638671875
1.2262207031249999
3.0486328124999997
3.0429931640624996
3.0446044921874997
3.04541015625
3.0494384765625
3.0446044921874997
3.043798828125
3.0462158203125
3.0462158203125
3.04541015625
3.0470214843749996
3.0470214843749996
3.0510498046874996
3.0333251953125
3.043798828125
3.0470214843749996
3.050244140625
3.0429931640624996
3.0462158203125
2.2953369140624997
0.91201171875
0.040283203125
0.04189453125
0.041088867187499996
0.043505859375
0.038671874999999994
0.024169921875
0.038671874999999994
0.040283203125
0.0394775390625
0.049951171875
0.040283203125
0.09990234375
0.15791015625
0.1538818359375
0.040283203125
0.041088867187499996
0.0394775390625
0.041088867187499996
0.040283203125
0.04189453125
1.164990234375
3.0486328124999997
3.04541015625
3.050244140625
3.0462158203125
3.050244140625
3.0470214843749996
3.043798828125
3.04541015625
3.0470214843749996
3.0470214843749996
3.0429931640624996
3.0470214843749996
3.04541015625
3.011572265625
3.0494384765625
3.0478271484375
3.0421875
3.0470214843749996
3.04541015625
3.0486328124999997
0.040283203125
0.042700195312499994
0.040283203125
0.040283203125
0.040283203125
0.040283203125
0.0443115234375
0.0394775390625
0.04189453125
0.0394775390625
0.043505859375
0.29245605468749997
0.10151367187499999
0.11279296875
0.1377685546875
0.041088867187499996
0.041088867187499996
0.038671874999999994
0.042700195312499994
0.041088867187499996
0.042700195312499994
0.041088867187499996
3.0478271484375
3.0470214843749996
3.0470214843749996
3.0478271484375
3.0405761718749997
3.0478271484375
3.0470214843749996
3.043798828125
3.0486328124999997
3.0478271484375
3.0486328124999997
3.0486328124999997
3.0486328124999997
3.029296875
3.0405761718749997
3.0494384765625
3.0462158203125
3.0470214843749996
3.0470214843749996
3.0486328124999997
3.050244140625
0.049145507812499996
0.040283203125
0.042700195312499994
0.041088867187499996
0.04189453125
0.042700195312499994
0.0394775390625
0.0394775390625
0.041088867187499996
0.03544921875
0.0394775390625
0.078955078125
0.1232666015625
0.1345458984375
0.0394775390625
0.040283203125
0.0394775390625
0.040283203125
0.040283203125
0.8225830078124999
0.11440429687499999
2.4951416015624996
3.0462158203125
3.0470214843749996
3.04541015625
3.0446044921874997
3.0470214843749996
3.0486328124999997
3.0478271484375
3.0462158203125
3.0478271484375
3.0478271484375
3.0284912109374997
3.04541015625
3.04541015625
3.0059326171875
3.0470214843749996
3.0462158203125
3.0462158203125
3.0486328124999997
3.0478271484375
0.040283203125
0.391552734375
0.042700195312499994
0.0394775390625
0.040283203125
0.041088867187499996
0.040283203125
0.041088867187499996
0.038671874999999994
0.040283203125
0.04189453125
0.041088867187499996
0.1168212890625
0.042700195312499994
0.0878173828125
0.069287109375
0.043505859375
0.038671874999999994
0.04189453125
0.041088867187499996
0.04189453125
0.041088867187499996
1.73056640625
3.04541015625
3.0470214843749996
3.04541015625
3.0405761718749997
3.0494384765625
3.04541015625
3.0478271484375
3.0470214843749996
3.0486328124999997
3.04541015625
3.043798828125
3.043798828125
3.04541015625
3.0333251953125
3.0462158203125
3.04541015625
3.0470214843749996
3.04541015625
3.0494384765625
0.041088867187499996
0.69287109375
0.041088867187499996
0.04189453125
0.040283203125
0.0459228515625
0.04189453125
0.040283203125
0.0394775390625
0.038671874999999994
0.040283203125
0.046728515624999994
0.042700195312499994
0.107958984375
0.09023437499999999
0.09023437499999999
0.0378662109375
0.04189453125
0.0394775390625
0.040283203125
0.0394775390625
0.040283203125
2.5273681640624996
3.0478271484375
3.0462158203125
3.0470214843749996
3.0462158203125
3.04541015625
3.0494384765625
3.050244140625
3.0470214843749996
3.0478271484375
3.0462158203125
3.0462158203125
3.0470214843749996
3.0486328124999997
2.9946533203124996
3.04541015625
3.0478271484375
3.050244140625
3.050244140625
3.043798828125
3.0486328124999997
1.4872558593749998
0.04189453125
0.040283203125
0.033837890625
0.040283203125
0.0394775390625
0.041088867187499996
0.042700195312499994
0.04189453125
0.040283203125
0.0394775390625
0.042700195312499994
0.09748535156249999
0.043505859375
0.08056640625
0.041088867187499996
0.041088867187499996
0.0443115234375
0.041088867187499996
0.043505859375
0.5671875
0.0362548828125
3.0470214843749996
3.0470214843749996
3.0486328124999997
3.0470214843749996
3.0462158203125
3.0470214843749996
3.0478271484375
3.0462158203125
3.0462158203125
3.0494384765625
3.0470214843749996
3.04541015625
3.04541015625
3.0365478515624997
3.04541015625
3.0462158203125
3.0462158203125
3.0446044921874997
3.0470214843749996
1.2914794921875
2.7706787109374997
0.2280029296875
0.040283203125
0.041088867187499996
0.040283203125
0.03544921875
0.0443115234375
0.0394775390625
0.041088867187499996
0.0443115234375
0.040283203125
0.0394775390625
0.040283203125
0.041088867187499996
0.042700195312499994
0.0378662109375
0.041088867187499996
0.0362548828125
0.040283203125
0.041088867187499996
0.04189453125
0.0394775390625
3.043798828125
3.0494384765625
3.0486328124999997
3.0478271484375
3.0462158203125
3.0486328124999997
3.0470214843749996
3.0470214843749996
3.0470214843749996
3.0470214843749996
3.0470214843749996
3.0446044921874997
3.0405761718749997
3.0486328124999997
2.956787109375
3.0494384765625
3.04541015625
3.0462158203125
3.0446044921874997
3.0413818359375
3.0446044921874997
1.1077880859375
0.041088867187499996
0.038671874999999994
0.0475341796875
0.033032226562499996
0.043505859375
0.040283203125
0.041088867187499996
0.041088867187499996
0.041088867187499996
0.042700195312499994
0.040283203125
0.0926513671875
0.078955078125
0.120849609375
0.043505859375
0.041088867187499996
0.041088867187499996
0.040283203125
0.040283203125
0.043505859375
3.0470214843749996
3.0486328124999997
3.0486328124999997
3.0478271484375
3.0478271484375
3.0462158203125
3.04541015625
3.0446044921874997
3.043798828125
3.0494384765625
3.0421875
2.808544921875
3.0462158203125
3.0470214843749996
3.0462158203125
3.0462158203125
3.0429931640624996
3.0462158203125
3.0510498046874996
3.0478271484375
3.04541015625
0.0394775390625
0.0394775390625
0.042700195312499994
0.040283203125
0.041088867187499996
0.038671874999999994
0.0394775390625
0.0394775390625
0.0346435546875
0.0394775390625
0.046728515624999994
0.2972900390625
0.04189453125
0.0394775390625
0.0515625
0.040283203125
0.0394775390625
0.0394775390625
0.0394775390625
0.040283203125
0.0394775390625
0.042700195312499994
3.0486328124999997
3.04541015625
3.0470214843749996
3.0470214843749996
3.043798828125
3.0462158203125
3.0486328124999997
3.0462158203125
3.0478271484375
3.0462158203125
3.04541015625
3.0486328124999997
3.0526611328124997
3.0010986328125
3.0486328124999997
3.0446044921874997
3.0470214843749996
3.0470214843749996
3.043798828125
2.75537109375
3.0462158203125
0.3633544921875
0.042700195312499994
0.041088867187499996
0.0443115234375
0.0362548828125
0.042700195312499994
0.040283203125
0.040283203125
0.0394775390625
0.0394775390625
0.041088867187499996
0.040283203125
0.043505859375
0.0515625
0.043505859375
0.041088867187499996
0.041088867187499996
0.043505859375
0.0394775390625
0.0394775390625
1.869140625
0.958740234375
3.0486328124999997
3.04541015625
3.0462158203125
3.0429931640624996
3.0478271484375
3.0462158203125
3.0494384765625
3.04541015625
3.0470214843749996
3.04541015625
3.0462158203125
3.04541015625
3.0462158203125
3.0147949218749996
3.0478271484375
3.0462158203125
3.04541015625
3.0478271484375
3.0462158203125
0.24089355468749998
0.270703125
0.0394775390625
0.041088867187499996
0.040283203125
0.043505859375
0.0394775390625
0.0394775390625
0.042700195312499994
0.04189453125
0.040283203125
0.1490478515625
0.040283203125
0.07009277343749999
0.13212890624999998
0.09829101562499999
0.043505859375
0.040283203125
0.040283203125
0.038671874999999994
0.0394775390625
0.040283203125
1.5364013671874999
3.043798828125
3.0462158203125
3.0429931640624996
3.0462158203125
3.0413818359375
3.043798828125
3.0478271484375
3.0462158203125
3.0470214843749996
3.0462158203125
3.04541015625
3.0470214843749996
3.0446044921874997
3.0309082031249996
3.043798828125
3.0462158203125
3.0470214843749996
3.0462158203125
3.050244140625
1.786962890625
0.26022949218749997
0.0394775390625
0.041088867187499996
0.0394775390625
0.042700195312499994
0.041088867187499996
0.04189453125
0.040283203125
0.037060546874999996
0.04189453125
0.040283203125
0.058813476562499994
0.0966796875
0.0958740234375
0.08701171875
0.0443115234375
0.041088867187499996
0.043505859375
0.040283203125
0.0378662109375
0.0362548828125
0.23928222656249998
3.0470214843749996
3.0494384765625
3.0478271484375
3.0494384765625
3.0421875
3.0470214843749996
3.0470214843749996
3.0446044921874997
3.04541015625
3.0486328124999997
3.0462158203125
3.0462158203125
3.0462158203125
3.0228515624999996
3.04541015625
3.04541015625
3.0486328124999997
3.0470214843749996
3.0470214843749996
3.0478271484375
3.050244140625
0.3021240234375
0.0394775390625
0.038671874999999994
0.042700195312499994
