0.0394775390625
0.0443115234375
0.0346435546875
0.043505859375
0.0459228515625
0.04189453125
0.0394775390625
0.038671874999999994
0.1152099609375
0.18691406249999998
0.372216796875
0.375439453125
0.4568115234375
0.041088867187499996
0.040283203125
0.043505859375
0.038671874999999994
0.040283203125
0.038671874999999994
0.040283203125
2.5555664062499996
3.043798828125
3.0470214843749996
3.0462158203125
3.0446044921874997
3.04541015625
3.04541015625
3.0446044921874997
3.043798828125
3.0470214843749996
3.0462158203125
3.0446044921874997
3.043798828125
3.0478271484375
3.0470214843749996
3.0470214843749996
3.0470214843749996
3.0494384765625
3.050244140625
1.456640625
3.0446044921874997
0.8209716796875
0.0378662109375
0.0394775390625
0.038671874999999994
0.0394775390625
0.043505859375
0.038671874999999994
0.04189453125
0.0394775390625
0.11037597656249999
0.111181640625
0.1426025390625
0.252978515625
0.307763671875
0.043505859375
0.0362548828125
0.041088867187499996
0.041088867187499996
0.038671874999999994
0.042700195312499994
0.040283203125
2.38154296875
3.0470214843749996
3.0470214843749996
3.043798828125
3.050244140625
3.043798828125
3.0478271484375
3.0470214843749996
3.0470214843749996
3.0486328124999997
3.0470214843749996
3.0462158203125
3.037353515625
3.0268798828124996
2.9785400390624996
3.04541015625
3.0462158203125
3.0470214843749996
3.0470214843749996
3.0462158203125
0.59619140625
1.5025634765625
0.040283203125
0.038671874999999994
0.040283203125
0.0394775390625
0.040283203125
0.041088867187499996
0.040283203125
0.0394775390625
0.0362548828125
0.14018554687499998
0.0443115234375
0.223974609375
0.2972900390625
0.2876220703125
0.041088867187499996
0.041088867187499996
0.041088867187499996
0.037060546874999996
0.041088867187499996
0.040283203125
1.740234375
2.75537109375
3.0566894531249997
3.04541015625
3.0446044921874997
3.0486328124999997
3.0446044921874997
3.0470214843749996
3.0462158203125
3.0478271484375
3.04541015625
2.6949462890625
3.0494384765625
3.043798828125
3.0002929687499997
3.0470214843749996
3.0462158203125
3.0494384765625
3.043798828125
3.043798828125
3.04541015625
0.15227050781249998
0.111181640625
0.040283203125
0.040283203125
0.038671874999999994
0.040283203125
0.04189453125
0.0394775390625
0.0362548828125
0.0378662109375
0.0708984375
0.36899414062499997
0.13857421875
0.265869140625
0.285205078125
0.0394775390625
0.041088867187499996
0.0394775390625
0.0443115234375
0.040283203125
0.040283203125
0.0394775390625
2.370263671875
3.0470214843749996
3.0494384765625
3.050244140625
3.0470214843749996
3.04541015625
3.04541015625
3.0446044921874997
3.0421875
3.0486328124999997
3.0478271484375
3.0421875
3.043798828125
3.04541015625
3.0067382812499996
3.0486328124999997
3.04541015625
3.0446044921874997
3.0429931640624996
2.1551513671875
3.0462158203125
0.936181640625
0.04189453125
0.0378662109375
0.04189453125
0.040283203125
0.0378662109375
0.043505859375
0.0378662109375
0.0378662109375
0.111181640625
0.3673828125
0.08942871093749999
0.26425781249999997
0.269091796875
0.2441162109375
0.0443115234375
0.041088867187499996
0.0378662109375
0.0378662109375
0.0378662109375
0.042700195312499994
0.9603515625
3.0462158203125
3.0478271484375
3.0446044921874997
3.0470214843749996
3.0470214843749996
3.050244140625
3.0478271484375
3.0470214843749996
3.0462158203125
3.0470214843749996
3.0470214843749996
3.0429931640624996
3.021240234375
2.9704833984374996
3.0470214843749996
3.0470214843749996
3.0478271484375
3.0470214843749996
3.0470214843749996
3.0470214843749996
0.752490234375
0.042700195312499994
0.041088867187499996
0.040283203125
0.040283203125
0.0394775390625
0.041088867187499996
0.0394775390625
0.0394775390625
0.0394775390625
0.278759765625
0.198193359375
0.2513671875
0.29245605468749997
0.30051269531249997
0.037060546874999996
0.0378662109375
0.040283203125
0.04189453125
0.0394775390625
0.0394775390625
1.3309570312499999
2.9366455078125
3.04541015625
3.0510498046874996
3.043798828125
3.0462158203125
3.04541015625
3.0462158203125
3.0486328124999997
3.0470214843749996
3.0462158203125
2.9519531249999997
3.043798828125
3.04541015625
2.9978759765625
3.04541015625
3.0470214843749996
3.0470214843749996
3.0462158203125
3.0462158203125
3.0470214843749996
0.0362548828125
0.30615234375
0.040283203125
0.0394775390625
0.0378662109375
0.040283203125
0.04189453125
0.040283203125
0.04189453125
0.040283203125
0.04833984375
0.36496582031249997
0.21914062499999998
0.2457275390625
0.33515625
0.042700195312499994
0.0394775390625
0.040283203125
0.037060546874999996
0.040283203125
0.041088867187499996
0.038671874999999994
3.01962890625
3.0470214843749996
3.05185546875
3.0462158203125
3.0470214843749996
3.04541015625
3.0462158203125
3.04541015625
3.0429931640624996
3.0462158203125
3.0462158203125
3.034130859375
3.0462158203125
3.0365478515624997
3.0446044921874997
3.04541015625
3.0429931640624996
3.04541015625
3.0478271484375
3.0478271484375
3.0486328124999997
0.38591308593749996
0.041088867187499996
0.04189453125
0.041088867187499996
0.041088867187499996
0.040283203125
0.040283203125
0.040283203125
0.040283203125
0.058813476562499994
0.0443115234375
0.339990234375
0.33193359375
0.36093749999999997
0.22236328125
0.0394775390625
0.040283203125
0.040283203125
0.040283203125
0.0394775390625
0.038671874999999994
1.3333740234375
3.0462158203125
3.0429931640624996
3.0486328124999997
3.04541015625
3.0462158203125
3.04541015625
3.0486328124999997
3.0470214843749996
3.0462158203125
3.0446044921874997
3.0123779296874997
3.0462158203125
3.0462158203125
3.0478271484375
3.0470214843749996
3.0470214843749996
3.0333251953125
3.0429931640624996
3.043798828125
0.42539062499999997
0.207861328125
0.0394775390625
0.0378662109375
0.037060546874999996
0.041088867187499996
0.038671874999999994
0.038671874999999994
0.040283203125
0.04189453125
0.037060546874999996
0.141796875
0.3875244140625
0.2513671875
0.31743164062499996
0.3504638671875
0.04189453125
0.040283203125
0.040283203125
0.038671874999999994
0.040283203125
0.0394775390625
1.1851318359375
3.0446044921874997
3.0462158203125
3.0470214843749996
3.0462158203125
3.0446044921874997
3.0470214843749996
3.0462158203125
3.043798828125
3.0470214843749996
3.0446044921874997
3.053466796875
3.0478271484375
3.0462158203125
3.0381591796875
3.0429931640624996
3.0470214843749996
3.0421875
3.0470214843749996
3.04541015625
3.0470214843749996
0.0378662109375
0.3585205078125
0.038671874999999994
0.04189453125
0.040283203125
0.040283203125
0.0378662109375
0.037060546874999996
0.0394775390625
0.037060546874999996
0.103125
0.10231933593749999
0.23122558593749998
0.22316894531249998
0.2715087890625
0.041088867187499996
0.0378662109375
0.040283203125
0.0378662109375
0.040283203125
0.041088867187499996
0.042700195312499994
2.876220703125
3.0462158203125
3.0478271484375
3.04541015625
3.0462158203125
3.0429931640624996
3.0486328124999997
3.043798828125
3.04541015625
3.0470214843749996
3.0462158203125
3.0446044921874997
3.04541015625
3.04541015625
3.04541015625
3.043798828125
3.0462158203125
3.04541015625
3.043798828125
3.043798828125
3.0470214843749996
0.36899414062499997
0.041088867187499996
0.043505859375
0.040283203125
0.0378662109375
0.041088867187499996
0.04189453125
0.0362548828125
0.042700195312499994
0.12165527343749999
0.040283203125
0.2199462890625
0.33676757812499997
0.372216796875
0.042700195312499994
0.040283203125
0.041088867187499996
0.0378662109375
0.0394775390625
0.041088867187499996
0.040283203125
2.115673828125
3.0446044921874997
3.043798828125
3.04541015625
3.0413818359375
3.0470214843749996
3.0462158203125
3.0470214843749996
3.0462158203125
3.0462158203125
3.0470214843749996
3.0446044921874997
3.0462158203125
3.04541015625
3.0462158203125
3.050244140625
3.04541015625
3.0486328124999997
3.0494384765625
3.0421875
0.0362548828125
2.0036865234375
0.040283203125
0.037060546874999996
0.040283203125
0.040283203125
0.0362548828125
0.0394775390625
0.037060546874999996
0.033837890625
0.040283203125
0.1264892578125
0.36093749999999997
0.2384765625
0.291650390625
0.29245605468749997
0.038671874999999994
0.042700195312499994
0.041088867187499996
0.0394775390625
0.040283203125
0.040283203125
0.041088867187499996
3.0494384765625
3.0462158203125
3.0470214843749996
3.0421875
3.0429931640624996
3.0486328124999997
3.0429931640624996
3.04541015625
3.0478271484375
3.04541015625
3.0470214843749996
3.0478271484375
3.0405761718749997
3.0462158203125
3.04541015625
3.0462158203125
3.04541015625
3.0478271484375
3.0486328124999997
3.043798828125
0.694482421875
0.046728515624999994
0.0378662109375
0.042700195312499994
0.040283203125
0.040283203125
0.040283203125
0.037060546874999996
0.0394775390625
0.040283203125
0.0966796875
0.040283203125
0.23122558593749998
0.2698974609375
0.32548828124999996
0.040283203125
0.0394775390625
0.040283203125
0.041088867187499996
0.041088867187499996
0.040283203125
0.040283203125
2.8512451171874997
3.050244140625
3.04541015625
3.0486328124999997
3.0462158203125
3.0470214843749996
3.0486328124999997
3.0470214843749996
3.0429931640624996
3.0470214843749996
3.0462158203125
3.0462158203125
3.04541015625
3.0462158203125
3.04541015625
3.04541015625
3.0446044921874997
3.0478271484375
3.0446044921874997
3.0446044921874997
2.15595703125
0.20947265625
0.041088867187499996
0.038671874999999994
0.040283203125
0.0362548828125
0.0394775390625
0.038671874999999994
0.042700195312499994
0.0394775390625
0.12810058593749998
0.0378662109375
0.1168212890625
0.3101806640625
0.37705078124999997
0.041088867187499996
0.040283203125
0.040283203125
0.0394775390625
0.040283203125
0.040283203125
0.040283203125
2.7489257812499996
3.04541015625
3.0486328124999997
3.0462158203125
3.0462158203125
3.0494384765625
3.04541015625
3.0478271484375
3.04541015625
3.050244140625
3.0389648437499996
3.0462158203125
3.0470214843749996
3.0486328124999997
3.0204345703124997
3.04541015625
3.0446044921874997
3.04541015625
3.0462158203125
2.0133544921874997
2.4766113281249997
1.4381103515625
0.0346435546875
0.041088867187499996
0.041088867187499996
0.042700195312499994
0.0378662109375
0.041088867187499996
0.042700195312499994
0.037060546874999996
0.046728515624999994
0.0990966796875
0.043505859375
0.22478027343749998
0.29648437499999997
0.2972900390625
0.037060546874999996
0.0394775390625
0.046728515624999994
0.040283203125
0.040283203125
0.0362548828125
0.167578125
3.0486328124999997
3.043798828125
3.04541015625
3.0486328124999997
3.043798828125
3.0486328124999997
3.0486328124999997
3.0429931640624996
3.0462158203125
3.0478271484375
3.04541015625
3.0429931640624996
3.043798828125
2.9849853515625
3.0462158203125
3.0429931640624996
3.0462158203125
3.0421875
3.0446044921874997
3.0470214843749996
1.651611328125
0.0362548828125
0.041088867187499996
0.040283203125
0.043505859375
0.042700195312499994
0.040283203125
0.041088867187499996
0.040283203125
0.0394775390625
0.1039306640625
0.0362548828125
0.1998046875
0.2795654296875
0.2860107421875
0.0394775390625
0.0394775390625
0.040283203125
0.0443115234375
0.040283203125
0.041088867187499996
0.23525390624999998
2.8850830078125
3.043798828125
3.0470214843749996
3.0462158203125
3.0462158203125
3.0446044921874997
3.04541015625
3.0462158203125
3.0470214843749996
3.0494384765625
2.8222412109375
3.04541015625
3.0446044921874997
3.0027099609374996
3.0486328124999997
3.0462158203125
3.0429931640624996
3.0462158203125
3.0405761718749997
3.0446044921874997
0.20705566406249998
0.038671874999999994
0.041088867187499996
0.040283203125
0.040283203125
0.038671874999999994
0.040283203125
0.0394775390625
0.0394775390625
0.0394775390625
0.07734374999999999
0.36093749999999997
0.107958984375
0.2908447265625
0.36899414062499997
0.040283203125
0.038671874999999994
0.042700195312499994
0.040283203125
0.040283203125
0.0378662109375
0.0394775390625
2.7384521484374997
3.0446044921874997
3.050244140625
3.0478271484375
3.0494384765625
3.0470214843749996
3.0478271484375
3.0462158203125
3.0470214843749996
3.0470214843749996
2.9720947265624997
3.0462158203125
3.0510498046874996
3.0123779296874997
2.9737060546875
3.0478271484375
3.0429931640624996
3.0462158203125
3.0494384765625
1.405078125
3.0470214843749996
0.8902587890625
0.040283203125
0.040283203125
0.040283203125
0.038671874999999994
0.037060546874999996
0.0394775390625
0.04189453125
0.040283203125
0.116015625
0.2827880859375
0.16435546874999998
0.2102783203125
0.2513671875
0.278759765625
0.0394775390625
0.040283203125
0.04189453125
0.042700195312499994
0.042700195312499994
0.042700195312499994
0.0394775390625
2.8770263671875
3.0462158203125
3.0478271484375
3.0486328124999997
3.0462158203125
3.0446044921874997
3.0421875
3.0478271484375
3.0462158203125
3.04541015625
3.0462158203125
3.043798828125
3.0470214843749996
3.0002929687499997
3.050244140625
3.0478271484375
3.0486328124999997
3.0446044921874997
3.0462158203125
3.0470214843749996
0.0394775390625
0.0394775390625
0.041088867187499996
0.040283203125
0.04189453125
0.041088867187499996
0.042700195312499994
0.0394775390625
0.04189453125
0.0394775390625
0.13212890624999998
0.3391845703125
0.22880859374999998
0.30051269531249997
0.34562988281249996
0.0394775390625
0.041088867187499996
0.040283203125
0.040283203125
0.0394775390625
0.041088867187499996
0.0394775390625
2.7811523437499996
3.0421875
3.0486328124999997
3.0494384765625
3.0470214843749996
3.0462158203125
3.04541015625
3.0478271484375
3.0494384765625
3.0421875
2.9156982421874997
3.0462158203125
3.0486328124999997
3.0446044921874997
3.0486328124999997
3.0470214843749996
3.0470214843749996
3.0486328124999997
3.0470214843749996
3.0462158203125
3.0462158203125
0.040283203125
0.038671874999999994
0.0394775390625
0.040283203125
0.041088867187499996
0.0394775390625
0.0394775390625
0.038671874999999994
0.038671874999999994
0.12810058593749998
0.594580078125
0.26103515625
0.3101806640625
0.34079589843749997
0.042700195312499994
0.040283203125
0.042700195312499994
0.0378662109375
0.0378662109375
0.0443115234375
0.040283203125
3.0204345703124997
3.0486328124999997
3.0494384765625
3.0478271484375
3.0446044921874997
3.0486328124999997
3.0421875
3.0494384765625
3.043798828125
3.0470214843749996
3.0462158203125
2.98095703125
3.0470214843749996
3.04541015625
3.0002929687499997
3.04541015625
3.0486328124999997
3.0462158203125
3.0486328124999997
3.04541015625
3.0446044921874997
0.6856201171874999
0.041088867187499996
0.0378662109375
0.041088867187499996
0.0378662109375
0.040283203125
0.04189453125
0.0394775390625
0.041088867187499996
0.037060546874999996
0.0966796875
0.2876220703125
0.16677246093749998
0.2537841796875
0.2956787109375
0.041088867187499996
0.0394775390625
0.040283203125
0.040283203125
0.0394775390625
0.041088867187499996
0.10634765624999999
3.0325195312499997
3.0446044921874997
3.0446044921874997
3.0494384765625
3.0446044921874997
3.0486328124999997
3.043798828125
3.0429931640624996
3.0462158203125
3.0470214843749996
3.0462158203125
3.0470214843749996
3.0421875
3.0470214843749996
3.0429931640624996
3.0478271484375
3.0462158203125
3.04541015625
3.0470214843749996
2.222021484375
0.28681640625
0.46164550781249997
0.040283203125
0.0378662109375
0.04189453125
0.03544921875
0.0394775390625
0.040283203125
0.038671874999999994
0.040283203125
0.1458251953125
0.043505859375
0.25217285156249997
0.34079589843749997
0.31743164062499996
0.041088867187499996
0.0394775390625
0.0378662109375
0.041088867187499996
0.040283203125
0.041088867187499996
0.041088867187499996
3.0429931640624996
3.04541015625
3.0478271484375
3.0462158203125
3.0486328124999997
3.04541015625
3.0405761718749997
3.0470214843749996
3.0462158203125
3.04541015625
3.0478271484375
3.04541015625
3.0421875
3.029296875
3.0478271484375
3.0486328124999997
3.04541015625
3.0446044921874997
3.04541015625
3.0405761718749997
3.0470214843749996
0.23203125
0.038671874999999994
0.043505859375
0.038671874999999994
0.041088867187499996
0.043505859375
0.040283203125
0.0394775390625
0.038671874999999994
0.0378662109375
0.037060546874999996
0.26828613281249997
0.294873046875
0.33676757812499997
0.0394775390625
0.037060546874999996
0.0378662109375
0.040283203125
0.040283203125
0.0394775390625
0.043505859375
2.9302001953124996
3.0486328124999997
3.0470214843749996
3.0421875
3.0574951171875
3.0462158203125
3.0486328124999997
3.043798828125
3.0478271484375
3.0462158203125
3.04541015625
3.0486328124999997
3.04541015625
3.0421875
3.0446044921874997
3.04541015625
3.0486328124999997
3.0462158203125
3.043798828125
2.8335205078124996
3.043798828125
0.45761718749999997
0.0394775390625
0.041088867187499996
0.0394775390625
0.041088867187499996
0.0394775390625
0.0378662109375
0.041088867187499996
0.040283203125
0.0829833984375
0.0378662109375
0.21672363281249998
0.17644042968749998
0.262646484375
0.0378662109375
0.040283203125
0.038671874999999994
0.0394775390625
0.040283203125
0.043505859375
0.040283203125
1.1110107421875
3.0446044921874997
3.0510498046874996
3.0478271484375
3.043798828125
3.04541015625
3.0446044921874997
3.0462158203125
3.0486328124999997
3.0429931640624996
3.0462158203125
3.050244140625
3.04541015625
3.043798828125
3.037353515625
3.0510498046874996
3.0462158203125
3.0470214843749996
3.04541015625
3.050244140625
0.0394775390625
1.1738525390624999
0.09426269531249999
0.04189453125
0.0378662109375
0.042700195312499994
0.0443115234375
0.042700195312499994
0.0378662109375
0.0362548828125
0.041088867187499996
0.167578125
0.0362548828125
0.28681640625
0.362548828125
0.3633544921875
0.041088867187499996
0.0378662109375
0.04189453125
0.038671874999999994
0.037060546874999996
0.041088867187499996
0.0394775390625
3.0486328124999997
3.0494384765625
3.04541015625
3.0470214843749996
3.0470214843749996
3.0462158203125
3.043798828125
3.0421875
3.04541015625
3.0486328124999997
3.0421875
3.043798828125
3.04541015625
3.029296875
3.0486328124999997
3.0462158203125
3.0494384765625
3.0470214843749996
3.0470214843749996
3.0462158203125
1.5235107421874998
0.24169921875
0.0362548828125
0.040283203125
0.0394775390625
0.04189453125
0.0378662109375
0.0362548828125
0.043505859375
0.041088867187499996
0.04189453125
0.041088867187499996
0.270703125
0.240087890625
0.28037109374999997
0.0394775390625
0.040283203125
0.037060546874999996
0.0378662109375
0.040283203125
0.041088867187499996
0.040283203125
3.0486328124999997
3.0486328124999997
3.0421875
3.043798828125
3.0470214843749996
3.0470214843749996
3.04541015625
3.050244140625
3.0462158203125
3.04541015625
3.0486328124999997
3.04541015625
3.0470214843749996
3.0421875
3.0478271484375
3.0470214843749996
3.0470214843749996
3.0470214843749996
3.04541015625
1.5718505859374998
3.04541015625
0.7943847656249999
0.042700195312499994
0.0378662109375
0.0378662109375
0.0394775390625
0.04189453125
0.0459228515625
0.038671874999999994
0.040283203125
0.11037597656249999
0.041088867187499996
0.1007080078125
0.20866699218749998
0.2537841796875
0.041088867187499996
0.042700195312499994
0.043505859375
0.037060546874999996
0.040283203125
0.0394775390625
0.040283203125
2.21396484375
3.0470214843749996
3.0494384765625
3.0478271484375
3.0486328124999997
3.0470214843749996
3.0486328124999997
3.043798828125
3.0462158203125
3.0462158203125
3.0470214843749996
3.0478271484375
3.0139892578125
3.0325195312499997
3.0091552734375
3.050244140625
3.04541015625
3.0486328124999997
3.0486328124999997
3.0429931640624996
1.2318603515625
1.69833984375
0.037060546874999996
0.043505859375
0.040283203125
0.0394775390625
0.0394775390625
0.0394775390625
0.040283203125
0.0394775390625
0.04189453125
0.120849609375
0.0394775390625
0.21269531249999998
0.2537841796875
0.2666748046875
0.040283203125
0.038671874999999994
0.040283203125
0.0346435546875
0.043505859375
0.03544921875
1.9271484374999999
3.0462158203125
3.0478271484375
3.050244140625
3.0429931640624996
3.0478271484375
3.0470214843749996
3.0470214843749996
3.0462158203125
3.0478271484375
3.0462158203125
2.79404296875
3.050244140625
3.0389648437499996
3.018017578125
3.0462158203125
3.0462158203125
3.0462158203125
3.0478271484375
3.04541015625
3.043798828125
0.23686523437499998
0.20463867187499998
0.041088867187499996
0.042700195312499994
0.041088867187499996
0.041088867187499996
0.040283203125
0.040283203125
0.037060546874999996
0.043505859375
0.056396484375
0.362548828125
0.1635498046875
0.2296142578125
0.2376708984375
0.040283203125
0.040283203125
0.040283203125
0.041088867187499996
0.041088867187499996
0.040283203125
0.040283203125
2.75537109375
3.0462158203125
3.043798828125
3.0462158203125
3.04541015625
3.050244140625
3.04541015625
3.0478271484375
3.0446044921874997
3.0470214843749996
2.9720947265624997
3.050244140625
3.0421875
3.0284912109374997
3.0462158203125
3.0462158203125
3.0446044921874997
3.0446044921874997
3.0470214843749996
1.96904296875
3.0486328124999997
0.459228515625
0.041088867187499996
0.0459228515625
0.0394775390625
0.041088867187499996
0.04189453125
0.041088867187499996
0.0378662109375
0.040283203125
0.06606445312499999
0.0346435546875
0.041088867187499996
0.207861328125
0.23283691406249998
0.0362548828125
0.038671874999999994
0.041088867187499996
0.04189453125
0.03544921875
0.038671874999999994
0.0394775390625
2.454052734375
3.0478271484375
3.0462158203125
3.04541015625
3.0462158203125
3.0486328124999997
3.0470214843749996
3.0494384765625
3.0470214843749996
3.0470214843749996
2.9261718749999996
3.0421875
3.029296875
3.0357421875
3.003515625
3.0470214843749996
3.0486328124999997
3.04541015625
3.043798828125
3.04541015625
2.4564697265624997
0.9095947265625
0.040283203125
0.0378662109375
0.0394775390625
0.0378662109375
0.040283203125
0.0394775390625
0.042700195312499994
0.043505859375
0.038671874999999994
0.1941650390625
0.159521484375
0.23122558593749998
0.2989013671875
0.2892333984375
0.043505859375
0.040283203125
0.04189453125
0.040283203125
0.041088867187499996
0.038671874999999994
1.4542236328125
3.0067382812499996
3.0429931640624996
3.043798828125
3.0494384765625
3.0494384765625
3.0486328124999997
3.043798828125
3.04541015625
3.0470214843749996
3.0486328124999997
3.01318359375
3.0470214843749996
3.043798828125
3.0002929687499997
3.0462158203125
3.0462158203125
3.0470214843749996
3.050244140625
3.0486328124999997
3.0494384765625
0.040283203125
0.26103515625
0.040283203125
0.04189453125
0.040283203125
0.0394775390625
0.0394775390625
0.0362548828125
0.038671874999999994
0.04189453125
0.08056640625
0.4125
0.191748046875
0.269091796875
0.259423828125
0.040283203125
0.042700195312499994
0.040283203125
0.040283203125
0.0394775390625
0.03544921875
0.04189453125
2.38154296875
3.0446044921874997
3.0462158203125
3.0486328124999997
3.0470214843749996
3.043798828125
3.0486328124999997
3.04541015625
3.0446044921874997
3.0470214843749996
3.0446044921874997
3.043798828125
3.0470214843749996
3.0357421875
3.0462158203125
3.0478271484375
3.0470214843749996
3.0446044921874997
3.0429931640624996
3.04541015625
3.0470214843749996
0.20061035156249998
0.04189453125
0.038671874999999994
0.038671874999999994
0.0378662109375
0.0394775390625
0.0394775390625
0.040283203125
0.03544921875
0.043505859375
0.0394775390625
0.1635498046875
0.233642578125
0.2384765625
0.0394775390625
0.0394775390625
0.045117187499999996
0.0394775390625
0.0394775390625
0.040283203125
0.040283203125
2.75537109375
3.0478271484375
3.0462158203125
3.0470214843749996
3.0478271484375
3.0446044921874997
3.0494384765625
3.0462158203125
3.04541015625
3.0462158203125
3.04541015625
3.0462158203125
3.0470214843749996
3.0462158203125
3.0309082031249996
3.0486328124999997
3.050244140625
3.037353515625
3.0470214843749996
3.043798828125
0.78310546875
0.33515625
0.042700195312499994
0.040283203125
0.041088867187499996
0.03544921875
0.038671874999999994
0.042700195312499994
0.041088867187499996
0.040283203125
0.0394775390625
0.3391845703125
0.35771484374999996
0.233642578125
0.31662597656249997
0.3198486328125
0.041088867187499996
0.040283203125
0.04189453125
0.040283203125
0.040283203125
0.0378662109375
1.0771728515624999
3.0478271484375
3.0462158203125
3.04541015625
3.0470214843749996
3.0478271484375
3.04541015625
3.04541015625
3.0486328124999997
3.0486328124999997
3.04541015625
3.0486328124999997
3.0099609375
3.0059326171875
2.98095703125
3.0478271484375
3.0446044921874997
3.0478271484375
3.0470214843749996
3.043798828125
3.0486328124999997
0.0378662109375
0.3520751953125
0.045117187499999996
0.0378662109375
0.038671874999999994
0.042700195312499994
0.041088867187499996
0.038671874999999994
0.040283203125
0.041088867187499996
0.0749267578125
0.064453125
0.2280029296875
0.2634521484375
0.285205078125
0.040283203125
0.041088867187499996
0.037060546874999996
0.04189453125
0.042700195312499994
0.037060546874999996
0.040283203125
2.8496337890624996
3.0470214843749996
3.04541015625
3.0470214843749996
3.0470214843749996
3.04541015625
3.04541015625
3.0470214843749996
3.043798828125
3.050244140625
3.0446044921874997
3.0421875
3.0301025390625
3.0301025390625
3.04541015625
3.043798828125
3.043798828125
3.0470214843749996
3.04541015625
3.043798828125
3.050244140625
0.55107421875
0.03544921875
0.03544921875
0.042700195312499994
0.0394775390625
0.0378662109375
0.040283203125
0.041088867187499996
0.04189453125
0.033032226562499996
0.041088867187499996
0.1812744140625
0.2384765625
0.275537109375
0.04189453125
0.0378662109375
0.040283203125
0.041088867187499996
0.041088867187499996
0.040283203125
0.040283203125
1.8216064453124998
3.0462158203125
3.0421875
3.0470214843749996
3.04541015625
3.0470214843749996
3.0462158203125
3.0462158203125
3.0486328124999997
3.0462158203125
3.0470214843749996
3.0446044921874997
3.0486328124999997
3.043798828125
3.0486328124999997
3.0462158203125
3.0470214843749996
3.0486328124999997
3.0470214843749996
3.0494384765625
0.0394775390625
0.2263916015625
0.040283203125
0.04189453125
0.0378662109375
0.04189453125
0.037060546874999996
0.041088867187499996
0.041088867187499996
0.0394775390625
0.041088867187499996
0.0845947265625
0.33757324218749996
0.20866699218749998
0.2505615234375
0.091845703125
0.040283203125
0.041088867187499996
0.038671874999999994
0.041088867187499996
0.038671874999999994
0.038671874999999994
0.038671874999999994
3.0446044921874997
3.0429931640624996
3.0470214843749996
3.0494384765625
3.0470214843749996
3.0478271484375
3.0462158203125
3.0470214843749996
3.0462158203125
3.0446044921874997
3.0526611328124997
3.0429931640624996
3.0421875
3.0156005859375
3.0478271484375
3.0429931640624996
3.0486328124999997
3.0486328124999997
3.0446044921874997
3.0462158203125
0.6372802734374999
0.14421386718749998
0.0394775390625
0.043505859375
0.040283203125
0.040283203125
0.040283203125
0.043505859375
0.0394775390625
0.040283203125
0.038671874999999994
0.043505859375
0.18852539062499998
0.2022216796875
0.2505615234375
0.040283203125
0.038671874999999994
0.040283203125
0.041088867187499996
0.041088867187499996
0.041088867187499996
0.041088867187499996
2.969677734375
3.0462158203125
3.04541015625
3.0470214843749996
3.0526611328124997
3.050244140625
3.0462158203125
3.0478271484375
3.04541015625
3.0478271484375
3.029296875
3.0494384765625
3.0470214843749996
3.0309082031249996
3.04541015625
3.0478271484375
3.0494384765625
3.0494384765625
3.0462158203125
1.353515625
2.2292724609375
0.22316894531249998
0.040283203125
0.041088867187499996
0.038671874999999994
0.040283203125
0.0394775390625
0.04189453125
0.041088867187499996
0.038671874999999994
0.08056640625
0.0362548828125
0.061230468749999996
0.2553955078125
0.29245605468749997
0.041088867187499996
0.038671874999999994
0.041088867187499996
0.040283203125
0.040283203125
0.0362548828125
0.043505859375
2.3775146484375
3.0486328124999997
3.0429931640624996
3.04541015625
3.0478271484375
3.0470214843749996
3.04541015625
3.04541015625
3.04541015625
3.04541015625
3.0494384765625
3.050244140625
3.043798828125
3.0397705078125
3.027685546875
3.0486328124999997
3.0486328124999997
3.0470214843749996
3.05185546875
2.0375244140624997
1.5347900390625
1.327734375
0.040283203125
0.042700195312499994
0.043505859375
0.04189453125
0.040283203125
0.041088867187499996
0.0378662109375
0.0394775390625
0.04189453125
0.10634765624999999
0.041088867187499996
0.252978515625
0.281982421875
0.3158203125
0.037060546874999996
0.037060546874999996
0.038671874999999994
0.0394775390625
0.041088867187499996
0.041088867187499996
1.0973144531249999
3.043798828125
3.0446044921874997
3.04541015625
3.0486328124999997
3.04541015625
3.0470214843749996
3.04541015625
3.04541015625
3.0470214843749996
3.0470214843749996
2.882666015625
3.04541015625
3.0429931640624996
3.0462158203125
3.0389648437499996
3.04541015625
3.043798828125
3.0470214843749996
3.0470214843749996
3.0429931640624996
0.040283203125
0.0555908203125
0.0394775390625
0.03544921875
0.0378662109375
0.038671874999999994
0.0394775390625
0.038671874999999994
0.0394775390625
0.041088867187499996
0.08137207031249999
0.4358642578125
0.16677246093749998
0.2344482421875
0.23203125
0.040283203125
0.041088867187499996
0.040283203125
0.037060546874999996
0.04189453125
0.040283203125
0.038671874999999994
2.9769287109375
3.0462158203125
3.0470214843749996
3.0494384765625
3.0446044921874997
3.04541015625
3.0470214843749996
3.0486328124999997
3.0470214843749996
3.0478271484375
2.8850830078125
3.04541015625
3.0486328124999997
3.0446044921874997
3.0470214843749996
3.0462158203125
3.0494384765625
3.04541015625
3.0446044921874997
3.0462158203125
3.043798828125
0.041088867187499996
0.04189453125
0.040283203125
0.038671874999999994
0.049951171875
0.0394775390625
0.0394775390625
0.040283203125
0.0394775390625
0.038671874999999994
0.34160156249999996
0.08540039062499999
0.24895019531249998
0.2795654296875
0.03544921875
0.0394775390625
0.040283203125
0.038671874999999994
0.04189453125
0.03544921875
0.0394775390625
2.53623046875
3.0462158203125
3.0470214843749996
3.0470214843749996
3.0470214843749996
3.043798828125
3.04541015625
3.0486328124999997
3.0462158203125
3.0462158203125
3.0462158203125
3.0462158203125
3.0446044921874997
3.0486328124999997
3.043798828125
3.04541015625
3.0470214843749996
3.04541015625
3.043798828125
3.0470214843749996
3.0470214843749996
0.8040527343749999
0.040283203125
0.042700195312499994
0.0394775390625
0.038671874999999994
0.041088867187499996
0.0362548828125
0.041088867187499996
0.0378662109375
0.0394775390625
0.3117919921875
0.1554931640625
0.1490478515625
0.19013671875
0.20625
0.0362548828125
0.0394775390625
0.0394775390625
0.040283203125
0.037060546874999996
0.040283203125
0.040283203125
2.80048828125
3.04541015625
3.0446044921874997
3.04541015625
3.0462158203125
3.0462158203125
3.0462158203125
3.043798828125
3.0470214843749996
3.043798828125
3.0470214843749996
3.04541015625
3.04541015625
3.0429931640624996
3.0470214843749996
3.0462158203125
3.04541015625
3.0462158203125
3.043798828125
3.0478271484375
0.0394775390625
0.348046875
0.038671874999999994
0.040283203125
0.040283203125
0.0378662109375
0.0394775390625
0.0394775390625
0.037060546874999996
0.040283203125
0.1039306640625
0.22316894531249998
0.2779541015625
0.28439941406249997
0.339990234375
0.041088867187499996
0.041088867187499996
0.04833984375
0.042700195312499994
0.0394775390625
0.043505859375
0.040283203125
2.9100585937499996
3.0470214843749996
3.0462158203125
3.0478271484375
3.0494384765625
3.0478271484375
3.04541015625
3.0429931640624996
3.0470214843749996
3.0462158203125
3.0470214843749996
3.0446044921874997
3.043798828125
3.0446044921874997
3.0470214843749996
3.04541015625
3.043798828125
3.0470214843749996
3.04541015625
3.0470214843749996
3.0470214843749996
0.28439941406249997
0.04189453125
0.0394775390625
0.0362548828125
0.0378662109375
0.0378662109375
0.04189453125
0.0394775390625
0.0394775390625
0.040283203125
0.0362548828125
0.252978515625
0.23122558593749998
0.26103515625
0.041088867187499996
0.042700195312499994
0.0394775390625
0.041088867187499996
0.040283203125
0.0394775390625
0.041088867187499996
1.7345947265625
3.0470214843749996
3.050244140625
3.0429931640624996
3.0478271484375
3.0462158203125
3.050244140625
3.04541015625
3.0478271484375
3.0470214843749996
3.0421875
2.9801513671874997
3.0478271484375
3.0413818359375
3.0421875
3.043798828125
3.0470214843749996
3.04541015625
3.0470214843749996
3.0478271484375
0.042700195312499994
0.4358642578125
0.040283203125
0.0378662109375
0.0362548828125
0.040283203125
0.041088867187499996
0.0394775390625
0.0394775390625
0.038671874999999994
0.040283203125
0.091845703125
0.3262939453125
0.230419921875
0.314208984375
0.3198486328125
0.0378662109375
0.038671874999999994
0.040283203125
0.038671874999999994
0.04189453125
0.040283203125
0.58974609375
3.04541015625
3.043798828125
3.04541015625
3.0429931640624996
3.0470214843749996
3.0470214843749996
3.04541015625
3.0478271484375
3.04541015625
3.0470214843749996
3.0462158203125
3.0494384765625
3.0478271484375
3.0429931640624996
3.0462158203125
3.0470214843749996
3.0478271484375
3.04541015625
3.04541015625
3.0421875
0.7677978515624999
0.40202636718749996
0.04189453125
0.0378662109375
0.040283203125
0.04189453125
0.0378662109375
0.041088867187499996
0.0394775390625
0.040283203125
0.09748535156249999
0.0394775390625
0.2827880859375
0.3182373046875
0.3279052734375
0.038671874999999994
0.0394775390625
0.04189453125
0.0394775390625
0.040283203125
0.045117187499999996
0.043505859375
3.0462158203125
3.0470214843749996
3.050244140625
3.0462158203125
3.0478271484375
3.050244140625
3.0462158203125
3.0486328124999997
3.04541015625
3.04541015625
3.0478271484375
3.0462158203125
3.0470214843749996
3.037353515625
3.0470214843749996
3.04541015625
3.050244140625
3.0470214843749996
3.04541015625
3.0462158203125
2.963232421875
0.175634765625
0.0378662109375
0.041088867187499996
0.040283203125
0.0394775390625
0.040283203125
0.040283203125
0.041088867187499996
0.040283203125
0.0845947265625
0.038671874999999994
0.0717041015625
0.2650634765625
0.29648437499999997
0.041088867187499996
0.037060546874999996
0.041088867187499996
0.041088867187499996
0.038671874999999994
0.043505859375
0.041088867187499996
1.944873046875
3.0470214843749996
3.0470214843749996
3.043798828125
3.0462158203125
3.0446044921874997
3.043798828125
3.04541015625
3.0470214843749996
3.04541015625
3.04541015625
3.04541015625
3.0470214843749996
3.0446044921874997
3.043798828125
3.0478271484375
3.0470214843749996
3.0470214843749996
3.0389648437499996
2.32998046875
0.57041015625
1.63388671875
0.041088867187499996
0.0394775390625
0.04189453125
0.040283203125
0.0378662109375
0.042700195312499994
0.042700195312499994
0.0394775390625
0.09990234375
0.069287109375
0.1619384765625
0.249755859375
0.322265625
0.2972900390625
0.042700195312499994
0.040283203125
0.041088867187499996
0.043505859375
0.041088867187499996
0.0378662109375
0.887841796875
3.0470214843749996
3.04541015625
3.0478271484375
3.0486328124999997
3.0470214843749996
3.04541015625
3.0486328124999997
3.0470214843749996
3.04541015625
3.04541015625
3.0462158203125
3.0429931640624996
3.0478271484375
3.043798828125
3.0462158203125
3.0470214843749996
3.043798828125
3.043798828125
3.0462158203125
3.04541015625
1.43408203125
0.0378662109375
0.0443115234375
0.0378662109375
0.041088867187499996
0.042700195312499994
0.038671874999999994
0.040283203125
0.038671874999999994
0.038671874999999994
0.11923828125
0.042700195312499994
0.24169921875
0.2876220703125
0.34160156249999996
0.040283203125
0.040283203125
0.04189453125
0.043505859375
0.040283203125
0.038671874999999994
0.4245849609375
2.9592041015625
3.04541015625
3.0462158203125
3.0462158203125
3.0470214843749996
3.0470214843749996
3.0462158203125
3.0470214843749996
3.0470214843749996
3.050244140625
2.83271484375
3.04541015625
3.0413818359375
3.04541015625
3.0470214843749996
3.04541015625
3.04541015625
3.04541015625
3.0478271484375
2.7561767578125
0.6654785156249999
0.04189453125
0.0378662109375
0.038671874999999994
0.040283203125
0.0378662109375
0.041088867187499996
0.038671874999999994
0.041088867187499996
0.0443115234375
0.057202148437499996
0.2956787109375
0.1007080078125
0.281982421875
0.301318359375
0.0394775390625
0.0378662109375
0.040283203125
0.0394775390625
0.040283203125
0.040283203125
0.040283203125
2.7739013671875
3.0470214843749996
3.0478271484375
3.0446044921874997
3.0470214843749996
3.043798828125
3.0421875
3.0462158203125
3.0470214843749996
3.0470214843749996
2.9583984374999996
3.0486328124999997
3.050244140625
3.01318359375
2.9656494140625
3.0470214843749996
3.0486328124999997
3.0470214843749996
3.0470214843749996
1.4397216796874999
3.043798828125
1.3253173828125
0.0394775390625
0.045117187499999996
0.0394775390625
0.042700195312499994
0.041088867187499996
0.041088867187499996
0.040283203125
0.0394775390625
0.12246093749999999
0.3021240234375
0.18369140625
0.1893310546875
0.20705566406249998
0.201416015625
0.041088867187499996
0.040283203125
0.040283203125
0.0378662109375
0.040283203125
0.038671874999999994
0.038671874999999994
3.0301025390625
3.0486328124999997
3.0462158203125
3.0462158203125
3.0470214843749996
3.0429931640624996
3.04541015625
3.0462158203125
3.0462158203125
3.0470214843749996
3.0470214843749996
3.0462158203125
3.0478271484375
3.0365478515624997
3.043798828125
3.050244140625
3.04541015625
3.0486328124999997
3.0429931640624996
3.0462158203125
0.0394775390625
0.038671874999999994
0.040283203125
0.0394775390625
0.037060546874999996
0.0394775390625
0.040283203125
0.037060546874999996
0.041088867187499996
0.038671874999999994
0.12810058593749998
0.0459228515625
0.198193359375
0.3037353515625
0.2811767578125
0.040283203125
0.038671874999999994
0.038671874999999994
0.040283203125
0.041088867187499996
0.033837890625
0.0443115234375
3.0429931640624996
3.0462158203125
3.04541015625
3.0462158203125
3.0462158203125
3.0446044921874997
3.0470214843749996
3.0478271484375
3.0486328124999997
3.0494384765625
2.8359375
3.050244140625
3.04541015625
3.0446044921874997
3.0470214843749996
3.0470214843749996
3.04541015625
3.04541015625
3.0446044921874997
3.0510498046874996
0.040283203125
0.0443115234375
0.040283203125
0.04189453125
0.041088867187499996
0.037060546874999996
0.0394775390625
0.03544921875
0.040283203125
0.0394775390625
0.040283203125
0.459228515625
0.201416015625
0.2505615234375
0.2586181640625
0.04189453125
0.040283203125
0.041088867187499996
0.042700195312499994
0.038671874999999994
0.041088867187499996
0.041088867187499996
2.6876953125
3.0470214843749996
3.0462158203125
3.04541015625
3.0486328124999997
3.0462158203125
3.050244140625
3.0470214843749996
3.0470214843749996
3.04541015625
3.0470214843749996
3.0147949218749996
3.0486328124999997
3.043798828125
3.0284912109374997
3.0470214843749996
3.0429931640624996
3.0429931640624996
3.0462158203125
3.0446044921874997
3.04541015625
0.6131103515624999
0.043505859375
0.041088867187499996
0.0394775390625
0.0394775390625
0.0378662109375
0.040283203125
0.040283203125
0.037060546874999996
0.043505859375
0.0580078125
0.307763671875
0.21672363281249998
0.23686523437499998
0.2344482421875
0.04189453125
0.041088867187499996
0.0394775390625
0.040283203125
0.038671874999999994
0.041088867187499996
0.6380859375
3.0421875
3.0494384765625
3.04541015625
3.0470214843749996
3.04541015625
3.0462158203125
3.0421875
3.0462158203125
3.043798828125
3.0478271484375
3.043798828125
3.043798828125
3.04541015625
3.0486328124999997
3.0470214843749996
3.0478271484375
3.043798828125
3.0462158203125
3.0494384765625
1.6209960937499999
0.610693359375
0.043505859375
0.043505859375
0.040283203125
0.040283203125
0.0443115234375
0.040283203125
0.040283203125
0.040283203125
0.041088867187499996
0.1611328125
0.043505859375
0.2586181640625
0.33354492187499996
0.3230712890625
0.037060546874999996
0.033032226562499996
0.0394775390625
0.0459228515625
0.042700195312499994
0.0394775390625
0.04189453125
3.0381591796875
3.0462158203125
3.04541015625
3.0510498046874996
3.04541015625
3.0462158203125
3.0486328124999997
3.0470214843749996
3.0446044921874997
3.0486328124999997
3.0462158203125
3.0462158203125
3.0470214843749996
3.0421875
3.0486328124999997
3.0486328124999997
3.04541015625
3.0462158203125
3.0478271484375
3.0429931640624996
0.0362548828125
0.4084716796875
0.041088867187499996
0.0394775390625
0.040283203125
0.0394775390625
0.04189453125
0.0394775390625
0.04189453125
0.040283203125
0.0443115234375
0.1474365234375
0.240087890625
0.23122558593749998
0.28359375
0.03544921875
0.038671874999999994
0.0394775390625
0.040283203125
0.042700195312499994
0.041088867187499996
0.0394775390625
2.9036132812499997
3.0478271484375
3.0462158203125
3.0462158203125
3.0494384765625
3.0462158203125
3.043798828125
3.0429931640624996
3.0486328124999997
3.0429931640624996
3.0462158203125
3.0446044921874997
3.0429931640624996
3.0462158203125
3.0470214843749996
3.0486328124999997
3.0478271484375
3.0462158203125
3.04541015625
2.6804443359374996
3.0486328124999997
0.42136230468749997
0.040283203125
0.043505859375
0.040283203125
0.040283203125
0.0378662109375
0.040283203125
0.040283203125
0.0394775390625
0.0459228515625
0.0394775390625
0.26748046875
0.24169921875
0.2747314453125
0.04189453125
0.0362548828125
0.041088867187499996
0.037060546874999996
0.040283203125
0.040283203125
0.0394775390625
1.5146484375
3.0462158203125
3.0462158203125
3.0486328124999997
3.0486328124999997
3.0421875
3.0494384765625
3.0446044921874997
3.0470214843749996
3.04541015625
3.0462158203125
3.0478271484375
3.0429931640624996
3.0470214843749996
3.037353515625
3.0429931640624996
3.0462158203125
3.043798828125
3.0470214843749996
3.04541015625
0.041088867187499996
1.9505126953124998
0.0749267578125
0.045117187499999996
0.0394775390625
0.040283203125
0.037060546874999996
0.041088867187499996
0.0394775390625
0.040283203125
0.0394775390625
0.16032714843749998
0.0394775390625
0.2553955078125
0.327099609375
0.3262939453125
0.042700195312499994
0.0394775390625
0.038671874999999994
0.0378662109375
0.0394775390625
0.040283203125
0.0378662109375
2.7787353515624997
3.0397705078125
3.050244140625
3.0478271484375
3.0462158203125
3.0462158203125
3.0462158203125
3.0470214843749996
3.04541015625
3.0478271484375
2.9680664062499997
3.0462158203125
3.0478271484375
3.0446044921874997
3.0494384765625
3.0486328124999997
3.0478271484375
3.04541015625
3.0462158203125
3.0462158203125
1.0481689453125
0.3037353515625
0.038671874999999994
0.040283203125
0.040283203125
0.040283203125
0.04189453125
0.040283203125
0.0620361328125
0.040283203125
0.042700195312499994
0.040283203125
0.24492187499999998
0.2199462890625
0.2698974609375
0.0362548828125
0.040283203125
0.040283203125
0.040283203125
0.04189453125
0.040283203125
0.041088867187499996
3.0421875
3.0494384765625
3.0478271484375
3.0494384765625
3.0470214843749996
3.0478271484375
3.043798828125
3.0446044921874997
3.0494384765625
3.050244140625
3.04541015625
3.0446044921874997
3.04541015625
3.0413818359375
3.0470214843749996
3.0421875
3.0462158203125
3.0486328124999997
3.0462158203125
1.3390136718749999
3.050244140625
0.475341796875
0.0394775390625
0.040283203125
0.040283203125
0.040283203125
0.0362548828125
0.04189453125
0.041088867187499996
0.040283203125
0.072509765625
0.041088867187499996
0.0668701171875
0.2618408203125
0.31743164062499996
0.0378662109375
0.0394775390625
0.040283203125
0.038671874999999994
0.0362548828125
0.0394775390625
0.043505859375
2.292919921875
3.0478271484375
3.04541015625
3.0478271484375
3.0478271484375
3.0478271484375
3.04541015625
3.0478271484375
3.04541015625
3.043798828125
3.0470214843749996
3.0429931640624996
3.043798828125
3.04541015625
3.0188232421874996
3.0478271484375
3.043798828125
3.0462158203125
3.0494384765625
3.0470214843749996
2.018994140625
1.5734619140625
0.04189453125
0.038671874999999994
0.045117187499999996
0.040283203125
0.04189453125
0.04189453125
0.041088867187499996
0.04189453125
0.040283203125
0.141796875
0.042700195312499994
0.1941650390625
0.298095703125
0.31904296875
0.040283203125
0.040283203125
0.040283203125
0.041088867187499996
0.040283203125
0.040283203125
0.8628662109374999
2.666748046875
3.04541015625
3.04541015625
3.0462158203125
3.0478271484375
3.04541015625
3.0462158203125
3.0470214843749996
3.0494384765625
3.0486328124999997
2.8053222656249996
3.04541015625
3.0462158203125
3.0429931640624996
3.0542724609375
3.05185546875
3.0470214843749996
3.0429931640624996
3.04541015625
3.0526611328124997
0.042700195312499994
0.0829833984375
0.0378662109375
0.042700195312499994
0.0394775390625
0.038671874999999994
0.0378662109375
0.0394775390625
0.038671874999999994
0.040283203125
0.08620605468749999
0.47453613281249996
0.17724609375
0.20947265625
0.23686523437499998
0.04189453125
0.040283203125
0.0346435546875
0.038671874999999994
0.04189453125
0.038671874999999994
0.041088867187499996
2.6603027343749996
3.0526611328124997
3.0470214843749996
3.0486328124999997
3.0470214843749996
3.0494384765625
3.0462158203125
3.043798828125
3.0486328124999997
3.04541015625
2.8109619140624997
3.04541015625
3.04541015625
3.0244628906249997
3.0462158203125
3.04541015625
3.0470214843749996
3.0478271484375
3.05185546875
2.9680664062499997
3.0462158203125
0.1297119140625
0.03544921875
0.0362548828125
0.043505859375
0.040283203125
0.0378662109375
0.0378662109375
0.040283203125
0.041088867187499996
0.043505859375
0.3746337890625
0.1200439453125
0.31340332031249996
0.32145996093749996
0.037060546874999996
0.042700195312499994
0.04189453125
0.040283203125
0.040283203125
0.037060546874999996
0.042700195312499994
2.59423828125
3.0470214843749996
3.0381591796875
3.04541015625
3.0446044921874997
3.04541015625
3.0486328124999997
3.0478271484375
3.0446044921874997
3.0462158203125
3.0462158203125
3.0446044921874997
3.0470214843749996
3.0486328124999997
3.0244628906249997
3.0470214843749996
3.04541015625
3.0486328124999997
3.04541015625
3.0470214843749996
3.0446044921874997
0.79921875
0.041088867187499996
0.0362548828125
0.04189453125
0.0378662109375
0.0362548828125
0.0394775390625
0.04189453125
0.0378662109375
0.040283203125
0.372216796875
0.291650390625
0.23686523437499998
0.307763671875
0.330322265625
0.040283203125
0.041088867187499996
0.0394775390625
0.041088867187499996
0.037060546874999996
0.0394775390625
0.7959960937499999
2.9753173828125
3.0478271484375
3.0462158203125
3.0462158203125
3.0470214843749996
3.0446044921874997
3.0478271484375
3.0470214843749996
3.0462158203125
3.0446044921874997
3.0470214843749996
3.0486328124999997
3.043798828125
3.0429931640624996
3.043798828125
3.0470214843749996
3.0470214843749996
3.0462158203125
3.0478271484375
3.0462158203125
0.0394775390625
0.468896484375
0.0394775390625
0.037060546874999996
0.040283203125
0.040283203125
0.037060546874999996
0.040283203125
0.040283203125
0.0443115234375
0.09829101562499999
0.23928222656249998
0.278759765625
0.28681640625
0.26748046875
0.040283203125
0.0394775390625
0.037060546874999996
0.0378662109375
0.041088867187499996
0.0459228515625
0.04189453125
2.9366455078125
3.0470214843749996
3.0429931640624996
3.0462158203125
3.0421875
3.0478271484375
3.0494384765625
3.043798828125
3.0470214843749996
3.0462158203125
3.0478271484375
3.0446044921874997
3.04541015625
3.01962890625
3.0421875
3.0478271484375
3.04541015625
3.0470214843749996
3.0446044921874997
3.0446044921874997
3.0462158203125
0.0684814453125
0.0378662109375
0.0362548828125
0.038671874999999994
0.040283203125
0.04189453125
0.038671874999999994
0.042700195312499994
0.0394775390625
0.0378662109375
0.042700195312499994
0.3021240234375
0.362548828125
0.39638671875
0.042700195312499994
0.0394775390625
0.0394775390625
0.041088867187499996
0.043505859375
0.041088867187499996
0.0394775390625
1.8409423828125
3.050244140625
3.04541015625
3.0429931640624996
3.04541015625
3.0494384765625
3.0478271484375
3.0470214843749996
3.0470214843749996
3.0470214843749996
3.0462158203125
3.01962890625
3.0494384765625
3.0446044921874997
3.0027099609374996
3.0470214843749996
3.0478271484375
3.043798828125
3.050244140625
3.0462158203125
0.04189453125
0.404443359375
0.040283203125
0.040283203125
0.041088867187499996
0.041088867187499996
0.040283203125
0.040283203125
0.0394775390625
0.037060546874999996
0.041088867187499996
0.04833984375
0.3544921875
0.240087890625
0.281982421875
0.29970703125
0.037060546874999996
0.0378662109375
0.038671874999999994
0.0394775390625
0.041088867187499996
0.040283203125
0.5067626953125
3.050244140625
3.0462158203125
3.0470214843749996
3.0462158203125
3.0470214843749996
3.0478271484375
3.0486328124999997
3.04541015625
3.0470214843749996
3.0478271484375
3.037353515625
3.0478271484375
3.0462158203125
3.043798828125
3.043798828125
3.04541015625
3.0462158203125
3.0486328124999997
3.0470214843749996
1.513037109375
0.2135009765625
0.2586181640625
0.040283203125
0.037060546874999996
0.040283203125
0.040283203125
0.033837890625
0.0362548828125
0.040283203125
0.04189453125
0.127294921875
0.038671874999999994
0.285205078125
0.30454101562499997
0.2956787109375
0.043505859375
0.0394775390625
0.04189453125
0.0443115234375
0.04189453125
0.0394775390625
0.0394775390625
3.043798828125
3.0486328124999997
3.0413818359375
3.0494384765625
3.0470214843749996
3.04541015625
3.0446044921874997
3.05185546875
3.0462158203125
3.0462158203125
3.0478271484375
3.0405761718749997
3.04541015625
3.0470214843749996
3.0470214843749996
3.04541015625
3.0470214843749996
3.0470214843749996
3.0486328124999997
3.0486328124999997
3.0478271484375
0.485009765625
0.0378662109375
0.041088867187499996
0.0394775390625
0.04189453125
0.037060546874999996
0.040283203125
0.0394775390625
0.038671874999999994
0.042700195312499994
0.0394775390625
0.30937499999999996
0.259423828125
0.3101806640625
0.04189453125
0.040283203125
0.040283203125
0.0394775390625
0.040283203125
0.041088867187499996
0.041088867187499996
2.3259521484375
3.043798828125
3.0470214843749996
3.0470214843749996
3.043798828125
3.04541015625
3.050244140625
3.0478271484375
3.0486328124999997
3.0470214843749996
3.0462158203125
3.0429931640624996
3.0470214843749996
3.0365478515624997
3.04541015625
3.0462158203125
3.0462158203125
3.0470214843749996
3.0486328124999997
2.4774169921875
0.7283203125
0.44553222656249997
0.043505859375
0.0378662109375
0.040283203125
0.0394775390625
0.041088867187499996
0.043505859375
0.037060546874999996
0.040283203125
0.054785156249999994
0.078955078125
0.2384765625
0.24089355468749998
0.2795654296875
0.0346435546875
0.041088867187499996
0.040283203125
0.0362548828125
0.040283203125
0.0394775390625
0.040283203125
1.41796875
3.0462158203125
3.0470214843749996
3.0470214843749996
3.0470214843749996
3.0486328124999997
3.0462158203125
3.04541015625
3.0478271484375
3.0470214843749996
3.043798828125
3.050244140625
3.0429931640624996
3.0446044921874997
3.0446044921874997
3.0486328124999997
3.0462158203125
3.0478271484375
3.04541015625
3.0470214843749996
3.0462158203125
1.380908203125
0.043505859375
0.037060546874999996
0.043505859375
0.040283203125
0.040283203125
0.0394775390625
0.0394775390625
0.043505859375
0.04189453125
0.19094238281249998
0.040283203125
0.19497070312499998
0.3029296875
0.327099609375
0.0394775390625
0.04189453125
0.040283203125
0.040283203125
0.041088867187499996
0.041088867187499996
0.0394775390625
3.04541015625
3.043798828125
3.0494384765625
3.0478271484375
3.0470214843749996
3.04541015625
3.0478271484375
3.043798828125
3.0421875
3.0462158203125
2.889111328125
3.043798828125
3.04541015625
3.0462158203125
3.0446044921874997
3.0470214843749996
3.0462158203125
3.0478271484375
3.04541015625
3.0470214843749996
0.9257080078125
0.045117187499999996
0.0394775390625
0.0378662109375
0.040283203125
0.04189453125
0.04189453125
0.042700195312499994
0.038671874999999994
0.038671874999999994
0.0604248046875
0.262646484375
0.059619140625
0.25458984375
0.3182373046875
0.040283203125
0.0378662109375
0.042700195312499994
0.0394775390625
0.0443115234375
0.041088867187499996
0.042700195312499994
2.889111328125
3.04541015625
3.050244140625
3.0478271484375
3.0486328124999997
3.0510498046874996
3.0462158203125
3.0478271484375
3.0478271484375
3.0494384765625
2.937451171875
3.0446044921874997
3.043798828125
2.9930419921875
2.953564453125
3.0462158203125
3.0550781249999996
3.0462158203125
3.04541015625
1.3019531249999998
3.050244140625
1.1625732421875
0.0443115234375
0.037060546874999996
0.040283203125
0.0394775390625
0.041088867187499996
0.041088867187499996
0.040283203125
0.0362548828125
0.12810058593749998
0.2650634765625
0.2255859375
0.24331054687499998
0.270703125
0.3279052734375
0.0443115234375
0.045117187499999996
0.0443115234375
0.0394775390625
0.040283203125
0.040283203125
0.130517578125
3.0478271484375
3.0462158203125
3.0478271484375
3.0462158203125
3.04541015625
3.0486328124999997
3.0462158203125
3.0462158203125
3.04541015625
3.0470214843749996
3.0413818359375
3.0462158203125
3.0413818359375
2.9704833984374996
3.0478271484375
3.04541015625
3.0470214843749996
3.0470214843749996
3.04541015625
3.043798828125
1.5654052734375
0.0362548828125
0.0394775390625
0.040283203125
0.0362548828125
0.0394775390625
0.040283203125
0.040283203125
0.0378662109375
0.041088867187499996
0.20463867187499998
0.0523681640625
0.259423828125
0.356103515625
0.3424072265625
0.038671874999999994
0.040283203125
0.04189453125
0.0378662109375
0.04189453125
0.04189453125
0.7404052734375
2.70380859375
3.0470214843749996
3.0486328124999997
3.0470214843749996
3.0446044921874997
3.0470214843749996
3.04541015625
3.0486328124999997
3.0470214843749996
3.0486328124999997
2.866552734375
3.0470214843749996
3.0446044921874997
3.0413818359375
3.0486328124999997
3.0470214843749996
3.0486328124999997
3.0446044921874997
3.0470214843749996
3.0478271484375
0.0394775390625
0.0362548828125
0.040283203125
0.042700195312499994
0.0362548828125
0.0378662109375
0.041088867187499996
0.040283203125
0.041088867187499996
0.040283203125
0.143408203125
0.5389892578125
0.249755859375
0.3053466796875
0.3359619140625
0.041088867187499996
0.043505859375
0.040283203125
0.041088867187499996
0.040283203125
0.040283203125
0.040283203125
2.850439453125
3.0462158203125
3.043798828125
3.0478271484375
3.0462158203125
3.043798828125
3.0462158203125
3.0478271484375
3.0462158203125
3.0462158203125
3.04541015625
3.0446044921874997
3.04541015625
3.0478271484375
3.0421875
3.050244140625
3.0462158203125
3.04541015625
3.0470214843749996
3.0478271484375
3.0494384765625
0.6566162109375
0.040283203125
0.042700195312499994
0.038671874999999994
0.038671874999999994
0.038671874999999994
0.0378662109375
0.041088867187499996
0.0378662109375
0.09023437499999999
0.1458251953125
0.36496582031249997
0.246533203125
0.2771484375
0.2698974609375
0.040283203125
0.040283203125
0.037060546874999996
0.041088867187499996
0.038671874999999994
0.040283203125
0.09748535156249999
3.04541015625
3.0486328124999997
3.0494384765625
3.0494384765625
3.043798828125
3.0486328124999997
3.0486328124999997
3.0462158203125
3.0462158203125
3.043798828125
3.0429931640624996
3.043798828125
3.04541015625
3.0462158203125
3.0462158203125
3.050244140625
3.043798828125
3.0446044921874997
3.0470214843749996
1.714453125
0.346435546875
0.040283203125
0.0394775390625
0.042700195312499994
0.042700195312499994
0.040283203125
0.040283203125
0.0394775390625
0.041088867187499996
0.0394775390625
0.17080078124999998
0.0636474609375
0.2956787109375
0.37382812499999996
0.3520751953125
0.04189453125
0.043505859375
0.041088867187499996
0.037060546874999996
0.0394775390625
0.0378662109375
0.041088867187499996
3.04541015625
3.050244140625
3.0446044921874997
3.05185546875
3.0470214843749996
3.0462158203125
3.0470214843749996
3.04541015625
3.0429931640624996
3.0421875
3.04541015625
3.043798828125
3.0494384765625
3.0228515624999996
3.0470214843749996
3.04541015625
3.0462158203125
3.0470214843749996
3.0486328124999997
3.043798828125
0.0394775390625
0.24089355468749998
0.041088867187499996
0.041088867187499996
0.042700195312499994
0.038671874999999994
0.0378662109375
0.0394775390625
0.0394775390625
0.041088867187499996
0.064453125
0.3150146484375
0.2989013671875
0.27392578125
0.29970703125
0.0394775390625
0.040283203125
0.043505859375
0.0394775390625
0.040283203125
0.0394775390625
0.041088867187499996
2.7610107421874996
3.0462158203125
3.04541015625
3.0446044921874997
3.0470214843749996
3.0462158203125
3.0462158203125
3.0429931640624996
3.0470214843749996
3.0462158203125
3.0470214843749996
3.0123779296874997
3.0478271484375
3.02607421875
3.0470214843749996
3.0462158203125
3.0429931640624996
3.0494384765625
3.0462158203125
2.7247558593749996
3.0470214843749996
0.543017578125
0.043505859375
0.0394775390625
0.040283203125
0.04189453125
0.0394775390625
0.041088867187499996
0.04189453125
0.040283203125
0.041088867187499996
0.0362548828125
0.31662597656249997
0.275537109375
0.2900390625
0.041088867187499996
0.0394775390625
0.038671874999999994
0.041088867187499996
0.0378662109375
0.0394775390625
0.041088867187499996
1.393798828125
3.0462158203125
3.0486328124999997
3.04541015625
3.0429931640624996
3.0494384765625
3.043798828125
3.043798828125
3.0486328124999997
3.0550781249999996
3.0462158203125
3.0478271484375
3.0470214843749996
3.04541015625
3.0309082031249996
3.0494384765625
3.0470214843749996
3.04541015625
3.043798828125
3.04541015625
0.04189453125
1.7555419921875
0.0394775390625
0.042700195312499994
0.042700195312499994
0.041088867187499996
0.041088867187499996
0.040283203125
0.040283203125
0.040283203125
0.040283203125
0.1635498046875
0.0394775390625
0.252978515625
0.2956787109375
0.30051269531249997
0.040283203125
0.041088867187499996
0.043505859375
0.038671874999999994
0.043505859375
0.0378662109375
0.038671874999999994
3.0462158203125
3.050244140625
3.04541015625
3.0470214843749996
3.043798828125
3.0486328124999997
3.0486328124999997
3.04541015625
3.0478271484375
3.0470214843749996
2.92939453125
3.0478271484375
3.0462158203125
3.043798828125
3.0478271484375
3.0470214843749996
3.0478271484375
3.0478271484375
3.0486328124999997
3.0478271484375
1.3220947265624998
0.30615234375
0.040283203125
0.041088867187499996
0.040283203125
0.040283203125
0.041088867187499996
0.040283203125
0.041088867187499996
0.038671874999999994
0.116015625
0.198193359375
0.291650390625
0.30454101562499997
0.34885253906249997
0.0378662109375
0.038671874999999994
0.041088867187499996
0.041088867187499996
0.0394775390625
0.04189453125
0.0394775390625
2.9318115234374997
3.0429931640624996
3.0470214843749996
3.0421875
3.0446044921874997
3.0470214843749996
3.04541015625
3.0446044921874997
3.0446044921874997
3.0470214843749996
3.0478271484375
3.04541015625
3.043798828125
3.0043212890624997
3.0446044921874997
3.04541015625
3.0486328124999997
3.0429931640624996
3.04541015625
1.2882568359375
3.0470214843749996
0.7557128906249999
0.043505859375
0.041088867187499996
0.038671874999999994
0.040283203125
0.037060546874999996
0.0394775390625
0.0475341796875
0.043505859375
0.12810058593749998
0.042700195312499994
0.11762695312499999
0.265869140625
0.30454101562499997
0.04189453125
0.041088867187499996
0.043505859375
0.0394775390625
0.040283203125
0.040283203125
0.041088867187499996
2.52978515625
3.0470214843749996
3.04541015625
3.0462158203125
3.0462158203125
3.0446044921874997
3.0478271484375
3.0526611328124997
3.0486328124999997
3.0494384765625
3.0421875
3.0429931640624996
3.04541015625
3.04541015625
2.98095703125
3.0486328124999997
3.050244140625
3.0486328124999997
3.05185546875
3.0478271484375
1.158544921875
1.458251953125
0.0394775390625
0.0394775390625
0.0378662109375
0.04189453125
0.033837890625
0.041088867187499996
0.037060546874999996
0.042700195312499994
0.040283203125
0.1248779296875
0.037060546874999996
0.1998046875
0.2698974609375
0.246533203125
0.038671874999999994
0.038671874999999994
0.03544921875
0.0475341796875
0.04189453125
0.038671874999999994
0.8032470703125
3.043798828125
3.04541015625
3.0462158203125
3.0478271484375
3.0478271484375
3.0462158203125
3.0470214843749996
3.0470214843749996
3.0478271484375
3.0462158203125
2.78759765625
3.0478271484375
3.0429931640624996
2.9906249999999996
3.0470214843749996
3.0486328124999997
3.0494384765625
3.0462158203125
3.04541015625
3.04541015625
0.040283203125
0.043505859375
0.040283203125
0.037060546874999996
0.040283203125
0.04189453125
0.0394775390625
0.037060546874999996
0.04189453125
0.0394775390625
0.0717041015625
0.45358886718749997
0.20705566406249998
0.2666748046875
0.25458984375
0.040283203125
0.037060546874999996
0.0394775390625
0.037060546874999996
0.04189453125
0.0346435546875
0.041088867187499996
2.3887939453125
3.0494384765625
3.0446044921874997
3.0462158203125
3.0421875
3.050244140625
3.0462158203125
3.04541015625
3.0462158203125
3.0470214843749996
3.0478271484375
3.04541015625
3.021240234375
3.04541015625
3.0462158203125
3.0470214843749996
3.0470214843749996
3.04541015625
3.0446044921874997
3.0413818359375
3.0478271484375
0.064453125
0.040283203125
0.040283203125
0.0362548828125
0.0394775390625
0.041088867187499996
0.040283203125
0.0394775390625
0.0394775390625
0.1393798828125
0.29326171875
0.104736328125
0.307763671875
0.3198486328125
0.038671874999999994
0.0362548828125
0.04189453125
0.042700195312499994
0.04189453125
0.04189453125
0.0394775390625
2.9261718749999996
3.0470214843749996
3.04541015625
3.0470214843749996
3.043798828125
3.0413818359375
3.0470214843749996
3.0486328124999997
3.0470214843749996
3.0478271484375
3.04541015625
3.04541015625
3.04541015625
3.0470214843749996
3.0075439453125
3.0462158203125
3.0462158203125
3.0462158203125
3.0462158203125
3.0470214843749996
3.04541015625
0.5824951171875
0.0394775390625
0.041088867187499996
0.040283203125
0.040283203125
0.041088867187499996
0.040283203125
0.038671874999999994
0.0394775390625
0.040283203125
0.38188476562499996
0.28842773437499997
0.23928222656249998
0.2715087890625
0.2989013671875
0.0394775390625
0.040283203125
0.033032226562499996
0.040283203125
0.043505859375
0.040283203125
0.80888671875
3.0462158203125
3.0462158203125
3.0494384765625
3.0470214843749996
3.04541015625
3.0478271484375
3.0429931640624996
3.0405761718749997
3.050244140625
3.0446044921874997
3.04541015625
3.0462158203125
3.04541015625
3.02607421875
3.0510498046874996
3.0478271484375
3.0470214843749996
3.04541015625
3.0462158203125
3.0478271484375
0.0378662109375
0.39638671875
0.040283203125
0.040283203125
0.0346435546875
0.041088867187499996
0.0362548828125
0.041088867187499996
0.043505859375
0.038671874999999994
0.078955078125
0.153076171875
0.24814453125
0.2779541015625
0.28037109374999997
0.041088867187499996
0.0394775390625
0.0443115234375
0.0394775390625
0.0378662109375
0.040283203125
0.042700195312499994
2.8456054687499996
3.04541015625
3.0446044921874997
3.0478271484375
3.0494384765625
3.0470214843749996
3.0486328124999997
3.04541015625
3.0470214843749996
3.04541015625
3.043798828125
3.0429931640624996
3.04541015625
3.0357421875
3.0486328124999997
3.0566894531249997
3.0429931640624996
3.050244140625
3.0397705078125
3.0494384765625
3.0421875
0.17080078124999998
0.042700195312499994
0.0394775390625
0.042700195312499994
0.0378662109375
0.040283203125
0.040283203125
0.041088867187499996
0.0394775390625
0.08942871093749999
0.040283203125
0.3037353515625
0.32065429687499997
0.33273925781249997
0.041088867187499996
0.040283203125
0.0394775390625
0.0362548828125
0.040283203125
0.043505859375
0.037060546874999996
2.5877929687499996
3.0470214843749996
3.0462158203125
3.04541015625
3.0470214843749996
3.0478271484375
3.043798828125
3.0470214843749996
3.0462158203125
3.0462158203125
3.050244140625
3.0421875
3.0470214843749996
3.04541015625
3.050244140625
3.0462158203125
3.043798828125
3.0470214843749996
3.0470214843749996
3.0470214843749996
0.0394775390625
0.149853515625
0.041088867187499996
0.041088867187499996
0.0378662109375
0.041088867187499996
0.042700195312499994
0.038671874999999994
0.0394775390625
0.037060546874999996
0.04189453125
0.041088867187499996
0.41813964843749996
0.2457275390625
0.34482421874999997
0.327099609375
0.041088867187499996
0.0394775390625
0.0378662109375
0.0378662109375
0.040283203125
0.041088867187499996
1.2511962890625
3.050244140625
3.0470214843749996
3.0486328124999997
3.04541015625
3.0462158203125
3.0478271484375
3.0478271484375
3.0470214843749996
3.0429931640624996
3.0478271484375
3.0462158203125
3.0429931640624996
3.04541015625
3.029296875
3.0486328124999997
3.0486328124999997
3.0486328124999997
3.0462158203125
3.04541015625
0.6952880859374999
0.4793701171875
0.1716064453125
0.0443115234375
0.037060546874999996
0.037060546874999996
0.040283203125
0.041088867187499996
0.04189453125
0.040283203125
0.0362548828125
0.0797607421875
0.04189453125
0.23203125
0.2425048828125
0.24169921875
0.0394775390625
0.0378662109375
0.041088867187499996
0.04189453125
0.0362548828125
0.040283203125
0.041088867187499996
2.650634765625
3.0478271484375
3.0470214843749996
3.0494384765625
3.043798828125
3.0462158203125
3.0478271484375
3.0478271484375
3.0486328124999997
3.0462158203125
3.0470214843749996
3.0470214843749996
3.0462158203125
3.0244628906249997
3.04541015625
3.0446044921874997
3.0478271484375
3.0462158203125
3.0446044921874997
3.04541015625
2.9350341796875
0.4640625
0.038671874999999994
0.0378662109375
0.0362548828125
0.0443115234375
0.04189453125
0.040283203125
0.038671874999999994
0.0362548828125
0.11037597656249999
0.049145507812499996
0.3182373046875
0.30856933593749997
0.375439453125
0.0378662109375
0.040283203125
0.0378662109375
0.0394775390625
0.040283203125
0.040283203125
0.0378662109375
3.04541015625
3.0470214843749996
3.0446044921874997
3.0405761718749997
3.043798828125
3.0462158203125
3.0470214843749996
3.0478271484375
3.0486328124999997
3.0470214843749996
3.0470214843749996
3.0478271484375
3.0470214843749996
3.0147949218749996
3.04541015625
3.04541015625
3.04541015625
3.0486328124999997
3.0446044921874997
2.099560546875
2.3525390625
0.5003173828124999
0.041088867187499996
0.040283203125
0.0443115234375
0.043505859375
0.038671874999999994
0.040283203125
0.038671874999999994
0.040283203125
0.040283203125
0.040283203125
0.20947265625
0.2505615234375
0.301318359375
0.042700195312499994
0.0394775390625
0.040283203125
0.040283203125
0.0394775390625
0.0475341796875
0.0394775390625
1.85947265625
3.0478271484375
3.0470214843749996
3.0462158203125
3.043798828125
3.0494384765625
3.0470214843749996
3.0478271484375
3.0486328124999997
3.0462158203125
3.05185546875
3.0494384765625
3.0470214843749996
3.0462158203125
3.0365478515624997
3.0446044921874997
3.043798828125
3.0470214843749996
3.0478271484375
3.0470214843749996
0.040283203125
1.480810546875
0.040283203125
0.0394775390625
0.042700195312499994
0.040283203125
0.037060546874999996
0.0394775390625
0.0378662109375
0.041088867187499996
0.0580078125
0.08620605468749999
0.038671874999999994
0.1973876953125
0.3158203125
0.3158203125
0.040283203125
0.040283203125
0.040283203125
0.0443115234375
0.0362548828125
0.040283203125
0.0394775390625
2.9511474609375
3.043798828125
3.04541015625
3.0462158203125
3.0446044921874997
3.0462158203125
3.0470214843749996
3.0462158203125
3.043798828125
3.0462158203125
2.8294921874999996
3.04541015625
3.04541015625
2.9970703125
3.0462158203125
3.0389648437499996
3.0478271484375
3.0478271484375
3.0462158203125
3.0486328124999997
0.040283203125
0.041088867187499996
0.0394775390625
0.0394775390625
0.0394775390625
0.0394775390625
0.038671874999999994
0.040283203125
0.0394775390625
0.042700195312499994
0.10231933593749999
0.3907470703125
0.2827880859375
0.2876220703125
0.33515625
0.038671874999999994
0.0394775390625
0.040283203125
0.0394775390625
0.041088867187499996
0.04189453125
0.037060546874999996
2.9398681640624997
3.043798828125
3.0462158203125
3.0470214843749996
3.043798828125
3.0486328124999997
3.0486328124999997
3.0486328124999997
3.0486328124999997
3.0470214843749996
3.021240234375
3.04541015625
3.0486328124999997
3.0139892578125
3.0462158203125
3.04541015625
3.0446044921874997
3.0446044921874997
3.0470214843749996
1.480810546875
3.0470214843749996
0.4439208984375
0.0362548828125
0.043505859375
0.0443115234375
0.0362548828125
0.038671874999999994
0.0394775390625
0.038671874999999994
0.0346435546875
0.1168212890625
0.04189453125
0.0394775390625
0.249755859375
0.26022949218749997
0.042700195312499994
0.041088867187499996
0.041088867187499996
0.0378662109375
0.040283203125
0.041088867187499996
0.0378662109375
2.305810546875
3.050244140625
3.04541015625
3.0462158203125
3.0470214843749996
3.0446044921874997
3.04541015625
3.0470214843749996
3.043798828125
3.043798828125
3.050244140625
3.0478271484375
3.0510498046874996
3.0470214843749996
2.9970703125
3.0486328124999997
3.0486328124999997
3.0429931640624996
3.0486328124999997
3.0486328124999997
2.044775390625
1.3857421875
0.037060546874999996
0.040283203125
0.041088867187499996
0.042700195312499994
0.0378662109375
0.040283203125
0.045117187499999996
0.041088867187499996
0.1119873046875
0.14421386718749998
0.0636474609375
0.20463867187499998
0.3101806640625
0.31904296875
0.0394775390625
0.038671874999999994
0.0394775390625
0.043505859375
0.04189453125
0.04189453125
1.045751953125
3.0486328124999997
3.043798828125
3.0566894531249997
3.04541015625
3.0462158203125
3.0470214843749996
3.0494384765625
3.04541015625
3.050244140625
3.043798828125
2.9390625
3.050244140625
3.0357421875
3.0075439453125
3.0470214843749996
3.0462158203125
3.0478271484375
