3.0470214843749996
3.0494384765625
3.0470214843749996
3.0462158203125
3.0478271484375
3.0478271484375
3.0470214843749996
3.0478271484375
3.0478271484375
2.963232421875
3.0470214843749996
3.0478271484375
3.0446044921874997
3.0236572265625
3.0486328124999997
3.0486328124999997
3.04541015625
3.04541015625
2.17529296875
3.0470214843749996
0.9982177734375
0.040283203125
0.040283203125
0.0394775390625
0.037060546874999996
0.041088867187499996
0.041088867187499996
0.040283203125
0.0394775390625
0.04189453125
0.45761718749999997
0.451171875
0.32145996093749996
0.3391845703125
0.33354492187499996
0.041088867187499996
0.0394775390625
0.043505859375
0.041088867187499996
0.041088867187499996
0.038671874999999994
1.1351806640625
3.0462158203125
3.0462158203125
3.0446044921874997
3.04541015625
3.0470214843749996
3.0478271484375
3.0470214843749996
3.043798828125
3.0462158203125
3.0470214843749996
3.0526611328124997
3.04541015625
3.04541015625
3.0139892578125
3.0462158203125
3.0486328124999997
3.043798828125
3.0413818359375
3.0486328124999997
2.4903076171875
0.0378662109375
0.043505859375
0.040283203125
0.040283203125
0.041088867187499996
0.043505859375
0.037060546874999996
0.042700195312499994
0.038671874999999994
0.037060546874999996
0.0684814453125
0.1377685546875
0.1957763671875
0.21108398437499998
0.18288574218749998
0.0394775390625
0.0394775390625
0.0394775390625
0.043505859375
0.040283203125
0.041088867187499996
0.0249755859375
3.0470214843749996
3.04541015625
3.0462158203125
3.0446044921874997
3.0462158203125
3.0478271484375
3.0462158203125
3.043798828125
3.0446044921874997
3.043798828125
2.898779296875
3.0027099609374996
2.995458984375
2.9583984374999996
3.050244140625
3.04541015625
3.0486328124999997
3.0397705078125
3.0470214843749996
3.0429931640624996
3.0478271484375
0.32951660156249996
0.0378662109375
0.040283203125
0.042700195312499994
0.043505859375
0.0394775390625
0.0362548828125
0.04189453125
0.042700195312499994
0.0394775390625
0.23686523437499998
0.1393798828125
0.1345458984375
0.17482910156249998
0.037060546874999996
0.040283203125
0.0378662109375
0.037060546874999996
0.0378662109375
0.0394775390625
0.045117187499999996
2.8391601562499997
3.0462158203125
3.0462158203125
3.0494384765625
3.0462158203125
3.0462158203125
3.0478271484375
3.0446044921874997
3.04541015625
3.0470214843749996
3.0470214843749996
3.0365478515624997
3.043798828125
3.043798828125
3.0478271484375
3.04541015625
3.0462158203125
3.04541015625
3.0462158203125
2.6458007812499997
3.04541015625
0.275537109375
0.043505859375
0.040283203125
0.04189453125
0.0362548828125
0.038671874999999994
0.0394775390625
0.0362548828125
0.040283203125
0.040283203125
0.0443115234375
0.26425781249999997
0.2054443359375
0.26022949218749997
0.0378662109375
0.0394775390625
0.042700195312499994
0.040283203125
0.0475341796875
0.037060546874999996
0.038671874999999994
1.6556396484375
3.0446044921874997
3.04541015625
3.04541015625
3.0486328124999997
3.0486328124999997
3.0470214843749996
3.0478271484375
3.0462158203125
3.0478271484375
3.0470214843749996
3.0510498046874996
3.018017578125
3.043798828125
3.001904296875
3.0462158203125
3.0470214843749996
3.0470214843749996
3.04541015625
3.0486328124999997
0.0378662109375
1.248779296875
0.037060546874999996
0.042700195312499994
0.043505859375
0.0394775390625
0.043505859375
0.04189453125
0.040283203125
0.041088867187499996
0.0394775390625
0.045117187499999996
0.038671874999999994
0.1393798828125
0.22719726562499998
0.21914062499999998
0.0443115234375
0.040283203125
0.0378662109375
0.041088867187499996
0.038671874999999994
0.040283203125
0.040283203125
2.354150390625
3.0462158203125
3.04541015625
3.04541015625
3.0478271484375
3.0486328124999997
3.0446044921874997
3.0486328124999997
3.0478271484375
3.04541015625
2.8270751953124997
2.9600097656249997
2.9882080078124997
2.940673828125
3.0462158203125
3.04541015625
3.04541015625
3.0486328124999997
3.0470214843749996
3.0462158203125
0.1571044921875
0.2022216796875
0.046728515624999994
0.040283203125
0.041088867187499996
0.04189453125
0.040283203125
0.040283203125
0.040283203125
0.042700195312499994
0.054785156249999994
0.1264892578125
0.182080078125
0.1941650390625
0.21108398437499998
0.040283203125
0.0394775390625
0.040283203125
0.040283203125
0.041088867187499996
0.0362548828125
0.037060546874999996
2.65546875
3.0470214843749996
3.0470214843749996
3.0470214843749996
3.0478271484375
3.0470214843749996
3.050244140625
3.0470214843749996
3.0470214843749996
3.04541015625
2.9092529296875
3.0446044921874997
3.0446044921874997
3.01962890625
3.0486328124999997
3.04541015625
3.043798828125
3.0486328124999997
3.0462158203125
1.619384765625
3.0486328124999997
0.28037109374999997
0.040283203125
0.040283203125
0.040283203125
0.040283203125
0.041088867187499996
0.0378662109375
0.040283203125
0.040283203125
0.04189453125
0.37785644531249996
0.1353515625
0.23686523437499998
0.32065429687499997
0.04189453125
0.038671874999999994
0.043505859375
0.042700195312499994
0.0394775390625
0.038671874999999994
0.041088867187499996
2.8141845703125
3.0462158203125
3.043798828125
3.050244140625
3.0462158203125
3.04541015625
3.0486328124999997
3.0470214843749996
3.043798828125
3.0462158203125
2.9503417968749996
3.04541015625
3.043798828125
3.0164062499999997
2.972900390625
3.0478271484375
3.0462158203125
3.0462158203125
3.04541015625
3.0470214843749996
1.9795166015624999
1.3978271484375
0.037060546874999996
0.0378662109375
0.041088867187499996
0.0362548828125
0.040283203125
0.040283203125
0.040283203125
0.037060546874999996
0.0443115234375
0.08701171875
0.0378662109375
0.111181640625
0.167578125
0.20463867187499998
0.0362548828125
0.04189453125
0.0346435546875
0.0362548828125
0.0362548828125
0.041088867187499996
0.042700195312499994
2.6063232421875
3.0470214843749996
3.0486328124999997
3.0486328124999997
3.0486328124999997
3.0421875
3.04541015625
3.04541015625
3.0462158203125
3.043798828125
2.7610107421874996
3.0284912109374997
3.0172119140625
2.9261718749999996
3.0470214843749996
3.04541015625
3.0478271484375
3.0470214843749996
3.0486328124999997
3.0421875
0.040283203125
0.20302734374999998
0.042700195312499994
0.0362548828125
0.040283203125
0.040283203125
0.043505859375
0.04189453125
0.038671874999999994
0.0378662109375
0.11359863281249999
0.42861328125
0.15791015625
0.2360595703125
0.22719726562499998
0.0362548828125
0.040283203125
0.041088867187499996
0.0443115234375
0.0443115234375
0.040283203125
0.038671874999999994
2.5241455078125
3.0446044921874997
3.0494384765625
3.0462158203125
3.0510498046874996
3.043798828125
3.0470214843749996
3.0462158203125
3.0470214843749996
3.0470214843749996
3.0470214843749996
3.043798828125
3.0470214843749996
3.018017578125
3.0446044921874997
3.0462158203125
3.0462158203125
3.0470214843749996
3.0470214843749996
3.050244140625
3.0486328124999997
0.04189453125
0.04189453125
0.045117187499999996
0.041088867187499996
0.041088867187499996
0.038671874999999994
0.0394775390625
0.04189453125
0.03544921875
0.075732421875
0.041088867187499996
0.1538818359375
0.22478027343749998
0.240087890625
0.040283203125
0.042700195312499994
0.0362548828125
0.040283203125
0.04189453125
0.042700195312499994
0.04189453125
2.2953369140624997
3.0478271484375
3.0462158203125
3.0462158203125
3.04541015625
3.0494384765625
3.0470214843749996
3.0486328124999997
3.04541015625
3.0470214843749996
3.0446044921874997
3.0333251953125
3.04541015625
3.0462158203125
3.0107666015624996
3.0470214843749996
3.0470214843749996
3.0462158203125
3.043798828125
3.04541015625
0.28681640625
0.6646728515625
0.040283203125
0.0378662109375
0.0394775390625
0.0362548828125
0.037060546874999996
0.040283203125
0.0394775390625
0.0394775390625
0.04189453125
0.1893310546875
0.21914062499999998
0.153076171875
0.19094238281249998
0.1941650390625
0.037060546874999996
0.040283203125
0.037060546874999996
0.040283203125
0.040283203125
0.042700195312499994
0.12810058593749998
2.9100585937499996
3.04541015625
3.050244140625
3.0470214843749996
3.0494384765625
3.0470214843749996
3.050244140625
3.0446044921874997
3.0470214843749996
3.0413818359375
3.0470214843749996
3.04541015625
3.0486328124999997
3.0325195312499997
3.0470214843749996
3.0470214843749996
3.043798828125
3.05830078125
3.0462158203125
1.5863525390625
0.3117919921875
0.307763671875
0.038671874999999994
0.03544921875
0.038671874999999994
0.040283203125
0.041088867187499996
0.038671874999999994
0.038671874999999994
0.040283203125
0.11843261718749999
0.042700195312499994
0.281982421875
0.2956787109375
0.3198486328125
0.0346435546875
0.038671874999999994
0.037060546874999996
0.0378662109375
0.0394775390625
0.0394775390625
0.0394775390625
2.76181640625
3.0446044921874997
3.04541015625
3.0494384765625
3.0462158203125
3.0462158203125
3.0470214843749996
3.050244140625
3.0470214843749996
3.053466796875
3.04541015625
3.043798828125
3.0478271484375
3.037353515625
3.0470214843749996
3.0470214843749996
3.04541015625
3.0470214843749996
3.04541015625
3.0421875
3.0486328124999997
0.269091796875
0.0378662109375
0.0378662109375
0.041088867187499996
0.045117187499999996
0.040283203125
0.040283203125
0.0378662109375
0.04189453125
0.04189453125
0.0378662109375
0.1313232421875
0.249755859375
0.2553955078125
0.040283203125
0.0394775390625
0.041088867187499996
0.038671874999999994
0.0394775390625
0.0394775390625
0.043505859375
1.9650146484375
3.0446044921874997
3.0470214843749996
3.0389648437499996
3.0446044921874997
3.050244140625
3.0494384765625
3.0470214843749996
3.0478271484375
3.0446044921874997
3.0470214843749996
2.9559814453124997
3.0478271484375
3.021240234375
3.0478271484375
3.0494384765625
3.0389648437499996
3.04541015625
3.0462158203125
2.2051025390625
0.0362548828125
0.48259277343749996
0.038671874999999994
0.0394775390625
0.040283203125
0.042700195312499994
0.0378662109375
0.040283203125
0.041088867187499996
0.0394775390625
0.0604248046875
0.041088867187499996
0.191748046875
0.16838378906249998
0.23686523437499998
0.0394775390625
0.038671874999999994
0.04189453125
0.0394775390625
0.041088867187499996
0.040283203125
0.037060546874999996
1.5645996093749999
3.04541015625
3.04541015625
3.0462158203125
3.0470214843749996
3.0486328124999997
3.0462158203125
3.0462158203125
3.0486328124999997
3.04541015625
3.0421875
3.0486328124999997
3.0470214843749996
3.0486328124999997
3.029296875
3.0462158203125
3.0462158203125
3.0470214843749996
3.0446044921874997
3.0486328124999997
3.0462158203125
1.3728515625
0.040283203125
0.043505859375
0.040283203125
0.042700195312499994
0.0394775390625
0.0394775390625
0.037060546874999996
0.0378662109375
0.040283203125
0.1716064453125
0.0362548828125
0.233642578125
0.294873046875
0.32548828124999996
0.040283203125
0.042700195312499994
0.040283203125
0.041088867187499996
0.037060546874999996
0.0394775390625
0.0346435546875
2.6941406249999997
3.0470214843749996
3.04541015625
3.0486328124999997
3.0470214843749996
3.043798828125
3.0462158203125
3.0510498046874996
3.0478271484375
3.04541015625
2.8383544921875
3.0429931640624996
3.0478271484375
3.0413818359375
3.0494384765625
3.0486328124999997
3.0462158203125
3.04541015625
3.0478271484375
3.0470214843749996
0.1264892578125
0.042700195312499994
0.041088867187499996
0.040283203125
0.040283203125
0.04189453125
0.040283203125
0.040283203125
0.043505859375
0.040283203125
0.0733154296875
0.3021240234375
0.1377685546875
0.26103515625
0.28439941406249997
0.040283203125
0.040283203125
0.0362548828125
0.0394775390625
0.042700195312499994
0.0394775390625
0.037060546874999996
2.3066162109375
3.0478271484375
3.04541015625
3.04541015625
3.0462158203125
3.0510498046874996
3.04541015625
3.0486328124999997
3.0446044921874997
3.0478271484375
2.843994140625
3.0470214843749996
3.0301025390625
2.9849853515625
2.9600097656249997
3.0470214843749996
3.04541015625
3.0470214843749996
3.0446044921874997
1.9271484374999999
3.0470214843749996
0.9716308593749999
0.042700195312499994
0.0443115234375
0.040283203125
0.040283203125
0.0378662109375
0.040283203125
0.043505859375
0.0394775390625
0.11923828125
0.35771484374999996
0.043505859375
0.1458251953125
0.1998046875
0.233642578125
0.038671874999999994
0.041088867187499996
0.041088867187499996
0.042700195312499994
0.038671874999999994
0.041088867187499996
0.041088867187499996
2.9140869140624996
3.0494384765625
3.050244140625
3.0462158203125
3.0429931640624996
3.0470214843749996
3.0486328124999997
3.04541015625
3.0470214843749996
3.04541015625
3.0462158203125
3.02607421875
3.0204345703124997
2.9978759765625
3.0429931640624996
3.04541015625
3.0421875
3.0446044921874997
3.0446044921874997
2.6981689453124997
0.7694091796875
0.041088867187499996
0.041088867187499996
0.040283203125
0.040283203125
0.040283203125
0.0394775390625
0.04189453125
0.038671874999999994
0.0459228515625
0.13212890624999998
0.11762695312499999
0.2650634765625
0.310986328125
0.34079589843749997
0.038671874999999994
0.04189453125
0.041088867187499996
0.040283203125
0.040283203125
0.038671874999999994
1.216552734375
2.8077392578125
3.0462158203125
3.0470214843749996
3.0470214843749996
3.0470214843749996
3.0462158203125
3.0462158203125
3.04541015625
3.0470214843749996
3.043798828125
2.8423828125
3.0446044921874997
3.0123779296874997
2.9906249999999996
3.0478271484375
3.04541015625
3.050244140625
3.04541015625
3.0429931640624996
3.0429931640624996
0.038671874999999994
0.23122558593749998
0.038671874999999994
0.041088867187499996
0.040283203125
0.040283203125
0.037060546874999996
0.040283203125
0.040283203125
0.04189453125
0.1007080078125
0.33676757812499997
0.191748046875
0.2102783203125
0.20625
0.042700195312499994
0.0394775390625
0.040283203125
0.037060546874999996
0.041088867187499996
0.0394775390625
0.0378662109375
2.5902099609375
3.0462158203125
3.0470214843749996
3.0462158203125
3.0470214843749996
3.04541015625
3.0446044921874997
3.0470214843749996
3.0462158203125
3.0486328124999997
3.0470214843749996
2.9124755859375
3.003515625
2.9986816406249996
3.04541015625
3.0462158203125
3.0478271484375
3.04541015625
3.0462158203125
3.0446044921874997
3.0429931640624996
0.43344726562499997
0.038671874999999994
0.041088867187499996
0.04189453125
0.040283203125
0.040283203125
0.041088867187499996
0.037060546874999996
0.042700195312499994
0.054785156249999994
0.040283203125
0.294873046875
0.2183349609375
0.2634521484375
0.042700195312499994
0.0394775390625
0.040283203125
0.0394775390625
0.0394775390625
0.042700195312499994
0.0394775390625
1.5476806640624998
3.043798828125
3.0470214843749996
3.04541015625
3.043798828125
3.0486328124999997
3.0462158203125
3.043798828125
3.0446044921874997
3.0478271484375
3.0470214843749996
2.92939453125
3.04541015625
3.0164062499999997
3.01318359375
3.0462158203125
3.0470214843749996
3.0413818359375
3.04541015625
3.0478271484375
0.04189453125
0.20947265625
0.041088867187499996
0.041088867187499996
0.0378662109375
0.037060546874999996
0.0394775390625
0.040283203125
0.0394775390625
0.0394775390625
0.038671874999999994
0.111181640625
0.2827880859375
0.23122558593749998
0.2553955078125
0.22478027343749998
0.040283203125
0.040283203125
0.043505859375
0.040283203125
0.0378662109375
0.0443115234375
1.0175537109375
3.0470214843749996
3.0470214843749996
3.04541015625
3.04541015625
3.04541015625
3.0470214843749996
3.0446044921874997
3.0478271484375
3.0462158203125
3.0462158203125
3.0462158203125
2.9914306640625
3.034130859375
2.9978759765625
3.050244140625
3.043798828125
3.0470214843749996
3.0462158203125
3.043798828125
3.0494384765625
0.475341796875
0.2618408203125
0.041088867187499996
0.0394775390625
0.040283203125
0.040283203125
0.040283203125
0.040283203125
0.041088867187499996
0.0394775390625
0.103125
0.038671874999999994
0.201416015625
0.19255371093749998
0.21914062499999998
0.033837890625
0.0362548828125
0.0394775390625
0.040283203125
0.038671874999999994
0.042700195312499994
0.04189453125
2.5652343749999997
3.0470214843749996
3.0486328124999997
3.0446044921874997
3.043798828125
3.0470214843749996
3.04541015625
3.0470214843749996
3.037353515625
3.0446044921874997
3.0429931640624996
3.0405761718749997
3.04541015625
3.0091552734375
3.0486328124999997
3.0446044921874997
3.0470214843749996
3.0478271484375
3.04541015625
3.0462158203125
2.3468994140625
0.31743164062499996
0.040283203125
0.040283203125
0.040283203125
0.0394775390625
0.0346435546875
0.0394775390625
0.040283203125
0.0394775390625
0.037060546874999996
0.0362548828125
0.08540039062499999
0.1780517578125
0.3021240234375
0.040283203125
0.04189453125
0.040283203125
0.0394775390625
0.040283203125
0.04189453125
0.040283203125
2.1841552734375
3.0107666015624996
3.0470214843749996
3.0462158203125
3.0470214843749996
3.04541015625
3.0446044921874997
3.0494384765625
3.0486328124999997
3.04541015625
3.0325195312499997
3.0470214843749996
3.0486328124999997
2.9978759765625
2.977734375
3.0446044921874997
3.0429931640624996
3.0486328124999997
3.0478271484375
1.603271484375
1.3833251953124999
1.071533203125
0.041088867187499996
0.038671874999999994
0.04189453125
0.040283203125
0.042700195312499994
0.040283203125
0.0394775390625
0.040283203125
0.04189453125
0.120849609375
0.042700195312499994
0.2135009765625
0.27392578125
0.2892333984375
0.038671874999999994
0.040283203125
0.040283203125
0.040283203125
0.04189453125
0.037060546874999996
0.1893310546875
2.9124755859375
3.0470214843749996
3.0462158203125
3.0478271484375
3.0462158203125
3.0478271484375
3.0462158203125
3.0486328124999997
3.04541015625
3.0494384765625
3.0478271484375
2.995458984375
3.01318359375
2.9898193359375
3.043798828125
3.04541015625
3.0486328124999997
3.0470214843749996
3.0470214843749996
3.0486328124999997
0.042700195312499994
0.040283203125
0.04189453125
0.042700195312499994
0.040283203125
0.0378662109375
0.040283203125
0.037060546874999996
0.040283203125
0.040283203125
0.0878173828125
0.038671874999999994
0.1571044921875
0.18046874999999998
0.23686523437499998
0.040283203125
0.038671874999999994
0.040283203125
0.0362548828125
0.037060546874999996
0.04189453125
0.0443115234375
2.5652343749999997
3.04541015625
3.05185546875
3.0494384765625
3.0446044921874997
3.0446044921874997
3.0470214843749996
3.0470214843749996
3.0486328124999997
3.04541015625
2.85849609375
3.0470214843749996
3.0405761718749997
2.9986816406249996
3.0446044921874997
3.0470214843749996
3.0470214843749996
3.0478271484375
3.0470214843749996
3.043798828125
0.043505859375
0.037060546874999996
0.043505859375
0.0443115234375
0.040283203125
0.038671874999999994
0.0443115234375
0.04189453125
0.0378662109375
0.040283203125
0.058813476562499994
0.35288085937499997
0.1571044921875
0.29970703125
0.31340332031249996
0.040283203125
0.040283203125
0.040283203125
0.041088867187499996
0.041088867187499996
0.0362548828125
0.040283203125
2.5241455078125
3.0462158203125
3.0486328124999997
3.04541015625
3.0486328124999997
3.0462158203125
3.0429931640624996
3.0462158203125
3.0462158203125
3.0494384765625
3.0470214843749996
2.9543701171874996
3.0494384765625
3.011572265625
2.9712890625
3.050244140625
3.0486328124999997
3.04541015625
3.0462158203125
3.0494384765625
3.0462158203125
0.269091796875
0.033837890625
0.041088867187499996
0.040283203125
0.040283203125
0.040283203125
0.043505859375
0.037060546874999996
0.040283203125
0.040283203125
0.348046875
0.32871093749999997
0.3117919921875
0.2771484375
0.28842773437499997
0.0378662109375
0.042700195312499994
0.0394775390625
0.041088867187499996
0.0378662109375
0.040283203125
1.0304443359375
2.995458984375
3.04541015625
3.0470214843749996
3.0470214843749996
3.0462158203125
3.0462158203125
3.0462158203125
3.0462158203125
3.0478271484375
3.0244628906249997
3.0462158203125
3.027685546875
2.9833740234375
3.0010986328125
3.0486328124999997
3.0446044921874997
3.0446044921874997
3.0462158203125
3.0470214843749996
1.880419921875
0.037060546874999996
0.040283203125
0.0362548828125
0.033837890625
0.0394775390625
0.04189453125
0.0394775390625
0.043505859375
0.040283203125
0.0394775390625
0.1264892578125
0.0733154296875
0.2022216796875
0.2513671875
0.24169921875
0.038671874999999994
0.042700195312499994
0.041088867187499996
0.03544921875
0.042700195312499994
0.037060546874999996
0.040283203125
2.96484375
3.0510498046874996
3.050244140625
3.0462158203125
3.0470214843749996
3.0462158203125
3.0486328124999997
3.0470214843749996
3.043798828125
3.04541015625
3.0486328124999997
3.0446044921874997
3.037353515625
2.9753173828125
3.0421875
3.0478271484375
3.0470214843749996
3.04541015625
3.0486328124999997
3.0486328124999997
3.0486328124999997
0.21914062499999998
0.040283203125
0.041088867187499996
0.042700195312499994
0.040283203125
0.040283203125
0.041088867187499996
0.040283203125
0.0394775390625
0.045117187499999996
0.30051269531249997
0.2698974609375
0.28842773437499997
0.269091796875
0.040283203125
0.037060546874999996
0.040283203125
0.040283203125
0.040283203125
0.041088867187499996
0.043505859375
2.8359375
3.0470214843749996
3.04541015625
3.043798828125
3.050244140625
3.0494384765625
3.04541015625
3.04541015625
3.0462158203125
3.0470214843749996
3.0470214843749996
3.021240234375
3.043798828125
3.0027099609374996
3.0421875
3.0470214843749996
3.0421875
3.043798828125
3.0470214843749996
2.43310546875
3.050244140625
0.3472412109375
0.0394775390625
0.040283203125
0.04189453125
0.04189453125
0.0394775390625
0.0378662109375
0.041088867187499996
0.0394775390625
0.040283203125
0.0394775390625
0.2457275390625
0.217529296875
0.2505615234375
0.038671874999999994
0.038671874999999994
0.0394775390625
0.041088867187499996
0.040283203125
0.037060546874999996
0.0394775390625
0.7178466796874999
2.8294921874999996
3.0494384765625
3.050244140625
3.04541015625
3.0470214843749996
3.04541015625
3.0462158203125
3.0421875
3.0486328124999997
3.04541015625
3.0462158203125
3.043798828125
3.0156005859375
2.9720947265624997
3.04541015625
3.0462158203125
3.0462158203125
3.0462158203125
3.043798828125
0.038671874999999994
1.2665039062499999
0.040283203125
0.038671874999999994
0.040283203125
0.046728515624999994
0.041088867187499996
0.0378662109375
0.03544921875
0.042700195312499994
0.049951171875
0.11279296875
0.0394775390625
0.2457275390625
0.29326171875
0.2860107421875
0.040283203125
0.042700195312499994
0.041088867187499996
0.041088867187499996
0.0394775390625
0.041088867187499996
0.0378662109375
2.384765625
3.0486328124999997
3.0486328124999997
3.0494384765625
3.0470214843749996
3.0486328124999997
3.04541015625
3.04541015625
3.04541015625
3.0494384765625
2.8963623046875
3.0470214843749996
3.04541015625
3.0244628906249997
3.0470214843749996
3.0462158203125
3.0486328124999997
3.0494384765625
3.0429931640624996
3.0462158203125
0.10231933593749999
0.0539794921875
0.037060546874999996
0.040283203125
0.038671874999999994
0.043505859375
0.040283203125
0.0394775390625
0.0394775390625
0.04189453125
0.127294921875
0.294873046875
0.24331054687499998
0.2811767578125
0.359326171875
0.042700195312499994
0.040283203125
0.040283203125
0.040283203125
0.040283203125
0.0394775390625
0.042700195312499994
2.6103515625
3.0462158203125
3.053466796875
3.04541015625
3.0510498046874996
3.0462158203125
3.0486328124999997
3.043798828125
3.0462158203125
3.0429931640624996
3.021240234375
3.0421875
3.0301025390625
2.9712890625
3.043798828125
3.0462158203125
3.0526611328124997
3.0494384765625
3.04541015625
1.8763916015625
1.4268310546874998
0.198193359375
0.040283203125
0.040283203125
0.0362548828125
0.030615234374999998
0.0362548828125
0.041088867187499996
0.027392578124999997
0.0394775390625
0.0523681640625
0.04189453125
0.0378662109375
0.16838378906249998
0.2296142578125
0.0378662109375
0.0362548828125
0.041088867187499996
0.040283203125
0.038671874999999994
0.0394775390625
0.040283203125
2.3662353515625
3.0470214843749996
3.0486328124999997
3.04541015625
3.0446044921874997
3.0470214843749996
3.0494384765625
3.0478271484375
3.0462158203125
3.0478271484375
2.89072265625
3.0486328124999997
3.04541015625
3.027685546875
2.9608154296875
3.0486328124999997
3.0462158203125
3.050244140625
3.0462158203125
2.995458984375
2.5313964843749996
1.4147460937499998
0.0362548828125
0.040283203125
0.038671874999999994
0.042700195312499994
0.041088867187499996
0.038671874999999994
0.040283203125
0.040283203125
0.15146484375
0.20705566406249998
0.116015625
0.2513671875
0.30937499999999996
0.32548828124999996
0.040283203125
0.03544921875
0.0362548828125
0.037060546874999996
0.041088867187499996
0.040283203125
1.1319580078125
2.9519531249999997
3.0462158203125
3.0470214843749996
3.0470214843749996
3.0510498046874996
3.0486328124999997
3.0462158203125
3.0470214843749996
3.0462158203125
3.0470214843749996
2.9261718749999996
2.995458984375
3.0429931640624996
2.99384765625
3.050244140625
3.0494384765625
3.0478271484375
3.0421875
3.0462158203125
3.043798828125
0.0394775390625
0.1071533203125
0.04189453125
0.0394775390625
0.041088867187499996
0.040283203125
0.041088867187499996
0.040283203125
0.042700195312499994
0.041088867187499996
0.146630859375
0.46245117187499996
0.21914062499999998
0.3101806640625
0.291650390625
0.0394775390625
0.038671874999999994
0.038671874999999994
0.042700195312499994
0.040283203125
0.041088867187499996
0.040283203125
2.908447265625
3.0462158203125
3.0462158203125
3.0462158203125
3.0478271484375
3.0478271484375
3.0486328124999997
3.0478271484375
3.05185546875
3.0462158203125
3.0462158203125
3.04541015625
3.0333251953125
3.0107666015624996
3.043798828125
3.04541015625
3.0478271484375
3.0462158203125
3.0486328124999997
3.0470214843749996
3.0421875
0.062841796875
0.0394775390625
0.037060546874999996
0.040283203125
0.041088867187499996
0.040283203125
0.038671874999999994
0.040283203125
0.03544921875
0.038671874999999994
0.35288085937499997
0.12165527343749999
0.17482910156249998
0.19094238281249998
0.037060546874999996
0.042700195312499994
0.043505859375
0.040283203125
0.040283203125
0.037060546874999996
0.038671874999999994
2.3162841796875
3.0446044921874997
3.0486328124999997
3.0470214843749996
3.0486328124999997
3.0478271484375
3.0478271484375
3.0486328124999997
3.0486328124999997
3.0494384765625
3.0494384765625
2.8979736328124996
3.0462158203125
3.0123779296874997
2.977734375
3.0486328124999997
3.0486328124999997
3.04541015625
3.0478271484375
3.0494384765625
3.0478271484375
0.459228515625
0.041088867187499996
0.0378662109375
0.0394775390625
0.0394775390625
0.043505859375
0.037060546874999996
0.040283203125
0.040283203125
0.033032226562499996
0.24089355468749998
0.3182373046875
0.230419921875
0.28681640625
0.2441162109375
0.0378662109375
0.04189453125
0.041088867187499996
0.0394775390625
0.045117187499999996
0.04189453125
1.21171875
3.04541015625
3.0470214843749996
3.0462158203125
3.0429931640624996
3.0421875
3.0486328124999997
3.0470214843749996
3.0510498046874996
3.0421875
3.0470214843749996
3.050244140625
3.0421875
3.0123779296874997
3.0002929687499997
3.0470214843749996
3.04541015625
3.0462158203125
3.0486328124999997
3.0486328124999997
1.1690185546875
0.881396484375
0.21269531249999998
0.040283203125
0.0394775390625
0.038671874999999994
0.0362548828125
0.041088867187499996
0.042700195312499994
0.040283203125
0.042700195312499994
0.10957031249999999
0.038671874999999994
0.3037353515625
0.269091796875
0.2384765625
0.041088867187499996
0.0378662109375
0.040283203125
0.040283203125
0.0394775390625
0.04189453125
0.040283203125
2.8810546875
3.04541015625
3.0470214843749996
3.0462158203125
3.0494384765625
3.04541015625
3.0470214843749996
3.04541015625
3.0470214843749996
3.050244140625
3.0462158203125
3.027685546875
3.027685546875
2.9922363281249997
3.0470214843749996
3.0486328124999997
3.0462158203125
3.0446044921874997
3.0470214843749996
3.050244140625
2.81015625
0.32145996093749996
0.0394775390625
0.038671874999999994
0.037060546874999996
0.0394775390625
0.038671874999999994
0.046728515624999994
0.0394775390625
0.042700195312499994
0.040283203125
0.040283203125
0.20061035156249998
0.1893310546875
0.230419921875
0.0394775390625
0.0394775390625
0.042700195312499994
0.04189453125
0.040283203125
0.037060546874999996
0.040283203125
2.2034912109375
3.0494384765625
3.0462158203125
3.0462158203125
3.0446044921874997
3.0470214843749996
3.043798828125
3.0470214843749996
3.0470214843749996
3.0470214843749996
3.0446044921874997
3.0421875
3.0470214843749996
2.995458984375
3.0421875
3.0478271484375
3.043798828125
3.0446044921874997
3.0470214843749996
1.85947265625
0.7597412109374999
0.40605468749999996
0.040283203125
0.042700195312499994
0.038671874999999994
0.041088867187499996
0.038671874999999994
0.040283203125
0.0394775390625
0.0394775390625
0.045117187499999996
0.040283203125
0.23686523437499998
0.262646484375
0.31743164062499996
0.040283203125
0.043505859375
0.041088867187499996
0.0443115234375
0.0394775390625
0.04189453125
0.0394775390625
2.50400390625
3.0462158203125
3.0470214843749996
3.0478271484375
3.04541015625
3.0470214843749996
3.0470214843749996
3.0462158203125
3.04541015625
3.0446044921874997
3.043798828125
3.0470214843749996
2.9664550781249996
3.0067382812499996
2.9350341796875
3.0462158203125
3.0486328124999997
3.0478271484375
3.0462158203125
3.0486328124999997
0.040283203125
1.5960205078124998
0.038671874999999994
0.0394775390625
0.04189453125
0.040283203125
0.04189453125
0.0394775390625
0.0378662109375
0.046728515624999994
0.040283203125
0.061230468749999996
0.040283203125
0.10957031249999999
0.1861083984375
0.185302734375
0.042700195312499994
0.042700195312499994
0.042700195312499994
0.040283203125
0.040283203125
0.038671874999999994
0.037060546874999996
2.3718749999999997
3.0462158203125
3.0486328124999997
3.043798828125
3.04541015625
3.0486328124999997
3.04541015625
3.0462158203125
3.0470214843749996
3.0470214843749996
2.7972656249999996
3.043798828125
3.0236572265625
2.9769287109375
3.0470214843749996
3.0486328124999997
3.0486328124999997
3.050244140625
3.043798828125
3.04541015625
0.041088867187499996
0.0990966796875
0.041088867187499996
0.0394775390625
0.040283203125
0.0394775390625
0.038671874999999994
0.040283203125
0.04189453125
0.0378662109375
0.043505859375
0.22236328125
0.0668701171875
0.1571044921875
0.198193359375
0.041088867187499996
0.041088867187499996
0.040283203125
0.037060546874999996
0.037060546874999996
0.0394775390625
0.042700195312499994
2.24619140625
3.0486328124999997
3.04541015625
3.04541015625
3.0462158203125
3.0486328124999997
3.043798828125
3.0470214843749996
3.0470214843749996
3.0470214843749996
3.0381591796875
3.043798828125
3.01318359375
3.005126953125
2.972900390625
3.04541015625
3.04541015625
3.04541015625
3.0462158203125
2.6401611328124996
3.04541015625
0.28037109374999997
0.040283203125
0.041088867187499996
0.04189453125
0.037060546874999996
0.043505859375
0.040283203125
0.040283203125
0.0394775390625
0.040283203125
0.42861328125
0.120849609375
0.2811767578125
0.29970703125
0.26748046875
0.040283203125
0.0443115234375
0.04189453125
0.0394775390625
0.0394775390625
0.0394775390625
1.126318359375
3.0462158203125
3.0478271484375
3.04541015625
3.0478271484375
3.0494384765625
3.0470214843749996
3.0470214843749996
3.0462158203125
3.0486328124999997
3.0510498046874996
3.04541015625
2.9841796874999997
2.9978759765625
2.95517578125
3.0421875
3.0486328124999997
3.04541015625
3.043798828125
3.0446044921874997
2.193017578125
0.7500732421874999
0.0394775390625
0.037060546874999996
0.040283203125
0.041088867187499996
0.0394775390625
0.040283203125
0.0362548828125
0.040283203125
0.0346435546875
0.09023437499999999
0.1264892578125
0.1716064453125
0.2118896484375
0.217529296875
0.038671874999999994
0.042700195312499994
0.040283203125
0.037060546874999996
0.040283203125
0.041088867187499996
0.3907470703125
2.9197265624999997
3.0478271484375
3.0494384765625
3.04541015625
3.0494384765625
3.0486328124999997
3.04541015625
3.0462158203125
3.0470214843749996
3.0413818359375
2.908447265625
3.04541015625
3.0172119140625
2.979345703125
3.0470214843749996
3.053466796875
3.0478271484375
3.04541015625
3.04541015625
3.0494384765625
0.040283203125
0.2940673828125
0.045117187499999996
0.040283203125
0.0394775390625
0.0394775390625
0.04189453125
0.0459228515625
0.0378662109375
0.0394775390625
0.07412109374999999
0.2827880859375
0.24814453125
0.24733886718749998
0.24331054687499998
0.040283203125
0.0378662109375
0.043505859375
0.041088867187499996
0.0394775390625
0.040283203125
0.040283203125
2.792431640625
3.0462158203125
3.0470214843749996
3.0494384765625
3.0478271484375
3.0429931640624996
3.0462158203125
3.0462158203125
3.0478271484375
3.04541015625
3.0470214843749996
3.0244628906249997
3.037353515625
3.0244628906249997
3.0446044921874997
3.043798828125
3.04541015625
3.0494384765625
3.04541015625
3.0470214843749996
3.0462158203125
0.1426025390625
0.040283203125
0.038671874999999994
0.038671874999999994
0.041088867187499996
0.040283203125
0.042700195312499994
0.04189453125
0.038671874999999994
0.040283203125
0.0394775390625
0.307763671875
0.2860107421875
0.32065429687499997
0.038671874999999994
0.041088867187499996
0.043505859375
0.0394775390625
0.038671874999999994
0.040283203125
0.037060546874999996
1.60166015625
3.0494384765625
3.0470214843749996
3.05185546875
3.04541015625
3.0478271484375
3.043798828125
3.0478271484375
3.0462158203125
3.0462158203125
3.0486328124999997
2.9592041015625
3.0421875
3.0010986328125
2.9398681640624997
3.0486328124999997
3.0462158203125
3.0462158203125
3.04541015625
3.0486328124999997
0.0322265625
1.2310546875
0.038671874999999994
0.04189453125
0.0394775390625
0.040283203125
0.041088867187499996
0.040283203125
0.041088867187499996
0.0378662109375
0.041088867187499996
0.040283203125
0.24089355468749998
0.1554931640625
0.2263916015625
0.2384765625
0.041088867187499996
0.041088867187499996
0.0362548828125
0.0378662109375
0.033837890625
0.040283203125
0.040283203125
2.769873046875
3.0526611328124997
3.0486328124999997
3.0470214843749996
3.043798828125
3.0429931640624996
3.0478271484375
3.0486328124999997
3.0470214843749996
3.0462158203125
3.04541015625
3.02607421875
3.0462158203125
3.02607421875
3.0462158203125
3.0462158203125
3.04541015625
3.0470214843749996
3.0470214843749996
3.0478271484375
0.4874267578125
0.08137207031249999
0.040283203125
0.037060546874999996
0.043505859375
0.040283203125
0.040283203125
0.038671874999999994
0.0394775390625
0.041088867187499996
0.07412109374999999
0.0394775390625
0.19658203124999998
0.2215576171875
0.22236328125
0.040283203125
0.042700195312499994
0.040283203125
0.040283203125
0.040283203125
0.038671874999999994
0.0378662109375
3.0397705078125
3.0470214843749996
3.0462158203125
3.0478271484375
3.043798828125
3.0462158203125
3.0494384765625
3.0486328124999997
3.0470214843749996
3.0462158203125
3.0446044921874997
3.0478271484375
3.043798828125
3.0147949218749996
3.0462158203125
3.0478271484375
3.0470214843749996
3.0446044921874997
3.0478271484375
3.0478271484375
2.2856689453125
0.153076171875
0.041088867187499996
0.040283203125
0.0443115234375
0.040283203125
0.0394775390625
0.04189453125
0.040283203125
0.040283203125
0.0733154296875
0.04189453125
0.095068359375
0.2586181640625
0.2537841796875
0.0394775390625
0.040283203125
0.04189453125
0.04189453125
0.040283203125
0.040283203125
0.040283203125
2.34609375
3.0470214843749996
3.0486328124999997
3.04541015625
3.0470214843749996
3.0446044921874997
3.0462158203125
3.0470214843749996
3.0446044921874997
3.0470214843749996
3.0478271484375
3.0470214843749996
3.0446044921874997
3.0139892578125
2.9398681640624997
3.0446044921874997
3.0486328124999997
3.0486328124999997
3.0446044921874997
1.8554443359375
1.332568359375
1.6000488281249998
0.04189453125
0.0443115234375
0.040283203125
0.040283203125
0.037060546874999996
0.0443115234375
0.04189453125
0.0394775390625
0.045117187499999996
0.0378662109375
0.12165527343749999
0.08701171875
0.103125
0.11762695312499999
0.040283203125
0.0394775390625
0.04189453125
0.0394775390625
0.040283203125
0.0378662109375
0.037060546874999996
3.0228515624999996
3.0478271484375
3.0478271484375
3.0462158203125
3.0478271484375
3.0494384765625
3.0462158203125
3.04541015625
3.0478271484375
3.0462158203125
3.04541015625
2.9946533203124996
3.0107666015624996
2.9785400390624996
3.0478271484375
3.0429931640624996
3.0462158203125
3.0462158203125
3.0478271484375
3.0486328124999997
1.3672119140624999
0.037060546874999996
0.04189453125
0.040283203125
0.040283203125
0.0394775390625
0.042700195312499994
0.0322265625
0.0443115234375
0.040283203125
0.124072265625
0.038671874999999994
0.14501953125
0.214306640625
0.275537109375
0.0394775390625
0.0378662109375
0.041088867187499996
0.04189453125
0.041088867187499996
0.037060546874999996
0.39396972656249996
2.5708740234375
3.043798828125
3.0470214843749996
3.050244140625
3.0462158203125
3.0462158203125
3.0446044921874997
3.0478271484375
3.0478271484375
3.0462158203125
2.8431884765624997
3.0486328124999997
3.0494384765625
3.043798828125
3.04541015625
3.0470214843749996
3.0421875
3.0462158203125
3.0429931640624996
3.04541015625
0.040283203125
0.0394775390625
0.037060546874999996
0.038671874999999994
0.0394775390625
0.040283203125
0.041088867187499996
0.040283203125
0.0394775390625
0.040283203125
0.0515625
0.25217285156249997
0.0620361328125
0.1554931640625
0.18691406249999998
0.038671874999999994
0.041088867187499996
0.040283203125
0.041088867187499996
0.040283203125
0.0394775390625
0.0443115234375
2.2776123046875
3.0486328124999997
3.050244140625
3.0478271484375
3.043798828125
3.043798828125
3.0462158203125
3.0462158203125
3.050244140625
3.0486328124999997
3.018017578125
2.9841796874999997
3.0446044921874997
3.0389648437499996
2.9882080078124997
3.050244140625
3.050244140625
3.0462158203125
3.0462158203125
2.3960449218749997
3.0462158203125
0.8225830078124999
0.0378662109375
0.0362548828125
0.0394775390625
0.041088867187499996
0.040283203125
0.040283203125
0.042700195312499994
0.037060546874999996
0.040283203125
0.29970703125
0.13212890624999998
0.116015625
0.16274414062499998
0.1780517578125
0.040283203125
0.041088867187499996
0.0394775390625
0.0394775390625
0.0475341796875
0.040283203125
0.10634765624999999
3.04541015625
3.0478271484375
3.0429931640624996
3.0470214843749996
3.0470214843749996
3.0446044921874997
3.0462158203125
3.04541015625
3.0486328124999997
3.0486328124999997
3.0446044921874997
3.0446044921874997
3.011572265625
3.0325195312499997
3.0421875
3.043798828125
3.0470214843749996
3.050244140625
3.0470214843749996
2.2349121093749997
0.15791015625
0.033032226562499996
0.042700195312499994
0.038671874999999994
0.0394775390625
0.041088867187499996
0.040283203125
0.041088867187499996
0.0394775390625
0.0394775390625
0.146630859375
0.16677246093749998
0.2344482421875
0.265869140625
0.2811767578125
0.041088867187499996
0.040283203125
0.037060546874999996
0.040283203125
0.042700195312499994
0.0378662109375
0.040283203125
2.808544921875
3.0486328124999997
3.0446044921874997
3.0470214843749996
3.043798828125
3.0486328124999997
3.0462158203125
3.0397705078125
3.043798828125
3.043798828125
2.9559814453124997
3.04541015625
3.0478271484375
3.0462158203125
3.0470214843749996
3.0470214843749996
3.0470214843749996
3.0462158203125
3.0462158203125
3.04541015625
3.0462158203125
0.24492187499999998
0.038671874999999994
0.037060546874999996
0.0394775390625
0.042700195312499994
0.040283203125
0.038671874999999994
0.0394775390625
0.042700195312499994
0.0394775390625
0.37302246093749997
0.22075195312499998
0.21269531249999998
0.21591796875
0.04189453125
0.040283203125
0.042700195312499994
0.037060546874999996
0.0394775390625
0.040283203125
0.0362548828125
2.5587890625
3.0462158203125
3.04541015625
3.0486328124999997
3.0470214843749996
3.050244140625
3.0446044921874997
3.0470214843749996
3.050244140625
3.0446044921874997
3.0478271484375
2.9463134765624996
3.0486328124999997
3.0309082031249996
3.0470214843749996
3.04541015625
3.043798828125
3.04541015625
3.0462158203125
2.7658447265625
3.04541015625
0.404443359375
0.04189453125
0.043505859375
0.040283203125
0.042700195312499994
0.04189453125
0.038671874999999994
0.04189453125
0.03544921875
0.040283203125
0.040283203125
0.207861328125
0.159521484375
0.21269531249999998
0.042700195312499994
0.041088867187499996
0.0362548828125
0.0394775390625
0.040283203125
0.041088867187499996
0.038671874999999994
1.74345703125
3.0421875
3.04541015625
3.0478271484375
3.04541015625
3.0486328124999997
3.0470214843749996
3.0462158203125
3.0462158203125
3.0462158203125
3.04541015625
3.0429931640624996
3.0494384765625
3.01318359375
3.0010986328125
3.0478271484375
3.0462158203125
3.0462158203125
3.0478271484375
3.0470214843749996
0.041088867187499996
1.2310546875
0.038671874999999994
0.043505859375
0.040283203125
0.041088867187499996
0.041088867187499996
0.0394775390625
0.040283203125
0.040283203125
0.0394775390625
0.1490478515625
0.0394775390625
0.198193359375
0.278759765625
0.230419921875
0.0362548828125
0.0394775390625
0.040283203125
0.041088867187499996
0.041088867187499996
0.041088867187499996
0.0443115234375
2.4548583984375
3.050244140625
3.050244140625
3.0462158203125
3.04541015625
3.0494384765625
3.0446044921874997
3.0429931640624996
3.0470214843749996
3.0470214843749996
2.9156982421874997
3.0486328124999997
3.0446044921874997
3.0075439453125
3.0470214843749996
3.0478271484375
3.0470214843749996
3.0494384765625
3.0470214843749996
3.0478271484375
0.6985107421875
0.1699951171875
0.041088867187499996
0.040283203125
0.04189453125
0.041088867187499996
0.0394775390625
0.041088867187499996
0.0378662109375
0.040283203125
0.041088867187499996
0.0910400390625
0.17080078124999998
0.1740234375
0.201416015625
0.043505859375
0.041088867187499996
0.043505859375
0.040283203125
0.0394775390625
0.0394775390625
0.04189453125
2.466943359375
3.0462158203125
3.0470214843749996
3.0462158203125
3.0478271484375
3.0462158203125
3.0421875
3.0486328124999997
3.0470214843749996
3.0510498046874996
3.0486328124999997
3.0446044921874997
3.0204345703124997
3.0067382812499996
3.0478271484375
3.0462158203125
3.0462158203125
3.0462158203125
3.0470214843749996
1.5106201171875
3.0405761718749997
0.30937499999999996
0.041088867187499996
0.0394775390625
0.0394775390625
0.040283203125
0.040283203125
0.041088867187499996
0.037060546874999996
0.038671874999999994
0.050756835937499994
0.0394775390625
0.046728515624999994
0.18046874999999998
0.2263916015625
0.037060546874999996
0.0394775390625
0.041088867187499996
0.040283203125
0.038671874999999994
0.037060546874999996
0.0378662109375
2.263916015625
3.043798828125
3.0470214843749996
3.0486328124999997
3.04541015625
3.0421875
3.0486328124999997
3.0470214843749996
3.0470214843749996
3.0470214843749996
3.0478271484375
3.0470214843749996
3.0421875
3.0421875
2.9978759765625
3.0486328124999997
3.0462158203125
3.0470214843749996
3.04541015625
3.0486328124999997
1.1432373046875
1.090869140625
0.038671874999999994
0.0394775390625
0.042700195312499994
0.038671874999999994
0.0394775390625
0.0394775390625
0.03544921875
0.040283203125
0.04189453125
0.14018554687499998
0.043505859375
0.1716064453125
0.2376708984375
0.2731201171875
0.040283203125
0.040283203125
0.038671874999999994
0.041088867187499996
0.0378662109375
0.0394775390625
0.57041015625
2.5853759765624997
3.0478271484375
3.0470214843749996
3.04541015625
3.0486328124999997
3.0478271484375
3.0494384765625
3.0470214843749996
3.0510498046874996
3.0486328124999997
2.8496337890624996
3.0486328124999997
3.0494384765625
3.034130859375
3.0429931640624996
3.0470214843749996
3.04541015625
3.0470214843749996
3.0462158203125
3.04541015625
0.040283203125
0.252978515625
0.0394775390625
0.0443115234375
0.040283203125
0.0394775390625
0.049951171875
0.040283203125
0.0394775390625
0.041088867187499996
0.0394775390625
0.362548828125
0.10151367187499999
0.18369140625
0.1699951171875
0.040283203125
0.041088867187499996
0.040283203125
0.04189453125
0.040283203125
0.038671874999999994
0.04189453125
2.2671386718749997
3.0462158203125
3.0446044921874997
3.0446044921874997
3.0470214843749996
3.0462158203125
3.0510498046874996
3.04541015625
3.043798828125
3.043798828125
3.04541015625
3.043798828125
3.0462158203125
3.043798828125
3.0486328124999997
3.0510498046874996
3.04541015625
3.0486328124999997
3.0494384765625
3.0429931640624996
3.050244140625
0.049951171875
0.0394775390625
0.040283203125
0.0362548828125
0.040283203125
0.041088867187499996
0.04189453125
0.043505859375
0.0394775390625
0.0394775390625
0.40605468749999996
0.1232666015625
0.22316894531249998
0.2634521484375
0.040283203125
0.038671874999999994
0.043505859375
0.038671874999999994
0.040283203125
0.041088867187499996
0.038671874999999994
2.5571777343749997
3.0486328124999997
3.04541015625
3.050244140625
3.04541015625
3.0478271484375
3.04541015625
3.04541015625
3.043798828125
3.0470214843749996
3.0470214843749996
3.021240234375
3.0470214843749996
3.04541015625
3.01318359375
3.0470214843749996
3.0462158203125
3.0462158203125
3.0413818359375
3.0478271484375
3.0413818359375
0.146630859375
0.041088867187499996
0.0378662109375
0.033837890625
0.04189453125
0.042700195312499994
0.043505859375
0.041088867187499996
0.043505859375
0.041088867187499996
0.3021240234375
0.27634277343749997
0.24814453125
0.23686523437499998
0.1861083984375
0.043505859375
0.04189453125
0.040283203125
0.041088867187499996
0.042700195312499994
0.042700195312499994
1.0642822265625
3.0470214843749996
3.0478271484375
3.04541015625
3.0462158203125
3.043798828125
3.0462158203125
3.0462158203125
3.0429931640624996
3.0446044921874997
3.0486328124999997
3.0429931640624996
3.0204345703124997
3.01318359375
3.0067382812499996
3.0470214843749996
3.0462158203125
3.0462158203125
3.0486328124999997
3.0486328124999997
1.7668212890625
0.042700195312499994
0.3520751953125
0.043505859375
0.041088867187499996
0.040283203125
0.0378662109375
0.042700195312499994
0.042700195312499994
0.040283203125
0.04189453125
0.0443115234375
0.0394775390625
0.11923828125
0.17885742187499998
0.16677246093749998
0.0394775390625
0.0394775390625
0.038671874999999994
0.042700195312499994
0.040283203125
0.0394775390625
0.038671874999999994
2.843994140625
3.04541015625
3.0470214843749996
3.0462158203125
3.0486328124999997
3.0462158203125
3.0446044921874997
3.0405761718749997
3.0478271484375
3.05185546875
3.0478271484375
3.04541015625
3.043798828125
3.02607421875
3.0486328124999997
3.050244140625
3.0494384765625
3.0486328124999997
3.0446044921874997
3.0470214843749996
3.0486328124999997
0.2425048828125
0.038671874999999994
0.0394775390625
0.040283203125
0.0394775390625
0.04189453125
0.040283203125
0.040283203125
0.040283203125
0.046728515624999994
0.0394775390625
0.259423828125
0.252978515625
0.2860107421875
0.042700195312499994
0.0394775390625
0.0394775390625
0.0378662109375
0.041088867187499996
0.037060546874999996
0.0394775390625
2.8713867187499997
3.0421875
3.04541015625
3.04541015625
3.0486328124999997
3.0470214843749996
3.043798828125
3.0478271484375
3.0470214843749996
3.0462158203125
3.0470214843749996
3.027685546875
3.0462158203125
3.0220458984375
3.0478271484375
3.0462158203125
3.0470214843749996
3.0446044921874997
3.0470214843749996
2.7569824218749996
0.04189453125
0.1699951171875
0.040283203125
0.040283203125
0.0394775390625
0.041088867187499996
0.040283203125
0.0378662109375
0.04189453125
0.04189453125
0.0362548828125
0.038671874999999994
0.29326171875
0.2344482421875
0.2578125
0.0394775390625
0.040283203125
0.041088867187499996
0.040283203125
0.042700195312499994
0.040283203125
0.040283203125
1.4791992187499998
2.92294921875
3.0470214843749996
3.050244140625
3.0470214843749996
3.0470214843749996
3.0413818359375
3.0470214843749996
3.0470214843749996
3.0462158203125
3.04541015625
3.0478271484375
2.9922363281249997
3.04541015625
3.0164062499999997
3.0470214843749996
3.0470214843749996
3.0478271484375
3.0470214843749996
3.0462158203125
0.041088867187499996
1.087646484375
0.042700195312499994
0.041088867187499996
0.0443115234375
0.040283203125
0.041088867187499996
0.0394775390625
0.042700195312499994
0.0394775390625
0.042700195312499994
0.045117187499999996
0.0394775390625
0.1200439453125
0.201416015625
0.20866699218749998
0.042700195312499994
0.040283203125
0.041088867187499996
0.04189453125
0.040283203125
0.0394775390625
0.038671874999999994
2.3533447265625
3.0486328124999997
3.04541015625
3.0470214843749996
3.0478271484375
3.04541015625
3.0470214843749996
3.0470214843749996
3.0494384765625
3.0486328124999997
3.0091552734375
3.0349365234374996
3.0244628906249997
3.005126953125
3.0462158203125
3.0446044921874997
3.0478271484375
3.0494384765625
3.0462158203125
3.0478271484375
1.3704345703124998
0.054785156249999994
0.041088867187499996
0.041088867187499996
0.041088867187499996
0.0394775390625
0.038671874999999994
0.0394775390625
0.0362548828125
0.041088867187499996
0.1087646484375
0.037060546874999996
0.23203125
0.2811767578125
0.265869140625
0.0378662109375
0.04189453125
0.0394775390625
0.0443115234375
0.0394775390625
0.041088867187499996
0.041088867187499996
2.2993652343749997
3.0510498046874996
3.050244140625
3.043798828125
3.0470214843749996
3.0486328124999997
3.043798828125
3.0486328124999997
3.0470214843749996
3.0470214843749996
2.811767578125
2.9986816406249996
3.0486328124999997
2.9882080078124997
3.043798828125
3.0470214843749996
3.0470214843749996
3.0486328124999997
3.0470214843749996
1.625830078125
3.0462158203125
0.24814453125
0.0394775390625
0.040283203125
0.041088867187499996
0.038671874999999994
0.041088867187499996
0.0394775390625
0.040283203125
0.037060546874999996
0.061230468749999996
0.3150146484375
0.15146484375
0.15629882812499998
0.22719726562499998
0.040283203125
0.046728515624999994
0.040283203125
0.038671874999999994
0.0394775390625
0.041088867187499996
0.040283203125
1.7934082031249998
2.8456054687499996
3.0486328124999997
3.04541015625
3.0470214843749996
3.04541015625
3.0462158203125
3.0494384765625
3.0470214843749996
3.0486328124999997
3.005126953125
3.050244140625
2.9583984374999996
3.0220458984375
2.9680664062499997
3.0462158203125
3.0486328124999997
3.0510498046874996
3.0478271484375
3.0486328124999997
3.043798828125
1.8111328125
0.03544921875
0.037060546874999996
0.042700195312499994
0.041088867187499996
0.038671874999999994
0.037060546874999996
0.040283203125
0.0394775390625
0.038671874999999994
0.11359863281249999
0.040283203125
0.1796630859375
0.2255859375
0.230419921875
0.040283203125
0.037060546874999996
0.04189453125
0.042700195312499994
0.041088867187499996
0.0378662109375
0.038671874999999994
2.454052734375
3.0470214843749996
3.0470214843749996
3.0462158203125
3.043798828125
3.0486328124999997
3.0494384765625
3.0462158203125
3.050244140625
3.04541015625
2.6208251953125
3.0510498046874996
3.0301025390625
3.011572265625
3.04541015625
3.0470214843749996
3.0494384765625
3.0494384765625
3.0486328124999997
3.04541015625
0.041088867187499996
0.124072265625
0.04189453125
0.041088867187499996
0.0394775390625
0.038671874999999994
0.040283203125
0.037060546874999996
0.0394775390625
0.04189453125
0.08620605468749999
0.5196533203125
0.18288574218749998
0.3198486328125
0.298095703125
0.041088867187499996
0.041088867187499996
0.0362548828125
0.04189453125
0.0394775390625
0.042700195312499994
0.042700195312499994
2.56845703125
3.0478271484375
3.0470214843749996
3.0470214843749996
3.0446044921874997
3.0462158203125
3.0470214843749996
3.0470214843749996
3.0478271484375
3.0526611328124997
3.0429931640624996
3.043798828125
3.0462158203125
2.977734375
3.0429931640624996
3.050244140625
3.043798828125
3.043798828125
3.0462158203125
3.04541015625
3.04541015625
0.678369140625
0.04189453125
0.0394775390625
0.040283203125
0.037060546874999996
0.041088867187499996
0.041088867187499996
0.042700195312499994
0.040283203125
0.057202148437499996
0.1409912109375
0.0708984375
0.17080078124999998
0.1941650390625
0.1554931640625
0.0394775390625
0.0394775390625
0.04189453125
0.040283203125
0.041088867187499996
0.040283203125
0.2634521484375
3.0462158203125
3.04541015625
3.0478271484375
3.0478271484375
3.0510498046874996
3.04541015625
3.0470214843749996
3.0470214843749996
3.0446044921874997
3.0470214843749996
3.029296875
2.9720947265624997
2.972900390625
2.9205322265625
3.0470214843749996
3.0462158203125
3.0486328124999997
3.0486328124999997
3.04541015625
1.0739501953125
0.9611572265624999
0.0362548828125
0.0394775390625
0.0394775390625
0.040283203125
0.038671874999999994
0.041088867187499996
0.037060546874999996
0.040283203125
0.04189453125
0.08540039062499999
0.08540039062499999
0.27231445312499997
0.27231445312499997
0.2441162109375
0.0394775390625
0.042700195312499994
0.040283203125
0.0378662109375
0.04189453125
0.04189453125
1.5863525390625
3.0462158203125
3.0462158203125
3.04541015625
3.0470214843749996
3.0486328124999997
3.0486328124999997
3.0470214843749996
3.0470214843749996
3.043798828125
3.0478271484375
3.0421875
3.0446044921874997
3.0252685546875
3.0317138671875
3.0462158203125
3.0470214843749996
3.050244140625
3.0446044921874997
3.050244140625
3.0470214843749996
0.391552734375
0.3923583984375
0.040283203125
0.040283203125
0.04189453125
0.040283203125
0.042700195312499994
0.042700195312499994
0.0362548828125
0.0394775390625
0.11762695312499999
0.420556640625
0.21108398437499998
0.17724609375
0.26022949218749997
0.0394775390625
0.0394775390625
0.040283203125
0.043505859375
0.040283203125
0.0362548828125
0.041088867187499996
3.0470214843749996
3.04541015625
3.04541015625
3.0494384765625
3.04541015625
3.0478271484375
3.0470214843749996
3.0486328124999997
3.0462158203125
3.0478271484375
3.04541015625
2.860107421875
2.9664550781249996
2.9438964843749997
3.0470214843749996
3.0470214843749996
3.0526611328124997
3.0478271484375
3.0478271484375
3.0470214843749996
3.04541015625
0.7275146484374999
0.042700195312499994
0.04189453125
0.0475341796875
0.040283203125
0.038671874999999994
0.0378662109375
0.043505859375
0.043505859375
0.0362548828125
0.04189453125
0.20625
0.143408203125
0.20866699218749998
0.040283203125
0.041088867187499996
0.0394775390625
0.04189453125
0.043505859375
0.040283203125
0.0394775390625
1.6322753906249998
3.0470214843749996
3.04541015625
3.0462158203125
3.0470214843749996
3.0462158203125
3.04541015625
3.0462158203125
3.050244140625
3.0494384765625
3.0413818359375
2.889111328125
3.043798828125
2.9817626953125
2.9688720703125
3.050244140625
3.0462158203125
3.0470214843749996
3.0470214843749996
2.8319091796875
0.2666748046875
1.56943359375
0.037060546874999996
0.041088867187499996
0.040283203125
0.038671874999999994
0.041088867187499996
0.043505859375
0.0394775390625
0.040283203125
0.043505859375
0.103125
0.23122558593749998
0.1796630859375
0.18046874999999998
0.15629882812499998
0.041088867187499996
0.0443115234375
0.040283203125
0.04189453125
0.041088867187499996
0.0394775390625
0.040283203125
3.0486328124999997
3.0462158203125
3.04541015625
3.043798828125
3.0470214843749996
3.0470214843749996
3.0462158203125
3.0470214843749996
3.043798828125
3.04541015625
3.043798828125
3.0421875
2.9785400390624996
2.9801513671874997
3.050244140625
3.0462158203125
3.0446044921874997
3.0470214843749996
3.0470214843749996
3.0478271484375
1.6363037109374998
0.165966796875
0.041088867187499996
0.041088867187499996
0.040283203125
0.040283203125
0.03544921875
0.0394775390625
0.040283203125
0.038671874999999994
0.042700195312499994
0.0394775390625
0.1611328125
0.24895019531249998
0.2263916015625
0.0394775390625
0.040283203125
0.0394775390625
0.040283203125
0.041088867187499996
0.040283203125
0.042700195312499994
2.6208251953125
3.0462158203125
3.0470214843749996
3.0462158203125
3.04541015625
3.0470214843749996
3.0462158203125
3.0486328124999997
3.04541015625
3.0494384765625
3.04541015625
2.969677734375
3.0478271484375
2.9390625
3.0470214843749996
3.0446044921874997
3.04541015625
3.0470214843749996
3.0470214843749996
3.0462158203125
1.561376953125
0.36093749999999997
0.038671874999999994
0.040283203125
0.0378662109375
0.0394775390625
0.038671874999999994
0.0378662109375
0.0394775390625
0.041088867187499996
0.040283203125
0.040283203125
0.13857421875
0.14018554687499998
0.233642578125
0.037060546874999996
0.040283203125
0.045117187499999996
0.037060546874999996
0.041088867187499996
0.0394775390625
0.0394775390625
2.1954345703125
3.0462158203125
3.0486328124999997
3.0462158203125
3.0446044921874997
3.0470214843749996
3.04541015625
3.0470214843749996
3.04541015625
3.0486328124999997
2.8512451171874997
3.0486328124999997
3.037353515625
2.9680664062499997
2.905224609375
3.0478271484375
3.0462158203125
3.0486328124999997
3.0462158203125
1.4864501953125
3.0421875
1.044140625
0.0636474609375
0.042700195312499994
0.0394775390625
0.0394775390625
0.037060546874999996
0.041088867187499996
0.0443115234375
0.0394775390625
0.033837890625
0.19013671875
0.0443115234375
0.1941650390625
0.24089355468749998
0.201416015625
0.038671874999999994
0.037060546874999996
0.037060546874999996
0.038671874999999994
0.042700195312499994
0.042700195312499994
1.02158203125
3.0470214843749996
3.0470214843749996
3.04541015625
3.0494384765625
3.04541015625
3.0470214843749996
3.0470214843749996
3.0478271484375
3.0486328124999997
3.0470214843749996
3.0462158203125
2.9624267578124996
2.9841796874999997
2.92294921875
3.0486328124999997
3.0478271484375
3.0446044921874997
3.04541015625
3.0462158203125
3.0486328124999997
0.037060546874999996
0.041088867187499996
0.0394775390625
0.040283203125
0.041088867187499996
0.038671874999999994
0.040283203125
0.0475341796875
0.040283203125
0.040283203125
0.0539794921875
0.0394775390625
0.12890625
0.230419921875
0.23686523437499998
0.0394775390625
0.0378662109375
0.0378662109375
0.037060546874999996
0.040283203125
0.038671874999999994
0.0394775390625
2.4564697265624997
3.043798828125
3.0470214843749996
3.0462158203125
3.04541015625
3.0478271484375
3.0494384765625
3.0478271484375
3.050244140625
3.0478271484375
2.6764160156249996
3.0413818359375
2.98740234375
2.9253662109375
3.0470214843749996
3.0462158203125
3.04541015625
3.0470214843749996
3.0470214843749996
3.0470214843749996
0.04189453125
0.217529296875
0.040283203125
0.04189453125
0.041088867187499996
0.0362548828125
0.043505859375
0.041088867187499996
0.0394775390625
0.041088867187499996
0.0378662109375
0.3029296875
0.120849609375
0.17644042968749998
0.20866699218749998
0.042700195312499994
0.0362548828125
0.041088867187499996
0.0394775390625
0.0362548828125
0.0378662109375
0.0394775390625
2.640966796875
3.0429931640624996
3.0470214843749996
3.0494384765625
3.0446044921874997
3.0446044921874997
3.0478271484375
3.0470214843749996
3.0478271484375
3.0486328124999997
3.0494384765625
3.0389648437499996
3.043798828125
3.0059326171875
2.9060302734374996
3.0486328124999997
3.0446044921874997
3.0470214843749996
3.0470214843749996
3.0478271484375
3.0446044921874997
0.4922607421875
0.04189453125
0.0394775390625
0.0394775390625
0.038671874999999994
0.0394775390625
0.0394775390625
0.038671874999999994
0.040283203125
0.041088867187499996
0.2972900390625
0.19013671875
0.1651611328125
0.24814453125
0.18046874999999998
0.040283203125
0.040283203125
0.038671874999999994
0.0378662109375
0.0394775390625
0.0394775390625
1.21494140625
2.953564453125
3.0462158203125
3.0494384765625
3.0486328124999997
3.0486328124999997
3.0470214843749996
3.0486328124999997
3.043798828125
3.04541015625
3.0470214843749996
3.0446044921874997
3.0228515624999996
3.029296875
2.9801513671874997
3.043798828125
3.0462158203125
3.0510498046874996
3.04541015625
3.0478271484375
1.4397216796874999
0.733154296875
0.040283203125
0.037060546874999996
0.041088867187499996
0.041088867187499996
0.0394775390625
0.038671874999999994
0.041088867187499996
0.040283203125
0.037060546874999996
0.07814941406249999
0.1538818359375
0.1877197265625
0.22236328125
0.1957763671875
0.040283203125
0.038671874999999994
0.04189453125
0.038671874999999994
0.0394775390625
0.0394775390625
0.0394775390625
2.953564453125
3.0462158203125
3.0462158203125
3.0486328124999997
3.04541015625
3.04541015625
3.050244140625
3.04541015625
3.04541015625
3.04541015625
2.7690673828124996
3.043798828125
2.9761230468749997
2.9511474609375
3.043798828125
3.050244140625
3.0470214843749996
3.0446044921874997
3.0462158203125
3.0470214843749996
3.0462158203125
0.44553222656249997
0.040283203125
0.041088867187499996
0.0443115234375
0.040283203125
0.041088867187499996
0.040283203125
0.041088867187499996
0.038671874999999994
0.040283203125
0.40927734374999997
0.16032714843749998
0.1877197265625
0.2054443359375
0.040283203125
0.0394775390625
0.040283203125
0.040283203125
0.0378662109375
0.040283203125
0.041088867187499996
2.9495361328125
3.0470214843749996
3.0462158203125
3.0478271484375
3.0470214843749996
3.0470214843749996
3.0446044921874997
3.0421875
3.0462158203125
3.0462158203125
3.0494384765625
2.9092529296875
3.04541015625
2.9801513671874997
3.0470214843749996
3.0462158203125
3.04541015625
3.0462158203125
3.0470214843749996
2.47177734375
3.0494384765625
0.4318359375
0.0378662109375
0.038671874999999994
0.040283203125
0.041088867187499996
0.0394775390625
0.041088867187499996
0.041088867187499996
0.041088867187499996
0.0394775390625
0.04189453125
0.291650390625
0.201416015625
0.2618408203125
0.040283203125
0.040283203125
0.04189453125
0.046728515624999994
0.040283203125
0.040283203125
0.040283203125
1.72734375
3.0470214843749996
3.04541015625
3.0470214843749996
3.0462158203125
3.0486328124999997
3.0494384765625
3.043798828125
3.0470214843749996
3.0421875
3.0429931640624996
3.0478271484375
3.043798828125
2.9946533203124996
3.003515625
3.0486328124999997
3.0462158203125
3.0494384765625
3.0462158203125
3.04541015625
0.04189453125
1.3962158203125
0.107958984375
0.0394775390625
0.0394775390625
0.043505859375
0.043505859375
0.040283203125
0.0394775390625
0.0443115234375
0.0394775390625
0.042700195312499994
0.037060546874999996
0.1313232421875
0.1861083984375
0.21269531249999998
0.040283203125
0.04189453125
0.0394775390625
0.040283203125
0.041088867187499996
0.040283203125
0.0394775390625
2.5821533203125
3.0462158203125
3.0486328124999997
3.0462158203125
3.04541015625
3.0478271484375
3.0470214843749996
3.0429931640624996
3.0470214843749996
3.0462158203125
2.9608154296875
2.9986816406249996
3.0147949218749996
2.9600097656249997
3.05185546875
3.04541015625
3.0470214843749996
3.04541015625
3.04541015625
3.0470214843749996
0.9095947265625
0.24895019531249998
0.040283203125
0.0346435546875
0.043505859375
0.0394775390625
0.0394775390625
0.041088867187499996
0.038671874999999994
0.041088867187499996
0.04189453125
0.0443115234375
0.16838378906249998
0.24733886718749998
0.23203125
0.0378662109375
0.0394775390625
0.040283203125
0.0394775390625
0.041088867187499996
0.041088867187499996
0.0394775390625
3.0470214843749996
3.0413818359375
3.050244140625
3.04541015625
3.0446044921874997
3.0486328124999997
3.0470214843749996
3.0446044921874997
3.0478271484375
3.0470214843749996
3.0446044921874997
2.98740234375
3.0486328124999997
3.0075439453125
3.0446044921874997
3.0478271484375
3.043798828125
3.0446044921874997
3.04541015625
1.5662109375
3.043798828125
0.185302734375
0.0394775390625
0.04189453125
0.04189453125
0.041088867187499996
0.04189453125
0.038671874999999994
0.041088867187499996
0.038671874999999994
0.040283203125
0.0394775390625
0.20625
0.1152099609375
0.17482910156249998
0.040283203125
0.0378662109375
0.04189453125
0.046728515624999994
0.0394775390625
0.040283203125
0.0394775390625
2.128564453125
3.027685546875
3.0429931640624996
3.04541015625
3.04541015625
3.0325195312499997
3.0446044921874997
3.0446044921874997
3.0470214843749996
3.053466796875
2.931005859375
3.0462158203125
2.9430908203125
2.9825683593749996
2.9600097656249997
3.0421875
3.043798828125
3.0462158203125
3.0478271484375
3.0470214843749996
2.2985595703125
1.393798828125
0.0378662109375
0.0378662109375
0.0378662109375
0.038671874999999994
0.040283203125
0.043505859375
0.040283203125
0.040283203125
0.0394775390625
0.04189453125
0.0378662109375
0.11923828125
0.182080078125
0.15629882812499998
0.038671874999999994
0.041088867187499996
0.040283203125
0.0346435546875
0.041088867187499996
0.040283203125
0.038671874999999994
2.44921875
3.0462158203125
3.0462158203125
3.0446044921874997
3.0462158203125
3.043798828125
3.0462158203125
3.043798828125
3.0478271484375
3.0405761718749997
2.763427734375
2.9583984374999996
2.979345703125
2.9342285156249996
3.0486328124999997
3.0486328124999997
3.0470214843749996
3.04541015625
3.0510498046874996
3.0470214843749996
0.0394775390625
0.30454101562499997
0.0443115234375
0.040283203125
0.040283203125
0.0394775390625
0.041088867187499996
0.0394775390625
0.0394775390625
0.040283203125
0.06606445312499999
0.3746337890625
0.149853515625
0.1998046875
0.2296142578125
0.0362548828125
0.0394775390625
0.040283203125
0.041088867187499996
0.041088867187499996
0.038671874999999994
0.0394775390625
2.5249511718749997
3.0470214843749996
3.043798828125
3.0494384765625
3.04541015625
3.0462158203125
3.0462158203125
3.0470214843749996
3.0478271484375
3.0470214843749996
3.0462158203125
3.04541015625
3.043798828125
2.9946533203124996
3.043798828125
3.0470214843749996
3.043798828125
3.0486328124999997
3.0494384765625
3.0470214843749996
3.043798828125
0.059619140625
0.038671874999999994
0.043505859375
0.0459228515625
0.041088867187499996
0.04189453125
0.0378662109375
0.0394775390625
0.040283203125
0.041088867187499996
0.09426269531249999
0.1039306640625
0.133740234375
0.201416015625
0.046728515624999994
0.042700195312499994
0.04189453125
0.040283203125
0.038671874999999994
0.043505859375
0.043505859375
2.7134765625
3.04541015625
3.0470214843749996
3.0486328124999997
3.04541015625
3.0462158203125
3.043798828125
3.043798828125
3.0470214843749996
3.0405761718749997
2.9197265624999997
3.0389648437499996
3.0156005859375
2.9986816406249996
2.94873046875
3.0470214843749996
3.050244140625
3.0446044921874997
3.04541015625
3.0462158203125
0.7790771484375
1.018359375
0.04189453125
0.041088867187499996
0.042700195312499994
0.038671874999999994
0.040283203125
0.040283203125
0.040283203125
0.041088867187499996
0.038671874999999994
0.32548828124999996
0.041088867187499996
0.1699951171875
0.207861328125
0.15146484375
0.040283203125
0.040283203125
0.040283203125
0.0394775390625
0.042700195312499994
0.0394775390625
0.0378662109375
2.8810546875
3.0486328124999997
3.0470214843749996
3.04541015625
3.043798828125
3.0470214843749996
3.0470214843749996
3.0470214843749996
3.04541015625
3.0494384765625
3.04541015625
3.0462158203125
3.0429931640624996
2.9745117187499996
3.0510498046874996
3.04541015625
3.0478271484375
3.0486328124999997
3.0486328124999997
2.2494140625
0.322265625
0.394775390625
0.041088867187499996
0.046728515624999994
0.040283203125
0.038671874999999994
0.041088867187499996
0.041088867187499996
0.040283203125
0.041088867187499996
0.08056640625
0.4068603515625
0.2199462890625
0.233642578125
0.21591796875
0.041088867187499996
0.0394775390625
0.040283203125
0.040283203125
0.040283203125
0.041088867187499996
0.042700195312499994
3.0446044921874997
3.0462158203125
3.0462158203125
3.0470214843749996
3.0486328124999997
3.04541015625
3.0462158203125
3.0486328124999997
3.0462158203125
3.0486328124999997
3.0510498046874996
2.9704833984374996
3.0389648437499996
2.9922363281249997
3.0470214843749996
3.0526611328124997
3.0478271484375
3.04541015625
3.0462158203125
3.0462158203125
3.0486328124999997
0.443115234375
0.037060546874999996
0.038671874999999994
0.0362548828125
0.041088867187499996
0.042700195312499994
0.04189453125
0.037060546874999996
0.0394775390625
0.041088867187499996
0.038671874999999994
0.2038330078125
0.1877197265625
0.23203125
0.040283203125
0.040283203125
0.041088867187499996
0.043505859375
0.042700195312499994
0.040283203125
0.043505859375
1.7877685546875
3.04541015625
3.04541015625
3.0462158203125
3.0462158203125
3.0470214843749996
3.050244140625
3.0462158203125
3.0486328124999997
3.0470214843749996
3.0470214843749996
2.9664550781249996
3.0494384765625
2.9865966796874996
3.0446044921874997
3.0462158203125
3.0470214843749996
3.04541015625
3.0429931640624996
2.9189208984375
0.27392578125
0.655810546875
0.04189453125
0.040283203125
0.040283203125
0.037060546874999996
0.040283203125
0.040283203125
0.043505859375
0.040283203125
0.043505859375
0.038671874999999994
0.24169921875
0.153076171875
0.19013671875
0.040283203125
0.04189453125
0.041088867187499996
0.03544921875
0.037060546874999996
0.0362548828125
0.0378662109375
0.8854248046875
3.0091552734375
3.0462158203125
3.04541015625
3.0478271484375
3.0486328124999997
3.0470214843749996
3.0462158203125
3.0478271484375
3.0462158203125
3.0462158203125
3.04541015625
3.0236572265625
3.0268798828124996
3.0325195312499997
3.0478271484375
3.04541015625
3.0462158203125
3.0478271484375
3.0478271484375
3.0486328124999997
1.6862548828125
0.20625
0.03544921875
0.0394775390625
0.038671874999999994
0.0394775390625
0.0394775390625
0.04189453125
0.0394775390625
0.041088867187499996
0.104736328125
0.041088867187499996
0.12810058593749998
0.193359375
0.21591796875
0.0394775390625
0.040283203125
0.0362548828125
0.040283203125
0.041088867187499996
0.03544921875
0.040283203125
2.6143798828125
3.0478271484375
3.0470214843749996
3.04541015625
3.0486328124999997
3.0462158203125
3.0446044921874997
3.0470214843749996
3.0470214843749996
3.0486328124999997
3.0462158203125
3.005126953125
3.0156005859375
2.9994873046875
3.0446044921874997
3.0478271484375
3.0494384765625
3.0470214843749996
3.0470214843749996
3.0462158203125
1.7909912109375
0.3681884765625
0.040283203125
0.0394775390625
0.0362548828125
0.041088867187499996
0.041088867187499996
0.0394775390625
0.04189453125
0.04189453125
0.038671874999999994
0.0394775390625
0.13857421875
0.207861328125
0.223974609375
0.0394775390625
0.0394775390625
0.040283203125
0.04189453125
