0.0475341796875
0.0475341796875
0.046728515624999994
0.045117187499999996
0.045117187499999996
0.04833984375
0.050756835937499994
0.046728515624999994
0.0459228515625
3.0566894531249997
3.0526611328124997
3.059912109375
3.0542724609375
3.0526611328124997
3.050244140625
3.0550781249999996
3.0526611328124997
3.0550781249999996
3.0526611328124997
3.05185546875
2.7102539062499997
2.7545654296874997
2.6522460937499996
2.6482177734374996
3.0526611328124997
3.05185546875
3.0486328124999997
3.053466796875
3.05185546875
3.0526611328124997
0.623583984375
0.0459228515625
0.046728515624999994
0.042700195312499994
0.0394775390625
0.04833984375
0.04833984375
0.043505859375
0.049145507812499996
0.046728515624999994
0.0443115234375
0.0443115234375
0.0459228515625
0.0459228515625
0.042700195312499994
0.0443115234375
0.0443115234375
0.046728515624999994
0.043505859375
0.041088867187499996
0.045117187499999996
0.8773681640625
3.0566894531249997
3.0558837890625
3.05185546875
3.053466796875
3.05185546875
3.05185546875
3.053466796875
3.05185546875
3.0526611328124997
2.972900390625
3.0510498046874996
2.8335205078124996
2.745703125
2.6699707031249997
3.053466796875
3.050244140625
3.0542724609375
3.0542724609375
3.05185546875
0.5035400390625
0.1716064453125
0.046728515624999994
0.046728515624999994
0.046728515624999994
0.0443115234375
0.042700195312499994
0.0459228515625
0.049951171875
0.04833984375
0.0459228515625
0.0459228515625
0.046728515624999994
0.045117187499999996
0.0459228515625
0.043505859375
0.049951171875
0.045117187499999996
0.0459228515625
0.0475341796875
0.0475341796875
0.045117187499999996
0.0475341796875
2.6522460937499996
3.053466796875
3.05185546875
3.053466796875
3.0550781249999996
3.0550781249999996
3.0526611328124997
3.0494384765625
3.0542724609375
3.001904296875
2.5467041015625
2.8222412109375
2.8359375
2.7819580078125
3.0526611328124997
3.05185546875
3.05185546875
3.0550781249999996
3.0510498046874996
3.05185546875
1.6508056640625
0.045117187499999996
0.04833984375
0.045117187499999996
0.0459228515625
0.0459228515625
0.046728515624999994
0.0475341796875
0.046728515624999994
0.0459228515625
0.0459228515625
0.1152099609375
0.0443115234375
0.0475341796875
0.043505859375
0.0459228515625
0.0459228515625
0.0475341796875
0.046728515624999994
0.045117187499999996
0.046728515624999994
0.0475341796875
2.711865234375
3.0550781249999996
3.05185546875
3.05185546875
3.0542724609375
3.0550781249999996
3.0526611328124997
3.0526611328124997
3.0526611328124997
2.9479248046874997
3.0526611328124997
2.9463134765624996
2.8593017578124997
2.8061279296875
3.050244140625
3.053466796875
3.05185546875
3.0526611328124997
3.0526611328124997
2.7134765625
3.05185546875
0.1474365234375
0.0459228515625
0.045117187499999996
0.046728515624999994
0.049145507812499996
0.0459228515625
0.046728515624999994
0.0459228515625
0.0475341796875
0.0515625
0.136962890625
0.0459228515625
0.046728515624999994
0.045117187499999996
0.0443115234375
0.04833984375
0.0459228515625
0.043505859375
0.0459228515625
0.045117187499999996
0.0459228515625
2.3154785156249997
3.0526611328124997
3.053466796875
3.0550781249999996
3.053466796875
3.0510498046874996
3.0542724609375
3.0510498046874996
3.053466796875
3.0526611328124997
3.053466796875
2.7900146484375
2.9261718749999996
2.8294921874999996
2.7690673828124996
3.050244140625
3.0526611328124997
3.0526611328124997
3.0526611328124997
3.0542724609375
1.0626708984375
0.285205078125
0.0459228515625
0.042700195312499994
0.046728515624999994
0.046728515624999994
0.046728515624999994
0.046728515624999994
0.046728515624999994
0.045117187499999996
0.043505859375
0.1345458984375
0.0749267578125
0.0459228515625
0.045117187499999996
0.049145507812499996
0.045117187499999996
0.0459228515625
0.042700195312499994
0.046728515624999994
0.0515625
0.0443115234375
1.48564453125
3.0574951171875
3.0510498046874996
3.0486328124999997
3.0526611328124997
3.0526611328124997
3.05185546875
3.0510498046874996
3.0550781249999996
3.0526611328124997
3.0462158203125
3.0526611328124997
2.963232421875
2.9495361328125
2.8834716796874997
3.053466796875
3.053466796875
3.053466796875
3.053466796875
3.053466796875
1.3349853515624999
0.0443115234375
0.045117187499999996
0.040283203125
0.0459228515625
0.046728515624999994
0.045117187499999996
0.046728515624999994
0.045117187499999996
0.0443115234375
0.046728515624999994
0.04833984375
0.043505859375
0.043505859375
0.043505859375
0.0475341796875
0.0459228515625
0.049145507812499996
0.046728515624999994
0.042700195312499994
0.049951171875
0.0443115234375
0.046728515624999994
2.341259765625
3.053466796875
3.05185546875
3.0510498046874996
3.05185546875
3.05185546875
3.0526611328124997
3.0550781249999996
3.0526611328124997
3.0301025390625
2.6683593749999996
3.001904296875
2.9463134765624996
2.8754150390624997
3.05185546875
3.050244140625
3.0526611328124997
3.05185546875
3.0550781249999996
3.0510498046874996
2.341259765625
0.2360595703125
0.046728515624999994
0.046728515624999994
0.046728515624999994
0.0475341796875
0.049951171875
0.0443115234375
0.04833984375
0.042700195312499994
0.049145507812499996
0.042700195312499994
0.045117187499999996
0.049145507812499996
0.0459228515625
0.045117187499999996
0.046728515624999994
0.049145507812499996
0.042700195312499994
0.0459228515625
0.046728515624999994
0.0459228515625
2.321923828125
3.0526611328124997
3.050244140625
3.0526611328124997
3.050244140625
3.0526611328124997
3.0526611328124997
3.0574951171875
3.0526611328124997
3.0510498046874996
2.7755126953125
3.003515625
2.8423828125
2.785986328125
3.0550781249999996
3.0526611328124997
3.05185546875
3.0510498046874996
3.050244140625
1.3478759765625
2.9688720703125
0.0459228515625
0.046728515624999994
0.043505859375
0.042700195312499994
0.049951171875
0.0459228515625
0.0475341796875
0.046728515624999994
0.0475341796875
0.04833984375
0.298095703125
0.046728515624999994
0.04833984375
0.0475341796875
0.045117187499999996
0.0443115234375
0.0475341796875
0.0459228515625
0.045117187499999996
0.04833984375
0.0475341796875
0.6993164062499999
3.0550781249999996
3.0526611328124997
3.0542724609375
3.0526611328124997
3.05185546875
3.05185546875
3.0574951171875
3.05185546875
3.050244140625
2.9801513671874997
2.8109619140624997
2.89072265625
2.8214355468749996
2.7827636718749997
3.0526611328124997
3.0510498046874996
3.0510498046874996
3.0510498046874996
3.0526611328124997
2.29775390625
1.2310546875
0.0475341796875
0.046728515624999994
0.046728515624999994
0.046728515624999994
0.04833984375
0.0459228515625
0.046728515624999994
0.0459228515625
0.045117187499999996
0.1941650390625
0.049145507812499996
0.0459228515625
0.04833984375
0.0459228515625
0.049951171875
0.04833984375
0.045117187499999996
0.045117187499999996
0.049145507812499996
0.046728515624999994
0.045117187499999996
2.9624267578124996
3.05185546875
3.0526611328124997
3.050244140625
3.0526611328124997
3.053466796875
3.0558837890625
3.0542724609375
3.050244140625
2.9720947265624997
3.053466796875
2.856884765625
2.8697753906249996
2.802099609375
3.0494384765625
3.05185546875
3.053466796875
3.05185546875
3.0510498046874996
3.05185546875
0.046728515624999994
0.1329345703125
0.046728515624999994
0.0459228515625
0.046728515624999994
0.04833984375
0.0459228515625
0.045117187499999996
0.049145507812499996
0.0443115234375
0.0475341796875
0.045117187499999996
0.0733154296875
0.049145507812499996
0.046728515624999994
0.046728515624999994
0.046728515624999994
0.049145507812499996
0.049145507812499996
0.045117187499999996
0.0459228515625
0.049145507812499996
2.8939453124999996
3.0542724609375
3.0526611328124997
3.050244140625
3.0526611328124997
3.0550781249999996
3.05185546875
3.0566894531249997
3.0526611328124997
2.9970703125
2.956787109375
2.9761230468749997
2.892333984375
2.8302978515625
3.0510498046874996
3.05185546875
3.05185546875
3.0558837890625
3.0550781249999996
3.0526611328124997
3.0550781249999996
0.0459228515625
0.0459228515625
0.046728515624999994
0.045117187499999996
0.0459228515625
0.046728515624999994
0.046728515624999994
0.046728515624999994
0.0394775390625
0.0459228515625
0.046728515624999994
0.0459228515625
0.0475341796875
0.049145507812499996
0.046728515624999994
0.0459228515625
0.042700195312499994
0.0459228515625
0.045117187499999996
0.046728515624999994
0.045117187499999996
2.4580810546875
3.0526611328124997
3.0542724609375
3.05185546875
3.0486328124999997
3.0526611328124997
3.05185546875
3.04541015625
3.0542724609375
2.9334228515625
2.8133789062499996
2.92939453125
2.9181152343749996
2.8053222656249996
2.7183105468749997
3.0526611328124997
3.0486328124999997
3.0494384765625
3.05185546875
1.284228515625
0.41733398437499997
1.6306640625
0.046728515624999994
0.049145507812499996
0.0459228515625
0.046728515624999994
0.0459228515625
0.0459228515625
0.046728515624999994
0.0459228515625
0.0459228515625
0.049951171875
0.045117187499999996
0.04833984375
0.046728515624999994
0.049951171875
0.0459228515625
0.046728515624999994
0.042700195312499994
0.046728515624999994
0.049951171875
0.0443115234375
0.0459228515625
3.0027099609374996
3.0526611328124997
3.0510498046874996
3.0566894531249997
3.0526611328124997
3.0526611328124997
3.053466796875
3.0486328124999997
3.053466796875
2.977734375
2.953564453125
2.9285888671875
2.840771484375
2.769873046875
3.05185546875
3.050244140625
3.0558837890625
3.0558837890625
3.05185546875
3.0566894531249997
0.0459228515625
0.045117187499999996
0.046728515624999994
0.0475341796875
0.046728515624999994
0.043505859375
0.0475341796875
0.037060546874999996
0.04833984375
0.0443115234375
0.046728515624999994
0.04833984375
0.0475341796875
0.049951171875
0.046728515624999994
0.045117187499999996
0.046728515624999994
0.042700195312499994
0.049145507812499996
0.0475341796875
0.046728515624999994
0.046728515624999994
2.6031005859375
3.0526611328124997
3.0494384765625
3.0558837890625
3.053466796875
3.0486328124999997
3.0574951171875
3.0510498046874996
3.0526611328124997
3.0526611328124997
3.0228515624999996
2.9608154296875
2.9761230468749997
2.892333984375
3.0526611328124997
3.053466796875
3.0494384765625
3.053466796875
3.053466796875
3.0486328124999997
0.042700195312499994
0.08701171875
0.0443115234375
0.0459228515625
0.049951171875
0.0475341796875
0.0475341796875
0.049145507812499996
0.04833984375
0.043505859375
0.0443115234375
0.09426269531249999
0.049951171875
0.037060546874999996
0.0443115234375
0.046728515624999994
0.04833984375
0.0475341796875
0.0475341796875
0.0475341796875
0.0459228515625
0.046728515624999994
2.4419677734375
3.0526611328124997
3.05185546875
3.05185546875
3.0550781249999996
3.0550781249999996
3.0558837890625
3.053466796875
3.05185546875
3.0486328124999997
3.0526611328124997
2.91328125
2.9140869140624996
2.8045166015625
3.0526611328124997
3.0526611328124997
3.0526611328124997
3.0542724609375
3.053466796875
2.2236328125
3.05185546875
0.423779296875
0.0459228515625
0.049951171875
0.046728515624999994
0.042700195312499994
0.0443115234375
0.046728515624999994
0.046728515624999994
0.046728515624999994
0.0459228515625
0.046728515624999994
0.049145507812499996
0.0475341796875
0.0475341796875
0.0475341796875
0.0459228515625
0.0459228515625
0.0378662109375
0.046728515624999994
0.0515625
0.046728515624999994
1.0513916015625
2.9712890625
3.0510498046874996
3.05185546875
3.0510498046874996
3.0526611328124997
3.053466796875
3.0494384765625
3.0510498046874996
3.0494384765625
3.0083496093749997
3.0526611328124997
2.9640380859374997
2.889111328125
2.7892089843749996
3.050244140625
3.0510498046874996
3.0526611328124997
3.050244140625
2.6176025390624997
0.0459228515625
1.5106201171875
0.049145507812499996
0.046728515624999994
0.0443115234375
0.043505859375
0.0459228515625
0.0443115234375
0.0459228515625
0.0459228515625
0.046728515624999994
0.04833984375
0.0459228515625
0.0459228515625
0.0475341796875
0.046728515624999994
0.046728515624999994
0.049145507812499996
0.0459228515625
0.0459228515625
0.043505859375
0.0443115234375
0.046728515624999994
2.486279296875
3.0478271484375
3.0526611328124997
3.0510498046874996
3.0550781249999996
3.0591064453124996
3.0510498046874996
3.05185546875
3.0526611328124997
3.0236572265625
2.8713867187499997
2.9519531249999997
2.900390625
2.8166015625
3.0550781249999996
3.0574951171875
3.053466796875
3.0526611328124997
3.0486328124999997
3.05185546875
0.045117187499999996
0.0459228515625
0.042700195312499994
0.0443115234375
0.045117187499999996
0.046728515624999994
0.046728515624999994
0.04833984375
0.042700195312499994
0.0459228515625
0.045117187499999996
0.16032714843749998
0.046728515624999994
0.0459228515625
0.0475341796875
0.049145507812499996
0.046728515624999994
0.0459228515625
0.043505859375
0.046728515624999994
0.0459228515625
0.04833984375
2.328369140625
3.0526611328124997
3.0510498046874996
3.05185546875
3.0542724609375
3.050244140625
3.053466796875
3.05185546875
3.05185546875
2.9745117187499996
3.0526611328124997
2.8359375
2.795654296875
2.7320068359375
3.050244140625
3.0510498046874996
3.0526611328124997
3.050244140625
3.053466796875
3.050244140625
3.0510498046874996
0.0443115234375
0.049145507812499996
0.04833984375
0.0539794921875
0.046728515624999994
0.0459228515625
0.0475341796875
0.0475341796875
0.042700195312499994
0.0515625
0.045117187499999996
0.046728515624999994
0.0475341796875
0.045117187499999996
0.042700195312499994
0.049951171875
0.049145507812499996
0.0475341796875
0.0459228515625
0.046728515624999994
0.0459228515625
2.20751953125
3.05185546875
3.05185546875
3.0462158203125
3.0526611328124997
3.0566894531249997
3.0542724609375
3.0526611328124997
3.05185546875
2.9801513671874997
3.0550781249999996
2.8302978515625
2.8883056640625
2.802099609375
2.940673828125
3.0526611328124997
3.053466796875
3.053466796875
3.0526611328124997
3.0526611328124997
3.05185546875
0.04189453125
0.0459228515625
0.0459228515625
0.0459228515625
0.049145507812499996
0.046728515624999994
0.046728515624999994
0.0443115234375
0.046728515624999994
0.045117187499999996
0.0443115234375
0.0475341796875
0.0475341796875
0.046728515624999994
0.046728515624999994
0.049145507812499996
0.0459228515625
0.046728515624999994
0.049951171875
0.046728515624999994
0.046728515624999994
1.7772949218749998
3.037353515625
3.053466796875
3.0526611328124997
3.053466796875
3.05185546875
3.0494384765625
3.05185546875
3.0510498046874996
3.0526611328124997
2.9922363281249997
3.0470214843749996
2.8713867187499997
2.8335205078124996
2.7424804687499997
3.0470214843749996
3.053466796875
3.0486328124999997
3.0542724609375
3.05185546875
0.046728515624999994
0.791162109375
0.046728515624999994
0.046728515624999994
0.045117187499999996
0.046728515624999994
0.046728515624999994
0.04833984375
0.0475341796875
0.0475341796875
0.046728515624999994
0.046728515624999994
0.0459228515625
0.0362548828125
0.0443115234375
0.043505859375
0.0443115234375
0.0459228515625
0.0443115234375
0.045117187499999996
0.04189453125
0.0443115234375
0.04833984375
2.4919189453125
3.0494384765625
3.0494384765625
3.0550781249999996
3.053466796875
3.05185546875
3.050244140625
3.0510498046874996
3.0494384765625
2.900390625
2.486279296875
2.9036132812499997
2.8456054687499996
2.7787353515624997
3.05185546875
3.053466796875
3.050244140625
3.05185546875
3.0550781249999996
3.0526611328124997
0.54140625
0.046728515624999994
0.046728515624999994
0.04189453125
0.046728515624999994
0.040283203125
0.049145507812499996
0.04189453125
0.0459228515625
0.0459228515625
0.043505859375
0.20302734374999998
0.0459228515625
0.042700195312499994
0.046728515624999994
0.049951171875
0.045117187499999996
0.045117187499999996
0.046728515624999994
0.045117187499999996
0.046728515624999994
0.04833984375
2.2196044921875
3.0550781249999996
3.05185546875
3.05185546875
3.0566894531249997
3.0526611328124997
3.053466796875
3.0566894531249997
3.053466796875
3.043798828125
3.050244140625
2.937451171875
2.8447998046875
2.8053222656249996
3.05185546875
3.0510498046874996
3.053466796875
3.053466796875
3.0526611328124997
3.050244140625
3.0526611328124997
0.0443115234375
0.046728515624999994
0.0459228515625
0.046728515624999994
0.046728515624999994
0.046728515624999994
0.0459228515625
0.043505859375
0.04833984375
0.045117187499999996
0.0475341796875
0.0443115234375
0.0443115234375
0.04833984375
0.046728515624999994
0.049951171875
0.0475341796875
0.049145507812499996
0.046728515624999994
0.046728515624999994
0.0459228515625
2.2002685546875
2.9882080078124997
3.0510498046874996
3.0494384765625
3.05185546875
3.053466796875
3.053466796875
3.050244140625
3.0526611328124997
3.0494384765625
3.05185546875
2.7465087890624997
2.8319091796875
2.79404296875
2.7255615234375
3.0526611328124997
3.053466796875
3.0526611328124997
3.05185546875
3.0558837890625
0.5373779296875
0.7315429687499999
0.04833984375
0.0459228515625
0.0459228515625
0.0459228515625
0.046728515624999994
0.04833984375
0.0459228515625
0.049951171875
0.04833984375
0.0443115234375
0.049145507812499996
0.049145507812499996
0.049145507812499996
0.046728515624999994
0.0459228515625
0.04833984375
0.046728515624999994
0.0459228515625
0.046728515624999994
0.043505859375
0.7057617187499999
3.0566894531249997
3.053466796875
3.050244140625
3.05185546875
3.05185546875
3.0526611328124997
3.0526611328124997
3.0574951171875
3.0510498046874996
3.0325195312499997
3.05185546875
2.8818603515624996
2.8770263671875
2.8190185546874997
3.053466796875
3.0542724609375
3.0510498046874996
3.0494384765625
3.0566894531249997
0.7669921875
0.043505859375
0.0475341796875
0.045117187499999996
0.049145507812499996
0.046728515624999994
0.046728515624999994
0.042700195312499994
0.0443115234375
0.046728515624999994
0.0459228515625
0.0555908203125
0.0459228515625
0.0733154296875
0.103125
0.0443115234375
0.045117187499999996
0.042700195312499994
0.042700195312499994
0.0443115234375
0.046728515624999994
0.0475341796875
0.046728515624999994
2.5652343749999997
3.0542724609375
3.05185546875
3.0550781249999996
3.053466796875
3.0550781249999996
3.0494384765625
3.05185546875
3.0542724609375
3.050244140625
2.72314453125
3.0252685546875
2.9181152343749996
2.8174072265624996
3.0526611328124997
3.050244140625
3.053466796875
3.043798828125
3.0566894531249997
3.050244140625
1.6572509765624999
0.045117187499999996
0.049145507812499996
0.04189453125
0.0459228515625
0.049145507812499996
0.0459228515625
0.046728515624999994
0.041088867187499996
0.0443115234375
0.042700195312499994
0.1538818359375
0.046728515624999994
0.0443115234375
0.049145507812499996
0.043505859375
0.0459228515625
0.045117187499999996
0.0459228515625
0.046728515624999994
0.046728515624999994
0.04189453125
2.1857666015625
3.0526611328124997
3.053466796875
3.0510498046874996
3.053466796875
3.053466796875
3.053466796875
3.053466796875
3.05185546875
2.956787109375
2.81015625
2.9825683593749996
2.874609375
2.7916259765625
2.7497314453125
3.053466796875
3.0526611328124997
3.053466796875
3.053466796875
2.14951171875
3.05185546875
0.9708251953125
0.04833984375
0.049145507812499996
0.046728515624999994
0.045117187499999996
0.046728515624999994
0.045117187499999996
0.043505859375
0.043505859375
0.04189453125
0.040283203125
0.043505859375
0.0475341796875
0.045117187499999996
0.0459228515625
0.04833984375
0.0459228515625
0.04833984375
0.046728515624999994
0.049145507812499996
0.049951171875
0.046728515624999994
3.050244140625
3.0526611328124997
3.0494384765625
3.0542724609375
3.053466796875
3.053466796875
3.0550781249999996
3.0510498046874996
3.053466796875
2.985791015625
2.7972656249999996
2.88427734375
2.811767578125
2.7497314453125
3.0526611328124997
3.0550781249999996
3.05185546875
3.0550781249999996
3.05185546875
1.5541259765625
0.6638671875
0.041088867187499996
0.043505859375
0.0459228515625
0.04189453125
0.045117187499999996
0.0443115234375
0.046728515624999994
0.046728515624999994
0.045117187499999996
0.046728515624999994
0.0878173828125
0.0717041015625
0.0652587890625
0.0459228515625
0.0459228515625
0.045117187499999996
0.0475341796875
0.0443115234375
0.045117187499999996
0.049951171875
1.1537109374999999
3.053466796875
3.0526611328124997
3.05185546875
3.0526611328124997
3.0526611328124997
3.053466796875
3.050244140625
3.05185546875
3.0526611328124997
3.0526611328124997
3.053466796875
2.9237548828124997
2.9688720703125
2.85849609375
3.053466796875
3.0550781249999996
3.0566894531249997
3.0550781249999996
3.0526611328124997
3.0486328124999997
0.045117187499999996
0.059619140625
0.04833984375
0.046728515624999994
0.046728515624999994
0.0459228515625
0.0459228515625
0.0459228515625
0.043505859375
0.045117187499999996
0.042700195312499994
0.0459228515625
0.045117187499999996
0.045117187499999996
0.046728515624999994
0.045117187499999996
0.045117187499999996
0.045117187499999996
0.045117187499999996
0.046728515624999994
0.042700195312499994
0.046728515624999994
2.7271728515625
3.0486328124999997
3.0566894531249997
3.0550781249999996
3.05185546875
3.053466796875
3.053466796875
3.0526611328124997
3.0550781249999996
3.0301025390625
2.9382568359374996
2.9801513671874997
2.9044189453125
2.8230468749999997
3.05185546875
3.050244140625
3.05185546875
3.0526611328124997
3.05185546875
3.053466796875
2.86494140625
0.3585205078125
0.0475341796875
0.046728515624999994
0.0459228515625
0.046728515624999994
0.042700195312499994
0.0459228515625
0.045117187499999996
0.046728515624999994
0.045117187499999996
0.0459228515625
0.0475341796875
0.046728515624999994
0.0459228515625
0.043505859375
0.0475341796875
0.046728515624999994
0.046728515624999994
0.045117187499999996
0.046728515624999994
0.0475341796875
2.3742919921875
3.0526611328124997
3.050244140625
3.05185546875
3.050244140625
3.0526611328124997
3.053466796875
3.053466796875
3.0550781249999996
3.0164062499999997
2.78759765625
2.83271484375
2.89716796875
2.8254638671874996
2.744091796875
3.0486328124999997
3.053466796875
3.050244140625
3.050244140625
1.1384033203125
2.4613037109375
0.6936767578124999
0.045117187499999996
0.046728515624999994
0.0443115234375
0.046728515624999994
0.045117187499999996
0.049951171875
0.0475341796875
0.049145507812499996
0.043505859375
0.3158203125
0.057202148437499996
0.046728515624999994
0.049951171875
0.04833984375
0.043505859375
0.046728515624999994
0.0459228515625
0.0459228515625
0.0475341796875
0.0459228515625
0.65419921875
2.9737060546875
3.0542724609375
3.0526611328124997
3.0550781249999996
3.050244140625
3.05185546875
3.0550781249999996
3.053466796875
3.05185546875
2.9841796874999997
2.7706787109374997
2.9100585937499996
2.85205078125
2.8214355468749996
3.05185546875
3.0526611328124997
3.0550781249999996
3.0550781249999996
3.053466796875
2.5732910156249997
0.0459228515625
0.0475341796875
0.043505859375
0.049145507812499996
0.046728515624999994
0.049145507812499996
0.046728515624999994
0.046728515624999994
0.045117187499999996
0.0443115234375
0.043505859375
0.0459228515625
0.043505859375
0.0459228515625
0.0459228515625
0.049145507812499996
0.046728515624999994
0.046728515624999994
0.049951171875
0.041088867187499996
0.0459228515625
0.0475341796875
2.7336181640625
3.05185546875
3.05185546875
3.05185546875
3.0486328124999997
3.0558837890625
3.053466796875
3.05185546875
3.0494384765625
3.05185546875
3.0526611328124997
2.8593017578124997
2.9028076171875
2.7988769531249997
3.0478271484375
3.0558837890625
3.0526611328124997
3.0526611328124997
3.05185546875
3.05185546875
0.0459228515625
0.1699951171875
0.043505859375
0.046728515624999994
0.0475341796875
0.046728515624999994
0.0394775390625
0.0459228515625
0.04833984375
0.04189453125
0.0459228515625
0.046728515624999994
0.0708984375
0.04833984375
0.04833984375
0.0459228515625
0.046728515624999994
0.037060546874999996
0.04189453125
0.046728515624999994
0.043505859375
0.0475341796875
3.0446044921874997
3.05185546875
3.0550781249999996
3.0526611328124997
3.0542724609375
3.0558837890625
3.0526611328124997
3.0526611328124997
3.053466796875
3.053466796875
3.05830078125
3.050244140625
2.9600097656249997
2.834326171875
3.05185546875
3.050244140625
3.05830078125
3.050244140625
3.053466796875
1.2044677734375
3.0542724609375
0.153076171875
0.049145507812499996
0.050756835937499994
0.045117187499999996
0.046728515624999994
0.046728515624999994
0.043505859375
0.049145507812499996
0.0459228515625
0.046728515624999994
0.0443115234375
0.049951171875
0.046728515624999994
0.0459228515625
0.0459228515625
0.042700195312499994
0.046728515624999994
0.0475341796875
0.0459228515625
0.043505859375
0.0443115234375
2.164013671875
2.9761230468749997
3.0494384765625
3.0510498046874996
3.0550781249999996
3.053466796875
3.0558837890625
3.05185546875
3.050244140625
2.956787109375
2.7303955078124997
2.848828125
2.9044189453125
2.8391601562499997
2.7328124999999996
3.0510498046874996
3.0526611328124997
3.05185546875
3.0526611328124997
1.3172607421875
0.43425292968749996
1.4622802734375
0.045117187499999996
0.040283203125
0.0459228515625
0.042700195312499994
0.0475341796875
0.0443115234375
0.0459228515625
0.0459228515625
0.0443115234375
0.1409912109375
0.046728515624999994
0.043505859375
0.04189453125
0.049145507812499996
0.046728515624999994
0.046728515624999994
0.0475341796875
0.049145507812499996
0.046728515624999994
0.046728515624999994
0.042700195312499994
2.6119628906249996
3.0510498046874996
3.053466796875
3.05185546875
3.0542724609375
3.053466796875
3.0566894531249997
3.053466796875
3.053466796875
2.95517578125
3.0550781249999996
2.9092529296875
2.8536621093749996
2.8109619140624997
3.0542724609375
3.053466796875
3.0558837890625
3.0526611328124997
3.050244140625
3.053466796875
0.0459228515625
0.16435546874999998
0.046728515624999994
0.042700195312499994
0.050756835937499994
0.050756835937499994
0.04189453125
0.049145507812499996
0.045117187499999996
0.04189453125
0.050756835937499994
0.0459228515625
0.050756835937499994
0.0475341796875
0.049951171875
0.038671874999999994
0.0459228515625
0.043505859375
0.042700195312499994
0.0459228515625
0.045117187499999996
0.046728515624999994
2.8617187499999996
3.050244140625
3.0526611328124997
3.050244140625
3.0566894531249997
3.053466796875
3.053466796875
3.05185546875
3.0526611328124997
3.05185546875
3.05185546875
2.900390625
2.900390625
2.8375488281249996
3.05185546875
3.0574951171875
3.05185546875
3.05185546875
3.0510498046874996
3.0510498046874996
3.053466796875
0.04833984375
0.0459228515625
0.0459228515625
0.046728515624999994
0.0475341796875
0.0475341796875
0.0443115234375
0.0443115234375
0.04833984375
0.049145507812499996
0.045117187499999996
0.058813476562499994
0.06606445312499999
0.06606445312499999
0.043505859375
0.046728515624999994
0.042700195312499994
0.043505859375
0.046728515624999994
0.0475341796875
0.0475341796875
2.9044189453125
3.0550781249999996
3.05185546875
3.053466796875
3.0542724609375
3.0510498046874996
3.0494384765625
3.050244140625
3.0526611328124997
2.9640380859374997
3.0510498046874996
2.9841796874999997
2.9455078125
2.843994140625
3.0526611328124997
3.053466796875
3.050244140625
3.050244140625
3.05185546875
1.8087158203125
0.04833984375
0.410888671875
0.0459228515625
0.0459228515625
0.046728515624999994
0.0475341796875
0.041088867187499996
0.04833984375
0.042700195312499994
0.042700195312499994
0.046728515624999994
0.0443115234375
0.043505859375
0.045117187499999996
0.0459228515625
0.049951171875
0.0443115234375
0.0475341796875
0.0459228515625
0.0475341796875
0.046728515624999994
0.046728515624999994
1.957763671875
3.05185546875
3.053466796875
3.0510498046874996
3.0558837890625
3.053466796875
3.053466796875
3.053466796875
3.053466796875
3.053466796875
2.931005859375
3.0309082031249996
2.89716796875
2.8447998046875
2.711865234375
3.0526611328124997
3.0526611328124997
3.0510498046874996
3.0510498046874996
3.0526611328124997
0.041088867187499996
1.3631835937499999
0.0459228515625
0.0459228515625
0.0475341796875
0.046728515624999994
0.04833984375
0.043505859375
0.046728515624999994
0.042700195312499994
0.043505859375
0.049951171875
0.0475341796875
0.0749267578125
0.08056640625
0.045117187499999996
0.046728515624999994
0.0443115234375
0.0475341796875
0.046728515624999994
0.046728515624999994
0.046728515624999994
0.042700195312499994
2.6619140624999997
3.053466796875
3.0542724609375
3.0494384765625
3.0486328124999997
3.05185546875
3.05185546875
3.0510498046874996
3.0526611328124997
2.9841796874999997
3.0107666015624996
2.9181152343749996
2.866552734375
2.7948486328124997
3.0494384765625
3.0542724609375
3.050244140625
3.0542724609375
3.0510498046874996
3.0566894531249997
0.0475341796875
0.0475341796875
0.045117187499999996
0.0459228515625
0.040283203125
0.046728515624999994
0.043505859375
0.045117187499999996
0.046728515624999994
0.049951171875
0.046728515624999994
0.14018554687499998
0.06606445312499999
0.0636474609375
0.0443115234375
0.0475341796875
0.045117187499999996
0.0459228515625
0.0443115234375
0.042700195312499994
0.0459228515625
0.043505859375
2.6200195312499996
3.05185546875
3.0526611328124997
3.05185546875
3.05185546875
3.0542724609375
3.0558837890625
3.050244140625
3.053466796875
3.05185546875
3.0526611328124997
2.860107421875
2.8689697265625
2.784375
3.053466796875
3.05185546875
3.0623291015625
3.053466796875
3.05185546875
3.05185546875
3.0550781249999996
0.07734374999999999
0.0459228515625
0.0475341796875
0.043505859375
0.0459228515625
0.0459228515625
0.046728515624999994
0.043505859375
0.0443115234375
0.046728515624999994
0.049145507812499996
0.045117187499999996
0.0459228515625
0.0459228515625
0.04833984375
0.0459228515625
0.0459228515625
0.0475341796875
0.046728515624999994
0.0459228515625
0.046728515624999994
2.367041015625
3.05185546875
3.053466796875
3.0526611328124997
3.05185546875
3.050244140625
3.0550781249999996
3.0566894531249997
3.05185546875
3.0526611328124997
3.0526611328124997
2.898779296875
2.9922363281249997
2.898779296875
3.05185546875
3.0550781249999996
3.0526611328124997
3.0550781249999996
3.0526611328124997
2.7972656249999996
0.049951171875
0.1313232421875
0.0443115234375
0.0475341796875
0.045117187499999996
0.0443115234375
0.0475341796875
0.043505859375
0.04189453125
0.046728515624999994
0.0475341796875
0.045117187499999996
0.046728515624999994
0.04833984375
0.0475341796875
0.0523681640625
0.045117187499999996
0.04833984375
0.049145507812499996
0.0515625
0.0459228515625
0.0459228515625
1.7362060546875
2.900390625
3.0558837890625
3.0526611328124997
3.0494384765625
3.0550781249999996
3.0526611328124997
3.05185546875
3.0526611328124997
3.0526611328124997
3.0349365234374996
3.0558837890625
2.9156982421874997
2.9020019531249996
2.8190185546874997
3.050244140625
3.05185546875
3.0494384765625
3.0526611328124997
3.05185546875
0.050756835937499994
1.5436523437499998
0.0475341796875
0.0459228515625
0.049145507812499996
0.04833984375
0.0459228515625
0.046728515624999994
0.049951171875
0.050756835937499994
0.0475341796875
0.040283203125
0.0443115234375
0.046728515624999994
0.0475341796875
0.0459228515625
0.045117187499999996
0.0459228515625
0.045117187499999996
0.0475341796875
0.04189453125
0.0515625
0.046728515624999994
2.502392578125
3.0542724609375
3.050244140625
3.05185546875
3.0566894531249997
3.0566894531249997
3.0526611328124997
3.053466796875
3.05185546875
2.9269775390625
2.6594970703125
2.889111328125
2.8883056640625
2.8496337890624996
3.0526611328124997
3.05185546875
3.053466796875
3.05185546875
3.0574951171875
3.05185546875
0.0475341796875
0.0555908203125
0.043505859375
0.045117187499999996
0.046728515624999994
0.043505859375
0.049145507812499996
0.04833984375
0.0475341796875
0.045117187499999996
0.045117187499999996
0.1957763671875
0.049145507812499996
0.0459228515625
0.046728515624999994
0.046728515624999994
0.046728515624999994
0.0459228515625
0.0459228515625
0.053173828124999996
0.0475341796875
0.049145507812499996
2.26875
3.0550781249999996
3.0526611328124997
3.05185546875
3.053466796875
3.053466796875
3.05185546875
3.0486328124999997
3.0550781249999996
3.0413818359375
3.0526611328124997
3.005126953125
2.914892578125
2.86494140625
3.050244140625
3.0566894531249997
3.050244140625
3.053466796875
3.0550781249999996
3.050244140625
3.05185546875
0.0459228515625
0.049145507812499996
0.046728515624999994
0.046728515624999994
0.042700195312499994
0.045117187499999996
0.0459228515625
0.043505859375
0.045117187499999996
0.0459228515625
0.0475341796875
0.056396484375
0.10957031249999999
0.08701171875
0.046728515624999994
0.046728515624999994
0.0443115234375
0.04189453125
0.046728515624999994
0.0475341796875
0.049951171875
1.5033691406249998
3.05185546875
3.0550781249999996
3.0526611328124997
3.05185546875
3.053466796875
3.0526611328124997
3.0542724609375
3.0526611328124997
2.9922363281249997
2.9640380859374997
2.763427734375
2.89072265625
2.8230468749999997
2.8149902343749997
3.0542724609375
3.050244140625
3.05185546875
3.0526611328124997
3.0478271484375
0.2255859375
0.394775390625
0.043505859375
0.0475341796875
0.049145507812499996
0.0459228515625
0.049145507812499996
0.0459228515625
0.049145507812499996
0.042700195312499994
0.04833984375
0.0459228515625
0.046728515624999994
0.046728515624999994
0.045117187499999996
0.049951171875
0.04189453125
0.046728515624999994
0.049145507812499996
0.045117187499999996
0.045117187499999996
0.0459228515625
0.0475341796875
3.037353515625
3.0542724609375
3.053466796875
3.0542724609375
3.05185546875
3.0542724609375
3.053466796875
3.0550781249999996
3.0591064453124996
3.0147949218749996
3.05185546875
2.8673583984374997
2.8560791015625
2.7352294921875
3.050244140625
3.053466796875
3.0510498046874996
3.050244140625
3.05185546875
3.0550781249999996
0.28359375
0.050756835937499994
0.0459228515625
0.046728515624999994
0.0459228515625
0.0475341796875
0.0394775390625
0.0443115234375
0.0443115234375
0.0475341796875
0.043505859375
0.0475341796875
0.046728515624999994
0.050756835937499994
0.046728515624999994
0.0459228515625
0.046728515624999994
0.0443115234375
0.0459228515625
0.0459228515625
0.042700195312499994
0.046728515624999994
2.5813476562499997
3.0566894531249997
3.0526611328124997
3.0510498046874996
3.0526611328124997
3.053466796875
3.053466796875
3.0542724609375
3.05185546875
3.0526611328124997
2.66513671875
2.9825683593749996
2.8786376953125
2.8311035156249997
3.050244140625
3.0510498046874996
3.053466796875
3.0542724609375
3.0526611328124997
3.050244140625
1.11181640625
0.043505859375
0.045117187499999996
0.0475341796875
0.042700195312499994
0.0459228515625
0.0523681640625
0.050756835937499994
0.045117187499999996
0.0459228515625
0.043505859375
0.24331054687499998
0.049145507812499996
0.0515625
0.062841796875
0.046728515624999994
0.0443115234375
0.0443115234375
0.0459228515625
0.0459228515625
0.049951171875
0.045117187499999996
2.067333984375
3.0510498046874996
3.053466796875
3.0542724609375
3.05185546875
3.050244140625
3.0542724609375
3.0494384765625
3.053466796875
3.0494384765625
3.0494384765625
2.79404296875
2.9173095703125
2.824658203125
2.8029052734374997
3.050244140625
3.05185546875
3.05185546875
3.053466796875
2.7529541015624996
3.0526611328124997
0.736376953125
0.0459228515625
0.04833984375
0.0443115234375
0.04833984375
0.046728515624999994
0.041088867187499996
0.046728515624999994
0.046728515624999994
0.0475341796875
0.0475341796875
0.0459228515625
0.046728515624999994
0.045117187499999996
0.046728515624999994
0.045117187499999996
0.046728515624999994
0.0475341796875
0.049951171875
0.0475341796875
0.045117187499999996
0.0475341796875
3.0542724609375
3.0526611328124997
3.05185546875
3.0542724609375
3.053466796875
3.0542724609375
3.0550781249999996
3.05185546875
3.05185546875
3.0067382812499996
2.8286865234375
2.9197265624999997
2.8899169921874996
2.7690673828124996
3.05185546875
3.0542724609375
3.0510498046874996
3.053466796875
3.05185546875
1.2568359375
0.042700195312499994
0.050756835937499994
0.045117187499999996
0.04833984375
0.0459228515625
0.045117187499999996
0.040283203125
0.046728515624999994
0.046728515624999994
0.0475341796875
0.0515625
0.046728515624999994
0.046728515624999994
0.062841796875
0.0475341796875
0.046728515624999994
0.04833984375
0.0459228515625
0.046728515624999994
0.045117187499999996
0.04833984375
0.041088867187499996
2.9656494140625
3.0607177734374997
3.0542724609375
3.053466796875
3.05185546875
3.0510498046874996
3.050244140625
3.0566894531249997
3.05185546875
3.001904296875
3.0510498046874996
2.8778320312499996
2.8963623046875
2.8431884765624997
3.053466796875
3.05185546875
3.0526611328124997
3.0526611328124997
3.053466796875
3.0494384765625
0.045117187499999996
0.0475341796875
0.0475341796875
0.046728515624999994
0.046728515624999994
0.046728515624999994
0.046728515624999994
0.042700195312499994
0.046728515624999994
0.0459228515625
0.049145507812499996
0.042700195312499994
0.062841796875
0.046728515624999994
0.0459228515625
0.045117187499999996
0.046728515624999994
0.046728515624999994
0.0443115234375
0.042700195312499994
0.0523681640625
0.0475341796875
2.5249511718749997
3.05185546875
3.0542724609375
3.053466796875
3.0510498046874996
3.0542724609375
3.0526611328124997
3.053466796875
3.053466796875
2.94873046875
2.7110595703125
2.9712890625
2.914892578125
2.8319091796875
3.0526611328124997
3.0510498046874996
3.053466796875
3.0550781249999996
3.0494384765625
3.0550781249999996
2.354150390625
0.28359375
0.046728515624999994
0.0475341796875
0.046728515624999994
0.0443115234375
0.046728515624999994
0.046728515624999994
0.045117187499999996
0.0459228515625
0.04189453125
0.04833984375
0.0459228515625
0.0459228515625
0.046728515624999994
0.0459228515625
0.0459228515625
0.0459228515625
0.049951171875
0.0443115234375
0.046728515624999994
0.0459228515625
2.47177734375
2.98740234375
3.053466796875
3.0542724609375
3.0526611328124997
3.0526611328124997
3.0542724609375
3.0550781249999996
3.0526611328124997
2.9342285156249996
2.8061279296875
2.85205078125
2.9624267578124996
2.882666015625
2.8254638671874996
3.0550781249999996
3.0542724609375
3.05185546875
3.0542724609375
1.284228515625
2.8979736328124996
0.84111328125
0.050756835937499994
0.0459228515625
0.046728515624999994
0.0459228515625
0.0459228515625
0.046728515624999994
0.0475341796875
0.0459228515625
0.04189453125
0.323876953125
0.049145507812499996
0.069287109375
0.04833984375
0.0459228515625
0.046728515624999994
0.04833984375
0.045117187499999996
0.045117187499999996
0.043505859375
0.0443115234375
0.5478515625
2.9302001953124996
3.050244140625
3.0510498046874996
3.053466796875
3.0526611328124997
3.0494384765625
3.0542724609375
3.0542724609375
3.0526611328124997
2.995458984375
3.0510498046874996
2.8947509765625
2.8834716796874997
2.8536621093749996
3.0526611328124997
3.0526611328124997
3.0526611328124997
3.0486328124999997
3.0526611328124997
2.4758056640625
0.046728515624999994
0.046728515624999994
0.045117187499999996
0.043505859375
0.042700195312499994
0.042700195312499994
0.042700195312499994
0.046728515624999994
0.046728515624999994
0.045117187499999996
0.0459228515625
0.049145507812499996
0.049951171875
0.0475341796875
0.045117187499999996
0.045117187499999996
0.04833984375
0.045117187499999996
0.0475341796875
0.0459228515625
0.046728515624999994
0.04833984375
2.9173095703125
3.0542724609375
3.05185546875
3.0542724609375
3.0510498046874996
3.0526611328124997
3.0470214843749996
3.0510498046874996
3.050244140625
3.037353515625
3.0542724609375
2.8053222656249996
2.834326171875
2.7964599609375
3.0550781249999996
3.0526611328124997
3.05185546875
3.05185546875
3.0550781249999996
3.0526611328124997
3.0542724609375
0.22478027343749998
0.0475341796875
0.0515625
0.04833984375
0.0459228515625
0.046728515624999994
0.046728515624999994
0.043505859375
0.0459228515625
0.0443115234375
0.0459228515625
0.062841796875
0.059619140625
0.062841796875
0.0459228515625
0.050756835937499994
0.04833984375
0.046728515624999994
0.0459228515625
0.0443115234375
0.0459228515625
2.5692626953124997
3.0526611328124997
3.05185546875
3.059912109375
3.0526611328124997
3.050244140625
3.0526611328124997
3.053466796875
3.05185546875
3.0429931640624996
3.0494384765625
3.0309082031249996
2.95517578125
2.792431640625
3.05185546875
3.0494384765625
3.05185546875
3.053466796875
3.050244140625
1.2262207031249999
3.0591064453124996
0.12165527343749999
0.045117187499999996
0.050756835937499994
0.056396484375
0.045117187499999996
0.0459228515625
0.045117187499999996
0.049951171875
0.0443115234375
0.0443115234375
0.049145507812499996
0.042700195312499994
0.069287109375
0.0459228515625
0.0459228515625
0.0459228515625
0.04833984375
0.0459228515625
0.0394775390625
0.0459228515625
0.045117187499999996
2.060888671875
2.8399658203125
3.0566894531249997
3.05185546875
3.050244140625
3.0526611328124997
3.053466796875
3.053466796875
3.0526611328124997
2.9841796874999997
2.7803466796875
2.931005859375
2.9801513671874997
2.900390625
2.808544921875
3.050244140625
3.0550781249999996
3.053466796875
3.050244140625
1.400244140625
0.533349609375
1.26328125
0.0459228515625
0.046728515624999994
0.046728515624999994
0.0459228515625
0.043505859375
0.042700195312499994
0.0394775390625
0.04833984375
0.0443115234375
0.15146484375
0.045117187499999996
0.0475341796875
0.04833984375
0.0475341796875
0.050756835937499994
0.046728515624999994
0.049951171875
0.0459228515625
0.045117187499999996
0.0443115234375
0.0459228515625
2.8311035156249997
3.0510498046874996
3.053466796875
3.050244140625
3.0566894531249997
3.053466796875
3.0542724609375
3.050244140625
3.053466796875
2.91328125
3.0389648437499996
2.8955566406249997
2.8069335937499997
2.7908203124999997
3.0542724609375
3.0526611328124997
3.053466796875
3.0526611328124997
3.0526611328124997
3.0566894531249997
0.0459228515625
0.20705566406249998
0.049145507812499996
0.04833984375
0.046728515624999994
0.043505859375
0.046728515624999994
0.046728515624999994
0.043505859375
0.049145507812499996
0.046728515624999994
0.064453125
0.072509765625
0.0475341796875
0.045117187499999996
0.042700195312499994
0.050756835937499994
0.0459228515625
0.045117187499999996
0.046728515624999994
0.040283203125
0.046728515624999994
2.7851806640624996
3.0526611328124997
3.05185546875
3.05185546875
3.053466796875
3.05185546875
3.053466796875
3.0526611328124997
3.0526611328124997
3.0099609375
3.0558837890625
2.9036132812499997
2.92294921875
2.8697753906249996
3.0566894531249997
3.050244140625
3.0542724609375
3.0542724609375
3.05185546875
3.053466796875
3.05185546875
0.0443115234375
0.049145507812499996
0.042700195312499994
0.045117187499999996
0.04833984375
0.046728515624999994
0.046728515624999994
0.043505859375
0.0443115234375
0.046728515624999994
0.045117187499999996
0.046728515624999994
0.0443115234375
0.0459228515625
0.0443115234375
0.0475341796875
0.0459228515625
0.046728515624999994
0.0475341796875
0.046728515624999994
0.0475341796875
2.7448974609374996
3.0550781249999996
3.053466796875
3.050244140625
3.053466796875
3.053466796875
3.050244140625
3.05185546875
3.0526611328124997
2.9745117187499996
3.05185546875
2.9318115234374997
2.91650390625
2.8319091796875
3.050244140625
3.05185546875
3.05185546875
3.0510498046874996
3.053466796875
2.0681396484375
0.049951171875
0.33273925781249997
0.0459228515625
0.049145507812499996
0.045117187499999996
0.042700195312499994
0.049145507812499996
0.045117187499999996
0.050756835937499994
0.045117187499999996
0.045117187499999996
0.0459228515625
0.0459228515625
0.042700195312499994
0.045117187499999996
0.049951171875
0.042700195312499994
0.049951171875
0.045117187499999996
0.041088867187499996
0.0475341796875
0.046728515624999994
1.377685546875
3.053466796875
3.0510498046874996
3.0550781249999996
3.0510498046874996
3.0510498046874996
3.0542724609375
3.0494384765625
3.050244140625
3.0558837890625
2.92939453125
2.9640380859374997
2.8576904296874996
2.8270751953124997
2.76181640625
3.05185546875
3.0550781249999996
3.0550781249999996
3.050244140625
3.0542724609375
0.0443115234375
1.4840332031249999
0.04833984375
0.043505859375
0.0443115234375
0.041088867187499996
0.041088867187499996
0.045117187499999996
0.045117187499999996
0.046728515624999994
0.0459228515625
0.0459228515625
0.0459228515625
0.053173828124999996
0.0459228515625
0.04833984375
0.046728515624999994
0.04833984375
0.0443115234375
0.046728515624999994
0.0459228515625
0.0475341796875
0.049951171875
2.6611083984375
3.05185546875
3.0566894531249997
3.0446044921874997
3.0526611328124997
3.05185546875
3.05830078125
3.0510498046874996
3.050244140625
2.953564453125
2.856884765625
2.8754150390624997
2.8552734374999997
2.7916259765625
3.0550781249999996
3.0526611328124997
3.0542724609375
3.0486328124999997
3.0486328124999997
3.0526611328124997
0.0515625
0.046728515624999994
0.041088867187499996
0.049145507812499996
0.04833984375
0.046728515624999994
0.046728515624999994
0.0475341796875
0.046728515624999994
0.0443115234375
0.045117187499999996
0.201416015625
0.0652587890625
0.054785156249999994
0.0717041015625
0.046728515624999994
0.043505859375
0.046728515624999994
0.0459228515625
0.0459228515625
0.046728515624999994
0.050756835937499994
2.6304931640625
3.0550781249999996
3.0550781249999996
3.050244140625
3.05185546875
3.053466796875
3.0526611328124997
3.053466796875
3.05185546875
3.053466796875
3.0558837890625
2.8834716796874997
2.8447998046875
2.7642333984375
3.05185546875
3.0526611328124997
3.0550781249999996
3.053466796875
3.050244140625
3.0550781249999996
3.0550781249999996
0.37302246093749997
0.049145507812499996
0.0475341796875
0.046728515624999994
0.045117187499999996
0.046728515624999994
0.045117187499999996
0.046728515624999994
0.045117187499999996
0.0443115234375
0.043505859375
0.043505859375
0.049145507812499996
0.046728515624999994
0.0475341796875
0.045117187499999996
0.0459228515625
0.0459228515625
0.046728515624999994
0.0459228515625
0.0459228515625
0.270703125
3.053466796875
3.053466796875
3.0526611328124997
3.0526611328124997
3.0510498046874996
3.053466796875
3.0526611328124997
3.05185546875
3.0462158203125
2.9479248046874997
2.8359375
2.82626953125
2.7505371093749997
3.0284912109374997
3.0526611328124997
3.0486328124999997
3.05185546875
3.053466796875
2.9833740234375
0.0459228515625
0.20866699218749998
0.046728515624999994
0.0475341796875
0.043505859375
0.049951171875
0.0443115234375
0.0515625
0.046728515624999994
0.045117187499999996
0.042700195312499994
0.0443115234375
0.04833984375
0.0459228515625
0.0459228515625
0.04833984375
0.043505859375
0.046728515624999994
0.0459228515625
0.0459228515625
0.0459228515625
0.045117187499999996
1.7555419921875
2.91650390625
3.0558837890625
3.053466796875
3.05185546875
3.0558837890625
3.0526611328124997
3.050244140625
2.9737060546875
3.0510498046874996
2.96484375
3.05185546875
2.8391601562499997
2.818212890625
2.7392578125
3.05185546875
3.0542724609375
3.0510498046874996
3.0526611328124997
3.053466796875
3.0486328124999997
1.59521484375
0.046728515624999994
0.046728515624999994
0.046728515624999994
0.0459228515625
0.0475341796875
0.046728515624999994
0.0459228515625
0.043505859375
0.046728515624999994
0.046728515624999994
0.0459228515625
0.049951171875
0.046728515624999994
0.04833984375
0.049951171875
0.046728515624999994
0.0394775390625
0.046728515624999994
0.0459228515625
0.0459228515625
0.04833984375
2.1333984375
3.05185546875
3.05185546875
3.0526611328124997
3.0526611328124997
3.050244140625
3.050244140625
3.050244140625
3.0486328124999997
2.85849609375
2.56845703125
2.8166015625
2.7328124999999996
2.6739990234374997
3.053466796875
3.0526611328124997
3.0550781249999996
3.0542724609375
3.05185546875
3.0542724609375
0.34160156249999996
0.050756835937499994
0.046728515624999994
0.04833984375
0.049145507812499996
0.046728515624999994
0.043505859375
0.042700195312499994
0.04833984375
0.0459228515625
0.0443115234375
0.1168212890625
0.0459228515625
0.0459228515625
0.0459228515625
0.049145507812499996
0.043505859375
0.043505859375
0.046728515624999994
0.0443115234375
0.046728515624999994
0.04833984375
2.3243408203125
3.05185546875
3.05185546875
3.0526611328124997
3.0542724609375
3.0510498046874996
3.0526611328124997
3.053466796875
3.0526611328124997
3.050244140625
3.0558837890625
2.802099609375
2.802099609375
2.737646484375
2.776318359375
3.0510498046874996
3.0566894531249997
3.0486328124999997
3.0542724609375
3.0526611328124997
3.0486328124999997
0.09990234375
0.043505859375
0.0459228515625
0.0475341796875
0.042700195312499994
0.0443115234375
0.046728515624999994
0.0459228515625
0.042700195312499994
0.045117187499999996
0.042700195312499994
0.0475341796875
0.043505859375
0.0555908203125
0.04833984375
0.045117187499999996
0.043505859375
0.046728515624999994
0.0443115234375
0.046728515624999994
0.0459228515625
1.5782958984375
3.050244140625
3.0526611328124997
3.0526611328124997
3.0550781249999996
3.0494384765625
3.05185546875
3.05185546875
3.0566894531249997
3.001904296875
2.98740234375
3.0526611328124997
2.892333984375
2.8383544921875
2.7577880859375
3.0510498046874996
3.0526611328124997
3.0526611328124997
3.0470214843749996
3.059912109375
0.16838378906249998
0.9877441406249999
0.0459228515625
0.0443115234375
0.04189453125
0.04833984375
0.0459228515625
0.046728515624999994
0.0475341796875
0.041088867187499996
0.045117187499999996
0.042700195312499994
0.049145507812499996
0.0459228515625
0.04833984375
0.045117187499999996
0.046728515624999994
0.046728515624999994
0.046728515624999994
0.0475341796875
0.0459228515625
0.0459228515625
0.045117187499999996
2.985791015625
3.0526611328124997
3.0526611328124997
3.050244140625
3.0494384765625
3.0526611328124997
3.0526611328124997
3.0510498046874996
3.0550781249999996
2.95517578125
3.0550781249999996
2.8496337890624996
2.8206298828125
2.776318359375
3.0526611328124997
3.05185546875
3.05185546875
3.0550781249999996
3.0566894531249997
3.053466796875
0.8725341796874999
0.0459228515625
0.0459228515625
0.0475341796875
0.0475341796875
0.0459228515625
0.0459228515625
0.04833984375
0.04189453125
0.046728515624999994
0.0459228515625
0.043505859375
0.0475341796875
0.0475341796875
0.046728515624999994
0.0459228515625
0.043505859375
0.04833984375
0.0459228515625
0.0475341796875
0.046728515624999994
0.0459228515625
2.8311035156249997
3.0566894531249997
3.0494384765625
3.0550781249999996
3.05830078125
3.053466796875
3.05185546875
3.0550781249999996
3.0486328124999997
2.9801513671874997
2.5209228515624997
2.8947509765625
2.8149902343749997
2.7642333984375
3.053466796875
3.0550781249999996
3.053466796875
3.0558837890625
3.05185546875
3.0510498046874996
1.0900634765625
0.0459228515625
0.0459228515625
0.04833984375
0.0459228515625
0.0459228515625
0.046728515624999994
0.046728515624999994
0.0459228515625
0.038671874999999994
0.0459228515625
0.22719726562499998
0.0459228515625
0.0475341796875
0.042700195312499994
0.04833984375
0.042700195312499994
0.0443115234375
0.0459228515625
0.0459228515625
0.0475341796875
0.045117187499999996
2.4693603515625
3.0526611328124997
3.0558837890625
3.0494384765625
3.0558837890625
3.0510498046874996
3.0510498046874996
3.0526611328124997
3.05185546875
3.0244628906249997
2.9704833984374996
2.6860839843749997
2.7827636718749997
2.721533203125
2.7183105468749997
3.05185546875
3.0542724609375
3.05185546875
3.0558837890625
3.0486328124999997
3.0550781249999996
0.55751953125
0.0459228515625
0.043505859375
0.045117187499999996
0.049145507812499996
0.0459228515625
0.0459228515625
0.046728515624999994
0.045117187499999996
0.0475341796875
0.046728515624999994
0.046728515624999994
0.0459228515625
0.046728515624999994
0.049145507812499996
0.0443115234375
0.0459228515625
0.049145507812499996
0.0459228515625
0.0475341796875
0.043505859375
0.0459228515625
2.7827636718749997
3.0550781249999996
3.05185546875
3.0550781249999996
3.0542724609375
3.0550781249999996
3.0550781249999996
3.053466796875
3.05185546875
2.9100585937499996
3.0526611328124997
2.8166015625
2.7271728515625
2.7030029296875
3.0462158203125
3.0486328124999997
3.05185546875
3.05185546875
3.053466796875
1.0449462890624999
0.0459228515625
0.0475341796875
0.0459228515625
0.049145507812499996
0.049951171875
0.04833984375
0.0459228515625
0.0459228515625
0.042700195312499994
0.049145507812499996
0.0459228515625
0.0459228515625
0.045117187499999996
0.088623046875
0.0459228515625
0.049951171875
0.045117187499999996
0.0459228515625
0.0459228515625
0.043505859375
0.0475341796875
0.045117187499999996
2.9745117187499996
3.050244140625
3.05185546875
3.0526611328124997
3.0526611328124997
3.0486328124999997
3.0526611328124997
3.053466796875
3.0526611328124997
2.95517578125
2.57490234375
2.8472167968749997
2.8391601562499997
2.7465087890624997
3.0542724609375
3.0558837890625
3.050244140625
3.053466796875
3.0542724609375
3.0486328124999997
2.0439697265625
0.0443115234375
0.050756835937499994
0.045117187499999996
0.049145507812499996
0.0459228515625
0.046728515624999994
0.0459228515625
0.046728515624999994
0.049951171875
0.046728515624999994
0.0475341796875
0.0443115234375
0.0394775390625
0.0443115234375
0.0475341796875
0.0459228515625
0.042700195312499994
0.0475341796875
0.0475341796875
0.038671874999999994
0.0459228515625
2.4951416015624996
3.0526611328124997
3.0526611328124997
3.0526611328124997
3.0470214843749996
3.0550781249999996
3.0526611328124997
3.05185546875
3.0510498046874996
2.96162109375
2.8681640625
2.9028076171875
2.7932373046874996
2.7497314453125
3.0494384765625
3.0478271484375
3.050244140625
3.0526611328124997
3.053466796875
1.8022705078124999
3.0526611328124997
0.2513671875
0.043505859375
0.046728515624999994
0.0459228515625
0.045117187499999996
0.0459228515625
0.046728515624999994
0.045117187499999996
0.0459228515625
0.046728515624999994
0.046728515624999994
0.0459228515625
0.045117187499999996
0.042700195312499994
0.0459228515625
0.0459228515625
0.0443115234375
0.046728515624999994
0.0443115234375
0.049951171875
0.0459228515625
2.5338134765625
3.0550781249999996
3.053466796875
3.0526611328124997
3.05185546875
3.0526611328124997
3.0526611328124997
3.04541015625
3.0526611328124997
3.0542724609375
2.7972656249999996
2.68125
2.8399658203125
2.7287841796874996
2.6546630859375
3.0526611328124997
3.05185546875
3.0494384765625
3.0510498046874996
3.0574951171875
3.037353515625
1.1110107421875
0.0459228515625
0.043505859375
0.045117187499999996
0.041088867187499996
0.0475341796875
0.0459228515625
0.046728515624999994
0.04833984375
0.045117187499999996
0.2376708984375
0.046728515624999994
0.0443115234375
0.049951171875
0.042700195312499994
0.042700195312499994
0.0459228515625
0.0459228515625
0.0459228515625
0.045117187499999996
0.046728515624999994
1.2262207031249999
2.9882080078124997
3.0526611328124997
3.0566894531249997
3.05185546875
3.0550781249999996
3.0526611328124997
3.05185546875
3.0526611328124997
3.05185546875
2.9914306640625
3.05185546875
2.81015625
2.7432861328125
2.69091796875
3.0510498046874996
3.0510498046874996
3.0550781249999996
3.05185546875
3.0550781249999996
2.18173828125
0.04833984375
0.23203125
0.042700195312499994
0.0394775390625
0.046728515624999994
0.0459228515625
0.045117187499999996
0.0459228515625
0.049951171875
0.04189453125
0.043505859375
0.043505859375
0.0475341796875
0.046728515624999994
0.045117187499999996
0.0475341796875
0.0459228515625
0.042700195312499994
0.049145507812499996
0.0459228515625
0.040283203125
0.0443115234375
2.9527587890625
3.053466796875
3.04541015625
3.0526611328124997
3.0542724609375
3.053466796875
3.0486328124999997
3.0550781249999996
3.05185546875
2.9398681640624997
2.8149902343749997
2.7642333984375
2.79404296875
2.72958984375
3.0510498046874996
3.0550781249999996
3.0526611328124997
3.0510498046874996
3.0510498046874996
3.0494384765625
3.0550781249999996
0.16032714843749998
0.049951171875
0.049145507812499996
0.043505859375
0.049145507812499996
0.053173828124999996
0.042700195312499994
0.0459228515625
0.0459228515625
0.0523681640625
0.0459228515625
0.0443115234375
0.049951171875
0.04833984375
0.042700195312499994
0.045117187499999996
0.041088867187499996
0.0459228515625
0.046728515624999994
0.043505859375
0.045117187499999996
2.4854736328125
3.0526611328124997
3.0542724609375
3.0550781249999996
3.0510498046874996
3.053466796875
3.05185546875
3.05185546875
3.053466796875
2.8754150390624997
2.6707763671875
2.8794433593749997
2.8061279296875
2.695751953125
3.0550781249999996
3.053466796875
3.05185546875
3.0494384765625
3.05185546875
0.9635742187499999
1.2640869140625
0.23203125
0.04833984375
0.0443115234375
0.046728515624999994
0.042700195312499994
0.0459228515625
0.0459228515625
0.043505859375
0.045117187499999996
0.049145507812499996
0.20866699218749998
0.0443115234375
0.049145507812499996
0.0523681640625
0.046728515624999994
0.0443115234375
0.0459228515625
0.045117187499999996
0.045117187499999996
0.04189453125
0.0459228515625
2.70703125
3.0526611328124997
3.0526611328124997
3.0542724609375
3.0510498046874996
3.0510498046874996
3.050244140625
3.0542724609375
3.053466796875
3.05185546875
2.69736328125
2.76826171875
2.8206298828125
2.7368408203124996
2.6683593749999996
3.053466796875
3.0526611328124997
3.0510498046874996
3.0526611328124997
3.05185546875
3.0558837890625
1.058642578125
0.049951171875
0.046728515624999994
0.049145507812499996
0.0443115234375
0.042700195312499994
0.0459228515625
0.046728515624999994
0.045117187499999996
0.0459228515625
0.20947265625
0.0459228515625
0.046728515624999994
0.045117187499999996
0.0459228515625
0.049145507812499996
0.049145507812499996
0.0459228515625
0.0459228515625
0.0475341796875
0.046728515624999994
0.0475341796875
2.9221435546874996
3.053466796875
3.050244140625
3.053466796875
3.0526611328124997
3.0510498046874996
3.0526611328124997
3.05185546875
3.053466796875
2.8866943359375
3.0526611328124997
2.7892089843749996
2.7384521484374997
2.673193359375
3.05185546875
3.050244140625
3.05185546875
3.0550781249999996
3.05185546875
3.0510498046874996
0.0459228515625
0.2578125
0.0459228515625
0.046728515624999994
0.045117187499999996
0.04833984375
0.042700195312499994
0.049145507812499996
0.049951171875
0.046728515624999994
0.046728515624999994
0.043505859375
0.0475341796875
0.046728515624999994
0.045117187499999996
0.0394775390625
0.049951171875
0.046728515624999994
0.04833984375
0.042700195312499994
0.046728515624999994
0.0459228515625
2.6683593749999996
3.05185546875
3.0558837890625
3.053466796875
3.05830078125
3.053466796875
3.053466796875
3.0486328124999997
3.0550781249999996
2.9624267578124996
2.9914306640625
2.9261718749999996
2.85205078125
2.7166992187499996
3.05185546875
3.0550781249999996
3.0526611328124997
3.05185546875
3.0550781249999996
3.0550781249999996
3.0526611328124997
0.3029296875
0.0459228515625
0.0459228515625
0.046728515624999994
0.049951171875
0.0459228515625
0.046728515624999994
0.0475341796875
0.0459228515625
0.0443115234375
0.045117187499999996
0.049951171875
0.0459228515625
0.04833984375
0.04833984375
0.046728515624999994
0.0475341796875
0.0459228515625
0.0459228515625
0.0475341796875
0.043505859375
2.32998046875
3.053466796875
3.0510498046874996
3.05185546875
3.0510498046874996
3.0510498046874996
3.0542724609375
3.0526611328124997
3.0494384765625
2.876220703125
2.7247558593749996
2.8552734374999997
2.8037109375
2.6723876953124996
3.0550781249999996
3.0558837890625
3.0526611328124997
3.05185546875
3.0526611328124997
1.6121337890624998
0.045117187499999996
0.343212890625
0.0459228515625
0.04833984375
0.046728515624999994
0.04833984375
0.046728515624999994
0.046728515624999994
0.0459228515625
0.046728515624999994
0.043505859375
0.0684814453125
0.0394775390625
0.0443115234375
0.04833984375
0.0459228515625
0.050756835937499994
0.046728515624999994
0.046728515624999994
0.0459228515625
0.0459228515625
0.0459228515625
0.045117187499999996
2.9261718749999996
3.05185546875
3.0574951171875
3.0542724609375
3.0526611328124997
3.0494384765625
3.0542724609375
3.0526611328124997
3.053466796875
2.8810546875
2.8391601562499997
2.81982421875
2.784375
2.7191162109375
3.0550781249999996
3.0510498046874996
3.0542724609375
3.0550781249999996
3.0550781249999996
3.053466796875
1.7531249999999998
0.04833984375
0.0459228515625
0.0459228515625
0.046728515624999994
0.046728515624999994
0.042700195312499994
0.0459228515625
0.04833984375
0.045117187499999996
0.0459228515625
0.046728515624999994
0.0459228515625
0.0459228515625
0.042700195312499994
0.0443115234375
0.042700195312499994
0.0459228515625
0.0459228515625
0.046728515624999994
0.045117187499999996
0.2360595703125
2.75537109375
3.05185546875
3.0429931640624996
3.05185546875
3.0526611328124997
3.053466796875
3.05185546875
3.0526611328124997
3.050244140625
2.969677734375
2.9430908203125
2.8391601562499997
2.784375
2.7175048828125
3.0542724609375
3.0591064453124996
3.0558837890625
3.0542724609375
3.0550781249999996
3.0526611328124997
0.0459228515625
0.045117187499999996
0.042700195312499994
0.041088867187499996
0.04189453125
0.04833984375
0.0459228515625
0.046728515624999994
0.045117187499999996
0.043505859375
0.0443115234375
0.136962890625
0.0459228515625
0.04833984375
0.04833984375
0.0459228515625
0.049145507812499996
0.0459228515625
0.042700195312499994
0.0459228515625
0.0459228515625
0.046728515624999994
2.9624267578124996
3.050244140625
3.050244140625
3.0550781249999996
3.0494384765625
3.0510498046874996
3.0558837890625
3.05830078125
3.0510498046874996
2.9559814453124997
3.0526611328124997
2.8874999999999997
2.7996826171875
2.7328124999999996
3.053466796875
3.053466796875
3.050244140625
3.0462158203125
3.053466796875
3.0526611328124997
3.0558837890625
0.33273925781249997
0.0459228515625
0.0475341796875
0.046728515624999994
0.0459228515625
0.0459228515625
0.0459228515625
0.046728515624999994
0.0459228515625
0.049951171875
0.0459228515625
0.046728515624999994
0.0459228515625
0.046728515624999994
0.0443115234375
0.0475341796875
0.04833984375
0.0475341796875
0.04833984375
0.049951171875
0.033032226562499996
1.65966796875
3.0510498046874996
3.05185546875
3.0542724609375
3.0542724609375
3.05185546875
3.0550781249999996
3.0510498046874996
3.053466796875
3.053466796875
2.9712890625
2.9382568359374996
3.0083496093749997
2.92294921875
2.8544677734375
3.0526611328124997
3.05185546875
3.050244140625
3.05185546875
2.5845703125
0.045117187499999996
1.46953125
0.042700195312499994
0.046728515624999994
0.04833984375
0.041088867187499996
0.0459228515625
0.04833984375
0.04833984375
0.0443115234375
0.040283203125
0.043505859375
0.04189453125
0.042700195312499994
0.0475341796875
0.049951171875
0.0459228515625
0.042700195312499994
0.0475341796875
0.046728515624999994
0.045117187499999996
0.045117187499999996
0.0733154296875
3.053466796875
3.0470214843749996
3.0574951171875
3.0526611328124997
3.0526611328124997
3.050244140625
3.0574951171875
3.05185546875
3.05185546875
2.989013671875
3.0486328124999997
2.9342285156249996
2.9011962890625
2.8536621093749996
3.05185546875
3.0510498046874996
3.0526611328124997
3.05185546875
3.053466796875
3.053466796875
1.828857421875
0.045117187499999996
0.0459228515625
0.049145507812499996
0.04189453125
0.0459228515625
0.0475341796875
0.046728515624999994
0.04833984375
0.0475341796875
0.0459228515625
0.0459228515625
0.0459228515625
0.0475341796875
0.0443115234375
0.046728515624999994
0.0459228515625
0.0443115234375
0.0523681640625
0.045117187499999996
0.04833984375
0.049951171875
2.4532470703125
3.0550781249999996
3.053466796875
3.0526611328124997
3.050244140625
3.0526611328124997
3.050244140625
3.0526611328124997
3.05185546875
2.9841796874999997
2.8109619140624997
2.9978759765625
2.9664550781249996
2.9463134765624996
3.0558837890625
3.05185546875
3.05185546875
3.0486328124999997
3.0526611328124997
3.053466796875
0.0475341796875
0.11843261718749999
0.0459228515625
0.0459228515625
0.0459228515625
0.046728515624999994
0.049951171875
0.037060546874999996
0.046728515624999994
0.0459228515625
0.046728515624999994
0.07814941406249999
0.045117187499999996
0.0459228515625
0.046728515624999994
0.046728515624999994
0.0443115234375
0.0459228515625
0.045117187499999996
0.046728515624999994
0.046728515624999994
0.045117187499999996
2.5740966796875
3.05185546875
3.0526611328124997
3.0494384765625
3.053466796875
3.0526611328124997
3.05185546875
3.0526611328124997
3.0542724609375
3.043798828125
3.0558837890625
2.866552734375
2.9277832031249997
2.900390625
3.053466796875
3.050244140625
3.0550781249999996
3.0494384765625
3.050244140625
3.053466796875
3.0550781249999996
0.1861083984375
0.04833984375
0.0459228515625
0.04833984375
0.054785156249999994
0.042700195312499994
0.0443115234375
0.0475341796875
0.046728515624999994
0.045117187499999996
0.0459228515625
0.046728515624999994
0.0443115234375
0.049951171875
0.0475341796875
0.046728515624999994
0.0475341796875
0.0475341796875
0.04833984375
0.043505859375
0.0475341796875
2.1342041015624997
3.05185546875
3.0526611328124997
3.059912109375
3.050244140625
3.0526611328124997
3.053466796875
3.05185546875
3.0486328124999997
2.9962646484374997
3.0043212890624997
3.0043212890624997
2.9277832031249997
2.9060302734374996
2.8423828125
3.053466796875
3.05185546875
3.0526611328124997
3.0550781249999996
3.053466796875
0.04833984375
1.699951171875
0.043505859375
0.045117187499999996
0.0475341796875
0.045117187499999996
0.045117187499999996
0.0443115234375
0.046728515624999994
0.046728515624999994
0.0459228515625
0.045117187499999996
0.049951171875
0.046728515624999994
0.046728515624999994
0.0459228515625
0.045117187499999996
0.046728515624999994
0.0459228515625
0.0394775390625
0.050756835937499994
0.042700195312499994
0.0523681640625
2.8770263671875
3.050244140625
3.0526611328124997
3.0486328124999997
3.05185546875
3.0526611328124997
3.053466796875
3.053466796875
3.0526611328124997
2.8697753906249996
3.0510498046874996
2.8657470703124996
2.848828125
2.8029052734374997
3.053466796875
3.0526611328124997
3.05185546875
3.0494384765625
3.050244140625
3.0550781249999996
0.7226806640625
0.0459228515625
0.041088867187499996
0.0475341796875
0.046728515624999994
0.0475341796875
0.043505859375
0.043505859375
0.041088867187499996
0.049951171875
0.0459228515625
0.0459228515625
0.0459228515625
0.0443115234375
0.043505859375
0.0443115234375
0.045117187499999996
0.0475341796875
0.046728515624999994
0.0459228515625
0.0459228515625
0.0459228515625
2.5894042968749997
3.05185546875
3.0510498046874996
3.0566894531249997
3.053466796875
3.053466796875
3.05185546875
3.0542724609375
3.0526611328124997
2.9624267578124996
2.512060546875
2.95517578125
2.856884765625
2.8456054687499996
3.05185546875
3.053466796875
3.0566894531249997
3.0510498046874996
3.0550781249999996
3.0510498046874996
0.7565185546875
0.04833984375
0.045117187499999996
0.043505859375
0.046728515624999994
0.046728515624999994
0.049951171875
0.045117187499999996
0.0475341796875
0.046728515624999994
0.0443115234375
0.2537841796875
0.049951171875
0.045117187499999996
0.0459228515625
0.045117187499999996
0.0459228515625
0.0475341796875
0.0459228515625
0.042700195312499994
0.049145507812499996
0.049951171875
2.5716796874999996
3.05185546875
3.0486328124999997
3.0526611328124997
3.05185546875
3.0558837890625
3.0462158203125
3.0542724609375
3.05185546875
2.9914306640625
3.0550781249999996
2.6756103515625
2.8286865234375
2.8045166015625
2.78759765625
3.0542724609375
3.0526611328124997
3.0542724609375
3.0526611328124997
3.050244140625
3.05185546875
0.2578125
0.042700195312499994
0.045117187499999996
0.0443115234375
0.0523681640625
0.04833984375
0.045117187499999996
0.040283203125
0.045117187499999996
0.04833984375
0.046728515624999994
0.0475341796875
0.0475341796875
0.0459228515625
0.049951171875
0.0475341796875
0.045117187499999996
0.049951171875
0.043505859375
0.045117187499999996
0.0459228515625
1.055419921875
3.0510498046874996
3.053466796875
3.0526611328124997
3.05185546875
3.0542724609375
3.05185546875
3.0558837890625
3.050244140625
3.0542724609375
2.9447021484375
2.9946533203124996
2.8657470703124996
2.8222412109375
2.7521484375
3.0615234375
3.0526611328124997
3.0526611328124997
3.0478271484375
3.053466796875
0.591357421875
0.11279296875
0.0459228515625
0.045117187499999996
0.0475341796875
0.049951171875
0.045117187499999996
0.045117187499999996
0.0459228515625
0.0443115234375
0.045117187499999996
0.0459228515625
0.0362548828125
0.04833984375
0.0459228515625
0.045117187499999996
0.042700195312499994
0.0459228515625
0.046728515624999994
0.0459228515625
0.0443115234375
0.0475341796875
0.0443115234375
3.0510498046874996
3.0510498046874996
3.053466796875
3.0591064453124996
3.0542724609375
3.053466796875
3.053466796875
3.05185546875
3.053466796875
2.9495361328125
3.053466796875
2.8286865234375
2.8359375
2.7626220703124997
3.053466796875
3.0526611328124997
3.0510498046874996
3.0486328124999997
3.050244140625
3.053466796875
1.5299560546875
0.0443115234375
0.046728515624999994
0.0459228515625
0.043505859375
0.049145507812499996
0.049951171875
0.0459228515625
0.049145507812499996
0.045117187499999996
0.049145507812499996
0.0459228515625
0.049145507812499996
0.0443115234375
0.058813476562499994
0.0459228515625
0.0443115234375
0.0523681640625
0.0459228515625
0.046728515624999994
0.04189453125
0.045117187499999996
2.5676513671874996
3.053466796875
3.0542724609375
3.0526611328124997
3.0526611328124997
3.050244140625
3.0486328124999997
3.0550781249999996
3.0550781249999996
3.0099609375
2.5950439453125
2.9688720703125
2.7948486328124997
2.7892089843749996
3.0526611328124997
3.0526611328124997
3.05185546875
3.0510498046874996
3.0526611328124997
2.618408203125
1.91748046875
0.0990966796875
0.045117187499999996
0.04833984375
0.0459228515625
0.046728515624999994
0.0459228515625
0.049145507812499996
0.049951171875
0.0459228515625
0.046728515624999994
0.043505859375
0.049951171875
0.0443115234375
0.049951171875
0.0459228515625
0.0459228515625
0.0459228515625
0.0459228515625
0.049951171875
0.045117187499999996
0.0459228515625
2.5096435546875
3.053466796875
3.05185546875
3.05185546875
3.0558837890625
3.0510498046874996
3.050244140625
3.0478271484375
3.050244140625
2.9785400390624996
3.05185546875
2.6530517578125
2.834326171875
2.76826171875
2.719921875
3.050244140625
3.0542724609375
3.0550781249999996
3.05185546875
3.0510498046874996
3.050244140625
0.9974121093749999
0.046728515624999994
0.045117187499999996
0.0443115234375
0.0394775390625
0.046728515624999994
0.0459228515625
0.042700195312499994
0.046728515624999994
0.046728515624999994
0.0459228515625
0.049145507812499996
0.049145507812499996
0.04833984375
0.0475341796875
0.0459228515625
0.046728515624999994
0.046728515624999994
0.04189453125
0.042700195312499994
0.04833984375
1.5251220703125
3.053466796875
3.0542724609375
3.0510498046874996
3.05185546875
3.0542724609375
3.0526611328124997
3.0526611328124997
3.05185546875
2.8963623046875
2.96484375
3.05185546875
2.9108642578125
2.8286865234375
2.8149902343749997
3.05185546875
3.05185546875
3.05185546875
3.05185546875
3.0550781249999996
1.393798828125
0.0459228515625
0.045117187499999996
0.0459228515625
0.0475341796875
0.045117187499999996
0.046728515624999994
0.0459228515625
0.0459228515625
0.041088867187499996
0.049951171875
0.0459228515625
0.046728515624999994
