0.0459228515625
0.045117187499999996
0.0459228515625
0.045117187499999996
0.0459228515625
0.046728515624999994
0.046728515624999994
0.346435546875
0.042700195312499994
0.0459228515625
0.0475341796875
0.0475341796875
0.049145507812499996
0.046728515624999994
0.046728515624999994
0.042700195312499994
0.046728515624999994
0.043505859375
2.8689697265625
3.05185546875
3.053466796875
3.04541015625
3.053466796875
3.0550781249999996
3.053466796875
3.0486328124999997
3.0558837890625
2.979345703125
3.0558837890625
2.80048828125
2.7674560546875
2.6876953125
3.053466796875
3.0462158203125
3.05185546875
3.0526611328124997
3.0550781249999996
3.050244140625
3.053466796875
0.1353515625
0.0459228515625
0.04833984375
0.0459228515625
0.042700195312499994
0.0459228515625
0.043505859375
0.046728515624999994
0.0459228515625
0.0459228515625
0.0443115234375
0.0459228515625
0.0459228515625
0.0475341796875
0.045117187499999996
0.04833984375
0.042700195312499994
0.0443115234375
0.04189453125
0.0459228515625
0.049145507812499996
3.043798828125
3.0510498046874996
3.0510498046874996
3.0526611328124997
3.053466796875
3.05185546875
3.0566894531249997
3.053466796875
3.053466796875
2.9189208984375
3.050244140625
2.8061279296875
2.8496337890624996
2.771484375
3.0381591796875
3.053466796875
3.0542724609375
3.0550781249999996
3.0550781249999996
2.843994140625
0.0475341796875
0.42861328125
0.0475341796875
0.0459228515625
0.0459228515625
0.049951171875
0.04833984375
0.043505859375
0.050756835937499994
0.0459228515625
0.0443115234375
0.04833984375
0.17482910156249998
0.050756835937499994
0.042700195312499994
0.042700195312499994
0.0475341796875
0.046728515624999994
0.045117187499999996
0.049951171875
0.0459228515625
0.050756835937499994
2.035107421875
3.0494384765625
3.053466796875
3.0542724609375
3.05185546875
3.053466796875
3.0526611328124997
3.0494384765625
3.0591064453124996
3.0542724609375
2.9737060546875
3.0494384765625
2.8190185546874997
2.7263671874999997
2.62646484375
3.0526611328124997
3.0510498046874996
3.0542724609375
3.0510498046874996
3.0550781249999996
0.0475341796875
0.7162353515625
0.046728515624999994
0.046728515624999994
0.0459228515625
0.04189453125
0.04833984375
0.049145507812499996
0.0475341796875
0.04833984375
0.0459228515625
0.046728515624999994
0.0459228515625
0.046728515624999994
0.064453125
0.041088867187499996
0.053173828124999996
0.050756835937499994
0.045117187499999996
0.0515625
0.0459228515625
0.046728515624999994
0.49064941406249996
2.8029052734374997
3.053466796875
3.0566894531249997
3.053466796875
3.0526611328124997
3.050244140625
3.0542724609375
3.0526611328124997
3.0526611328124997
2.914892578125
2.421826171875
2.8939453124999996
2.8294921874999996
2.7432861328125
3.053466796875
3.0526611328124997
3.0542724609375
3.053466796875
3.0510498046874996
3.0510498046874996
0.6131103515624999
0.045117187499999996
0.0459228515625
0.0475341796875
0.0475341796875
0.0443115234375
0.045117187499999996
0.0459228515625
0.043505859375
0.04833984375
0.049145507812499996
0.1506591796875
0.053173828124999996
0.046728515624999994
0.04833984375
0.0459228515625
0.04833984375
0.04833984375
0.049145507812499996
0.0515625
0.0459228515625
0.046728515624999994
2.5354248046874996
3.0566894531249997
3.0542724609375
3.0558837890625
3.050244140625
3.05185546875
3.053466796875
3.05185546875
3.0542724609375
3.0510498046874996
3.05185546875
2.931005859375
2.7497314453125
2.7175048828125
3.0550781249999996
3.0558837890625
3.0550781249999996
3.053466796875
3.053466796875
3.05185546875
3.05185546875
0.04189453125
0.0475341796875
0.049951171875
0.0443115234375
0.042700195312499994
0.0459228515625
0.042700195312499994
0.0475341796875
0.0459228515625
0.046728515624999994
0.20061035156249998
0.0443115234375
0.1297119140625
0.10957031249999999
0.0475341796875
0.0475341796875
0.0459228515625
0.042700195312499994
0.046728515624999994
0.046728515624999994
0.0459228515625
2.76826171875
3.05185546875
3.0510498046874996
3.05185546875
3.053466796875
3.0542724609375
3.0542724609375
3.05185546875
3.0526611328124997
2.99384765625
2.8544677734375
2.602294921875
2.8480224609375
2.7884033203125
2.705419921875
3.053466796875
3.053466796875
3.053466796875
3.0526611328124997
3.050244140625
1.4034667968749999
1.255224609375
0.0459228515625
0.046728515624999994
0.04833984375
0.0475341796875
0.046728515624999994
0.049145507812499996
0.045117187499999996
0.0443115234375
0.0475341796875
0.1506591796875
0.043505859375
0.0459228515625
0.046728515624999994
0.045117187499999996
0.0443115234375
0.049145507812499996
0.046728515624999994
0.042700195312499994
0.0459228515625
0.046728515624999994
1.2697265624999998
3.0566894531249997
3.0494384765625
3.05185546875
3.0558837890625
3.0526611328124997
3.053466796875
3.0542724609375
3.0526611328124997
3.053466796875
2.9801513671874997
3.053466796875
2.8029052734374997
2.7835693359375
2.7344238281249997
3.0526611328124997
2.98095703125
3.0550781249999996
3.053466796875
3.0550781249999996
2.367041015625
0.0459228515625
0.2054443359375
0.049145507812499996
0.0459228515625
0.043505859375
0.045117187499999996
0.049145507812499996
0.0459228515625
0.0475341796875
0.0475341796875
0.0475341796875
0.049145507812499996
0.11923828125
0.07009277343749999
0.0459228515625
0.046728515624999994
0.045117187499999996
0.04833984375
0.0459228515625
0.045117187499999996
0.046728515624999994
0.046728515624999994
2.6530517578125
3.0542724609375
3.0526611328124997
3.0526611328124997
3.05830078125
3.0542724609375
3.05830078125
3.0494384765625
3.0558837890625
2.9479248046874997
3.05185546875
3.0365478515624997
2.8931396484375
2.8294921874999996
3.0526611328124997
3.0526611328124997
3.0558837890625
3.0526611328124997
3.053466796875
3.0510498046874996
3.0558837890625
0.149853515625
0.0515625
0.0475341796875
0.0459228515625
0.0459228515625
0.045117187499999996
0.046728515624999994
0.0475341796875
0.04833984375
0.0443115234375
0.046728515624999994
0.0475341796875
0.0475341796875
0.046728515624999994
0.0459228515625
0.0515625
0.0459228515625
0.04833984375
0.049145507812499996
0.0475341796875
0.0459228515625
2.1551513671875
3.0542724609375
3.0494384765625
3.0526611328124997
3.053466796875
3.05185546875
3.050244140625
3.0550781249999996
3.0566894531249997
2.8931396484375
2.792431640625
2.9511474609375
2.8625244140625
2.8166015625
3.0558837890625
3.0494384765625
3.053466796875
3.05185546875
3.050244140625
0.9434326171874999
0.8725341796874999
0.41330566406249997
0.0459228515625
0.046728515624999994
0.0459228515625
0.0475341796875
0.02900390625
0.0475341796875
0.0475341796875
0.0475341796875
0.049145507812499996
0.04833984375
0.0515625
0.045117187499999996
0.0459228515625
0.0443115234375
0.0459228515625
0.0475341796875
0.045117187499999996
0.04189453125
0.0443115234375
0.046728515624999994
2.4290771484375
2.874609375
3.0526611328124997
3.05185546875
3.0510498046874996
3.05185546875
3.0550781249999996
3.0526611328124997
3.0526611328124997
3.0510498046874996
2.924560546875
2.956787109375
2.89072265625
2.8375488281249996
2.744091796875
3.053466796875
3.053466796875
3.0526611328124997
3.053466796875
3.050244140625
3.0550781249999996
2.0214111328124997
0.0475341796875
0.0475341796875
0.049951171875
0.046728515624999994
0.046728515624999994
0.0459228515625
0.045117187499999996
0.0475341796875
0.046728515624999994
0.0958740234375
0.046728515624999994
0.11843261718749999
0.11279296875
0.0926513671875
0.046728515624999994
0.049145507812499996
0.046728515624999994
0.0459228515625
0.046728515624999994
0.042700195312499994
0.768603515625
2.578125
3.0574951171875
3.0566894531249997
3.0542724609375
3.05185546875
3.05185546875
3.0550781249999996
2.9366455078125
3.0325195312499997
2.972900390625
2.719921875
2.8174072265624996
2.811767578125
2.7392578125
3.0526611328124997
3.05185546875
3.0558837890625
3.05185546875
3.053466796875
3.050244140625
0.04833984375
0.2135009765625
0.0459228515625
0.046728515624999994
0.049145507812499996
0.043505859375
0.049951171875
0.0459228515625
0.0475341796875
0.04833984375
0.042700195312499994
0.30051269531249997
0.0475341796875
0.045117187499999996
0.050756835937499994
0.0443115234375
0.0475341796875
0.045117187499999996
0.046728515624999994
0.045117187499999996
0.0443115234375
0.050756835937499994
2.6611083984375
3.0526611328124997
3.0550781249999996
3.0526611328124997
3.053466796875
3.0542724609375
3.0526611328124997
3.05185546875
3.05185546875
3.0010986328125
3.053466796875
2.715087890625
2.7030029296875
2.6143798828125
3.0526611328124997
3.0542724609375
3.050244140625
3.0542724609375
3.0542724609375
3.05185546875
3.05185546875
0.35690917968749997
0.043505859375
0.0443115234375
0.0459228515625
0.046728515624999994
0.0459228515625
0.046728515624999994
0.0475341796875
0.0443115234375
0.045117187499999996
0.0459228515625
0.046728515624999994
0.0459228515625
0.046728515624999994
0.049145507812499996
0.0459228515625
0.046728515624999994
0.050756835937499994
0.046728515624999994
0.041088867187499996
0.043505859375
1.7724609375
3.05185546875
3.0486328124999997
3.0566894531249997
3.053466796875
3.0510498046874996
3.050244140625
3.05185546875
3.0542724609375
2.848828125
2.9398681640624997
3.0558837890625
2.83271484375
2.7432861328125
2.6441894531249996
3.0526611328124997
3.0526611328124997
3.053466796875
3.0510498046874996
2.6860839843749997
0.045117187499999996
1.3559326171875
0.045117187499999996
0.049145507812499996
0.046728515624999994
0.045117187499999996
0.045117187499999996
0.0459228515625
0.046728515624999994
0.045117187499999996
0.049951171875
0.0459228515625
0.1232666015625
0.046728515624999994
0.0443115234375
0.046728515624999994
0.0459228515625
0.0459228515625
0.046728515624999994
0.0475341796875
0.04833984375
0.0459228515625
1.3792968749999999
2.8939453124999996
3.0558837890625
3.0510498046874996
3.0526611328124997
3.05185546875
3.053466796875
3.050244140625
3.05185546875
3.0478271484375
2.9076416015624997
3.0550781249999996
2.7650390624999996
2.75537109375
2.663525390625
3.0486328124999997
3.0550781249999996
3.0542724609375
3.0550781249999996
3.053466796875
3.053466796875
0.942626953125
0.0443115234375
0.049145507812499996
0.049145507812499996
0.0475341796875
0.0459228515625
0.0459228515625
0.0475341796875
0.0475341796875
0.046728515624999994
0.046728515624999994
0.04833984375
0.062841796875
0.046728515624999994
0.043505859375
0.046728515624999994
0.045117187499999996
0.0459228515625
0.0475341796875
0.04833984375
0.037060546874999996
0.043505859375
2.3654296875
3.0526611328124997
3.0566894531249997
3.0542724609375
3.0526611328124997
3.0486328124999997
3.0574951171875
3.05185546875
3.0510498046874996
3.0413818359375
2.373486328125
2.8383544921875
2.7271728515625
2.6619140624999997
3.0510498046874996
3.05830078125
3.05185546875
3.0486328124999997
3.0526611328124997
3.0558837890625
0.8201660156249999
0.1313232421875
0.0475341796875
0.0475341796875
0.049951171875
0.046728515624999994
0.0475341796875
0.0459228515625
0.0459228515625
0.043505859375
0.0443115234375
0.1893310546875
0.043505859375
0.045117187499999996
0.0459228515625
0.04833984375
0.049145507812499996
0.046728515624999994
0.049145507812499996
0.043505859375
0.0475341796875
0.0459228515625
3.053466796875
3.05185546875
3.0566894531249997
3.0566894531249997
3.053466796875
3.0526611328124997
3.0550781249999996
3.053466796875
3.0566894531249997
3.0067382812499996
3.0542724609375
2.5724853515625
2.7424804687499997
2.70380859375
2.6739990234374997
3.0510498046874996
3.0558837890625
3.0550781249999996
3.0542724609375
3.0526611328124997
3.053466796875
0.3794677734375
0.045117187499999996
0.049145507812499996
0.0459228515625
0.049145507812499996
0.0475341796875
0.0475341796875
0.050756835937499994
0.049145507812499996
0.046728515624999994
0.0990966796875
0.11762695312499999
0.053173828124999996
0.0475341796875
0.0459228515625
0.042700195312499994
0.0443115234375
0.046728515624999994
0.0459228515625
0.042700195312499994
0.04189453125
1.1287353515625
2.9302001953124996
3.05185546875
3.05185546875
3.0510498046874996
3.0526611328124997
3.0550781249999996
3.0526611328124997
3.0526611328124997
2.8899169921874996
2.9100585937499996
3.0550781249999996
2.7779296875
2.7005859374999996
2.59423828125
3.0510498046874996
3.053466796875
3.05185546875
3.053466796875
3.05185546875
0.9289306640624999
0.6123046875
0.0459228515625
0.046728515624999994
0.046728515624999994
0.0459228515625
0.045117187499999996
0.043505859375
0.046728515624999994
0.0459228515625
0.0459228515625
0.042700195312499994
0.045117187499999996
0.0515625
0.046728515624999994
0.046728515624999994
0.042700195312499994
0.049145507812499996
0.046728515624999994
0.0475341796875
0.0475341796875
0.045117187499999996
0.0443115234375
3.0413818359375
3.0486328124999997
3.05185546875
3.0526611328124997
3.053466796875
3.0542724609375
3.05185546875
3.0550781249999996
3.05185546875
2.876220703125
2.8061279296875
2.7287841796874996
2.7481201171875
2.62646484375
3.0542724609375
3.0526611328124997
3.0510498046874996
3.05185546875
3.053466796875
3.05185546875
2.3162841796875
0.053173828124999996
0.041088867187499996
0.0475341796875
0.043505859375
0.043505859375
0.046728515624999994
0.046728515624999994
0.0459228515625
0.0459228515625
0.04833984375
0.046728515624999994
0.058813476562499994
0.040283203125
0.045117187499999996
0.042700195312499994
0.046728515624999994
0.0475341796875
0.043505859375
0.0394775390625
0.042700195312499994
0.0459228515625
3.029296875
3.05185546875
3.053466796875
3.0566894531249997
3.0558837890625
3.05185546875
3.05185546875
3.0550781249999996
3.0107666015624996
3.034130859375
2.7505371093749997
2.9672607421875
2.7158935546875
2.66513671875
3.050244140625
3.050244140625
3.0526611328124997
3.05185546875
3.053466796875
1.400244140625
3.053466796875
0.1168212890625
0.0459228515625
0.049145507812499996
0.0459228515625
0.043505859375
0.0459228515625
0.046728515624999994
0.0443115234375
0.040283203125
0.0459228515625
0.04833984375
0.043505859375
0.0475341796875
0.0475341796875
0.04833984375
0.0459228515625
0.0459228515625
0.046728515624999994
0.0443115234375
0.050756835937499994
0.046728515624999994
2.860107421875
3.0558837890625
3.050244140625
3.0526611328124997
3.0526611328124997
3.053466796875
3.0566894531249997
3.050244140625
3.0550781249999996
2.9583984374999996
2.663525390625
2.6482177734374996
2.80048828125
2.70703125
2.615185546875
3.0494384765625
3.0526611328124997
3.0550781249999996
3.0478271484375
3.05185546875
1.699951171875
1.8570556640625
0.043505859375
0.0475341796875
0.045117187499999996
0.046728515624999994
0.0459228515625
0.0475341796875
0.049951171875
0.04833984375
0.045117187499999996
0.08701171875
0.046728515624999994
0.049145507812499996
0.050756835937499994
0.049145507812499996
0.046728515624999994
0.046728515624999994
0.046728515624999994
0.046728515624999994
0.042700195312499994
0.0459228515625
0.7226806640625
2.96162109375
3.053466796875
3.05185546875
3.0526611328124997
3.053466796875
3.050244140625
3.050244140625
3.0550781249999996
3.0550781249999996
2.9326171875
2.8536621093749996
2.8456054687499996
2.7835693359375
2.7126708984374996
3.0591064453124996
3.0558837890625
3.0470214843749996
3.0574951171875
3.0550781249999996
3.0542724609375
0.0443115234375
0.2505615234375
0.046728515624999994
0.045117187499999996
0.04189453125
0.0515625
0.0459228515625
0.04189453125
0.0459228515625
0.046728515624999994
0.043505859375
0.13857421875
0.0797607421875
0.09990234375
0.04833984375
0.045117187499999996
0.049145507812499996
0.0459228515625
0.049951171875
0.0443115234375
0.042700195312499994
0.0459228515625
3.0510498046874996
3.0566894531249997
3.0526611328124997
3.053466796875
3.05185546875
3.0526611328124997
3.0526611328124997
3.0075439453125
3.0510498046874996
2.91650390625
3.0558837890625
2.7384521484374997
2.7505371093749997
2.6361328124999996
3.053466796875
3.0510498046874996
3.050244140625
3.0510498046874996
3.0526611328124997
3.05185546875
3.05185546875
0.214306640625
0.0459228515625
0.046728515624999994
0.049145507812499996
0.0443115234375
0.0475341796875
0.046728515624999994
0.0459228515625
0.042700195312499994
0.043505859375
0.1861083984375
0.04833984375
0.0475341796875
0.0459228515625
0.0475341796875
0.038671874999999994
0.046728515624999994
0.043505859375
0.04833984375
0.042700195312499994
0.045117187499999996
2.753759765625
3.0486328124999997
3.0542724609375
3.05185546875
3.0526611328124997
3.0558837890625
3.0542724609375
3.053466796875
3.0510498046874996
2.908447265625
3.053466796875
2.86494140625
2.8415771484374996
2.6659423828124997
3.053466796875
3.0526611328124997
3.05185546875
3.0542724609375
3.0526611328124997
1.7740722656249999
3.05185546875
0.375439453125
0.0475341796875
0.042700195312499994
0.04833984375
0.049951171875
0.04833984375
0.04833984375
0.0459228515625
0.046728515624999994
0.0475341796875
0.0459228515625
0.0749267578125
0.049145507812499996
0.0459228515625
0.045117187499999996
0.0459228515625
0.0443115234375
0.046728515624999994
0.042700195312499994
0.046728515624999994
0.0459228515625
2.2679443359375
3.0494384765625
3.05185546875
3.0526611328124997
3.0526611328124997
3.0526611328124997
3.05185546875
3.05185546875
3.05185546875
3.005126953125
2.9986816406249996
3.0558837890625
2.8560791015625
2.7779296875
2.6449951171875
3.0526611328124997
3.0542724609375
3.0510498046874996
3.0526611328124997
2.309033203125
0.0443115234375
1.4574462890625
0.0475341796875
0.045117187499999996
0.045117187499999996
0.045117187499999996
0.0459228515625
0.049951171875
0.0459228515625
0.046728515624999994
0.0475341796875
0.0459228515625
0.045117187499999996
0.08942871093749999
0.069287109375
0.046728515624999994
0.04833984375
0.0459228515625
0.042700195312499994
0.046728515624999994
0.0459228515625
0.046728515624999994
0.8870361328124999
2.5096435546875
3.0542724609375
3.050244140625
3.0526611328124997
3.05185546875
3.0542724609375
3.0526611328124997
2.95517578125
3.0510498046874996
2.963232421875
2.55234375
2.8536621093749996
2.784375
2.7021972656249997
3.050244140625
3.0462158203125
3.0526611328124997
3.0558837890625
3.05185546875
3.0526611328124997
0.8129150390625
0.04833984375
0.0459228515625
0.0475341796875
0.046728515624999994
0.0459228515625
0.046728515624999994
0.0475341796875
0.0459228515625
0.0459228515625
0.0475341796875
0.36899414062499997
0.10634765624999999
0.06767578125
0.0443115234375
0.049145507812499996
0.045117187499999996
0.0475341796875
0.046728515624999994
0.049145507812499996
0.045117187499999996
0.046728515624999994
2.8955566406249997
3.0470214843749996
3.0550781249999996
3.0550781249999996
3.05185546875
3.0510498046874996
3.0526611328124997
3.053466796875
3.053466796875
2.989013671875
3.05185546875
2.834326171875
2.763427734375
2.7408691406249996
3.053466796875
3.05185546875
3.0526611328124997
3.050244140625
3.053466796875
3.050244140625
3.05185546875
0.045117187499999996
0.0459228515625
0.043505859375
0.04833984375
0.0459228515625
0.0475341796875
0.046728515624999994
0.046728515624999994
0.043505859375
0.0459228515625
0.322265625
0.043505859375
0.07734374999999999
0.050756835937499994
0.045117187499999996
0.049145507812499996
0.046728515624999994
0.0459228515625
0.04833984375
0.0443115234375
0.043505859375
2.537841796875
3.053466796875
3.053466796875
3.053466796875
3.05185546875
3.0542724609375
3.0574951171875
3.0526611328124997
3.05185546875
2.931005859375
3.05185546875
2.7126708984374996
2.9124755859375
2.7948486328124997
2.8166015625
3.0558837890625
3.0526611328124997
3.05185546875
3.0510498046874996
3.0526611328124997
3.050244140625
0.30615234375
0.0443115234375
0.046728515624999994
0.0459228515625
0.0459228515625
0.049145507812499996
0.046728515624999994
0.046728515624999994
0.0459228515625
0.046728515624999994
0.046728515624999994
0.1796630859375
0.045117187499999996
0.04833984375
0.045117187499999996
0.042700195312499994
0.0443115234375
0.0475341796875
0.046728515624999994
0.043505859375
0.0459228515625
1.2906738281249999
2.8939453124999996
3.0542724609375
3.053466796875
3.0486328124999997
3.0542724609375
3.0558837890625
3.050244140625
3.053466796875
2.9100585937499996
2.9583984374999996
3.05185546875
2.8456054687499996
2.824658203125
2.7674560546875
3.0526611328124997
3.0486328124999997
3.05185546875
3.0494384765625
3.053466796875
0.8805908203124999
0.043505859375
0.0459228515625
0.0443115234375
0.0459228515625
0.0515625
0.045117187499999996
0.045117187499999996
0.045117187499999996
0.0459228515625
0.0459228515625
0.040283203125
0.0459228515625
0.062841796875
0.050756835937499994
0.042700195312499994
0.04833984375
0.046728515624999994
0.049145507812499996
0.0475341796875
0.046728515624999994
0.046728515624999994
0.040283203125
2.5209228515624997
3.050244140625
3.0526611328124997
3.0542724609375
3.053466796875
3.0510498046874996
3.0566894531249997
3.050244140625
3.0550781249999996
2.9334228515625
2.5998779296874996
2.8464111328125
2.843994140625
2.76181640625
3.0550781249999996
3.0566894531249997
3.0526611328124997
3.05185546875
3.0526611328124997
3.0526611328124997
1.7015624999999999
0.050756835937499994
0.0459228515625
0.0459228515625
0.042700195312499994
0.04833984375
0.049145507812499996
0.046728515624999994
0.045117187499999996
0.041088867187499996
0.046728515624999994
0.045117187499999996
0.056396484375
0.045117187499999996
0.0459228515625
0.045117187499999996
0.0475341796875
0.046728515624999994
0.0443115234375
0.046728515624999994
0.04833984375
0.04189453125
2.7706787109374997
3.0526611328124997
3.0510498046874996
3.05185546875
3.0526611328124997
3.0558837890625
3.053466796875
3.05185546875
3.0542724609375
3.0494384765625
2.8423828125
3.0389648437499996
2.8754150390624997
2.8431884765624997
3.053466796875
3.053466796875
3.0510498046874996
3.0526611328124997
3.053466796875
1.5541259765625
3.0413818359375
0.046728515624999994
0.0459228515625
0.0459228515625
0.046728515624999994
0.0459228515625
0.0443115234375
0.049145507812499996
0.0378662109375
0.0443115234375
0.0459228515625
0.046728515624999994
0.046728515624999994
0.12568359375
0.1087646484375
0.046728515624999994
0.050756835937499994
0.0459228515625
0.046728515624999994
0.04833984375
0.046728515624999994
0.0459228515625
2.3775146484375
3.0139892578125
3.05185546875
3.05185546875
3.0550781249999996
3.053466796875
3.050244140625
3.050244140625
3.0607177734374997
3.0510498046874996
2.70380859375
2.769873046875
2.850439453125
2.7585937499999997
2.6748046875
3.053466796875
3.053466796875
3.053466796875
3.0526611328124997
3.0526611328124997
1.7732666015624998
1.8618896484374998
0.0443115234375
0.042700195312499994
0.046728515624999994
0.0459228515625
0.053173828124999996
0.0459228515625
0.046728515624999994
0.045117187499999996
0.042700195312499994
0.1152099609375
0.0459228515625
0.0475341796875
0.045117187499999996
0.045117187499999996
0.046728515624999994
0.0459228515625
0.0475341796875
0.046728515624999994
0.046728515624999994
0.04833984375
0.0459228515625
2.760205078125
3.05185546875
3.0542724609375
3.0542724609375
3.0574951171875
3.053466796875
3.05185546875
3.0566894531249997
3.0550781249999996
2.9962646484374997
3.02607421875
2.7779296875
2.81015625
2.7521484375
3.0486328124999997
3.0550781249999996
3.05185546875
3.0510498046874996
3.053466796875
3.0566894531249997
0.042700195312499994
0.25217285156249997
0.043505859375
0.0459228515625
0.046728515624999994
0.045117187499999996
0.0475341796875
0.0459228515625
0.0459228515625
0.0459228515625
0.046728515624999994
0.10151367187499999
0.0717041015625
0.08540039062499999
0.0523681640625
0.043505859375
0.045117187499999996
0.043505859375
0.046728515624999994
0.046728515624999994
0.0459228515625
0.046728515624999994
3.0446044921874997
3.0574951171875
3.0550781249999996
3.053466796875
3.05185546875
3.050244140625
3.05185546875
3.05185546875
3.05185546875
3.0099609375
3.0574951171875
2.8206298828125
2.8770263671875
2.785986328125
3.0486328124999997
3.053466796875
3.053466796875
3.0671630859374996
3.050244140625
3.0526611328124997
3.050244140625
0.13615722656249998
0.046728515624999994
0.0475341796875
0.045117187499999996
0.046728515624999994
0.042700195312499994
0.0459228515625
0.0475341796875
0.045117187499999996
0.04833984375
0.0459228515625
0.0733154296875
0.07009277343749999
0.0475341796875
0.041088867187499996
0.042700195312499994
0.043505859375
0.046728515624999994
0.046728515624999994
0.045117187499999996
0.0475341796875
2.8335205078124996
3.0510498046874996
3.0550781249999996
3.0526611328124997
3.0550781249999996
3.053466796875
3.0510498046874996
3.0558837890625
3.0526611328124997
2.9108642578125
3.0526611328124997
2.9680664062499997
2.9559814453124997
2.848828125
3.0558837890625
3.0542724609375
3.053466796875
3.05185546875
3.05185546875
1.8489990234375
0.0475341796875
0.46245117187499996
0.049951171875
0.043505859375
0.0459228515625
0.0475341796875
0.043505859375
0.042700195312499994
0.04189453125
0.0459228515625
0.046728515624999994
0.046728515624999994
0.0475341796875
0.046728515624999994
0.043505859375
0.0475341796875
0.049145507812499996
0.0443115234375
0.043505859375
0.046728515624999994
0.046728515624999994
0.0459228515625
1.7877685546875
2.7730957031249996
3.053466796875
3.0526611328124997
3.0526611328124997
3.0542724609375
3.0486328124999997
3.05185546875
3.0510498046874996
3.05185546875
2.9906249999999996
3.053466796875
2.8335205078124996
2.769873046875
2.6530517578125
3.0574951171875
3.05185546875
3.05185546875
3.0494384765625
3.0526611328124997
0.046728515624999994
1.6056884765625
0.041088867187499996
0.045117187499999996
0.046728515624999994
0.045117187499999996
0.043505859375
0.0459228515625
0.04833984375
0.0459228515625
0.046728515624999994
0.0459228515625
0.04833984375
0.0668701171875
0.054785156249999994
0.0459228515625
0.0459228515625
0.046728515624999994
0.04833984375
0.046728515624999994
0.043505859375
0.0459228515625
0.694482421875
2.3259521484375
3.0542724609375
3.05185546875
3.0526611328124997
3.0542724609375
3.053466796875
3.053466796875
2.9398681640624997
3.0550781249999996
2.9817626953125
2.5168945312499997
2.9068359375
2.8302978515625
2.719921875
3.05185546875
3.0550781249999996
3.0558837890625
3.053466796875
3.0550781249999996
3.0542724609375
0.4632568359375
0.07814941406249999
0.049145507812499996
0.042700195312499994
0.049951171875
0.0475341796875
0.0443115234375
0.0459228515625
0.049145507812499996
0.046728515624999994
0.0459228515625
0.25620117187499997
0.046728515624999994
0.04833984375
0.043505859375
0.0459228515625
0.049145507812499996
0.045117187499999996
0.0459228515625
0.04833984375
0.046728515624999994
0.049145507812499996
2.60712890625
3.05185546875
3.0526611328124997
3.0526611328124997
3.0510498046874996
3.053466796875
3.0542724609375
3.05185546875
3.0494384765625
3.02607421875
3.053466796875
2.8528564453125
2.7577880859375
2.7166992187499996
3.0494384765625
3.0526611328124997
3.0558837890625
3.0510498046874996
3.0494384765625
3.05185546875
3.0526611328124997
0.049145507812499996
0.0459228515625
0.045117187499999996
0.0459228515625
0.046728515624999994
0.050756835937499994
0.046728515624999994
0.0459228515625
0.049145507812499996
0.049951171875
0.0459228515625
0.045117187499999996
0.058813476562499994
0.049951171875
0.0459228515625
0.045117187499999996
0.046728515624999994
0.046728515624999994
0.045117187499999996
0.0459228515625
0.04833984375
2.2534423828125
3.0526611328124997
3.05185546875
3.0510498046874996
3.05185546875
3.05185546875
3.053466796875
3.0550781249999996
3.0526611328124997
3.053466796875
3.050244140625
2.7320068359375
2.9559814453124997
2.914892578125
2.840771484375
3.0510498046874996
3.05185546875
3.05185546875
3.053466796875
3.0542724609375
0.37785644531249996
0.488232421875
0.046728515624999994
0.0459228515625
0.0475341796875
0.04189453125
0.058813476562499994
0.045117187499999996
0.0459228515625
0.042700195312499994
0.0459228515625
0.043505859375
0.1393798828125
0.049145507812499996
0.111181640625
0.0459228515625
0.045117187499999996
0.046728515624999994
0.0459228515625
0.049145507812499996
0.0443115234375
0.0443115234375
1.255224609375
2.98740234375
3.0526611328124997
3.0526611328124997
3.0550781249999996
3.0478271484375
3.0494384765625
3.053466796875
3.0566894531249997
3.050244140625
3.0510498046874996
3.0486328124999997
2.8810546875
2.8955566406249997
2.8077392578125
3.0494384765625
3.0550781249999996
3.0486328124999997
3.0526611328124997
3.0510498046874996
1.1408203125
0.049951171875
0.04833984375
0.04833984375
0.0475341796875
0.045117187499999996
0.0443115234375
0.045117187499999996
0.0459228515625
0.046728515624999994
0.0475341796875
0.0459228515625
0.046728515624999994
0.07814941406249999
0.0475341796875
0.046728515624999994
0.0459228515625
0.04833984375
0.043505859375
0.046728515624999994
0.04833984375
0.046728515624999994
0.046728515624999994
2.5160888671875
3.0510498046874996
3.053466796875
3.05185546875
3.0566894531249997
3.0542724609375
3.053466796875
3.0510498046874996
3.0526611328124997
2.9672607421875
2.65869140625
3.0010986328125
2.8786376953125
2.78759765625
3.053466796875
3.053466796875
3.0413818359375
3.0526611328124997
3.0510498046874996
3.0526611328124997
2.3074218749999997
0.3311279296875
0.0459228515625
0.049145507812499996
0.0443115234375
0.0443115234375
0.0475341796875
0.046728515624999994
0.0475341796875
0.046728515624999994
0.045117187499999996
0.045117187499999996
0.046728515624999994
0.0459228515625
0.042700195312499994
0.0443115234375
0.0459228515625
0.049951171875
0.045117187499999996
0.049145507812499996
0.0459228515625
0.0459228515625
2.4532470703125
3.05185546875
3.0526611328124997
3.0566894531249997
3.05185546875
3.0574951171875
3.0510498046874996
3.0550781249999996
3.0486328124999997
3.0510498046874996
2.70703125
3.0067382812499996
2.818212890625
2.7336181640625
3.053466796875
3.05185546875
3.05185546875
3.0526611328124997
3.053466796875
1.1464599609375
2.5233398437499996
0.12165527343749999
0.0459228515625
0.0459228515625
0.046728515624999994
0.049145507812499996
0.046728515624999994
0.0459228515625
0.050756835937499994
0.043505859375
0.0459228515625
0.285205078125
0.0475341796875
0.0717041015625
0.0475341796875
0.049951171875
0.0475341796875
0.046728515624999994
0.046728515624999994
0.045117187499999996
0.043505859375
0.0443115234375
2.3597900390624997
2.9841796874999997
3.0550781249999996
3.0550781249999996
3.0510498046874996
3.0558837890625
3.053466796875
3.05185546875
3.053466796875
3.0413818359375
2.7819580078125
2.792431640625
2.8625244140625
2.7545654296874997
2.65546875
3.0526611328124997
3.0478271484375
3.0526611328124997
3.0526611328124997
3.0526611328124997
2.8464111328125
1.9545410156249998
0.043505859375
0.043505859375
0.0459228515625
0.046728515624999994
0.04189453125
0.045117187499999996
0.0475341796875
0.046728515624999994
0.04189453125
0.059619140625
0.045117187499999996
0.0475341796875
0.046728515624999994
0.049951171875
0.0459228515625
0.0515625
0.046728515624999994
0.038671874999999994
0.0475341796875
0.0443115234375
0.8564208984374999
2.7787353515624997
3.0510498046874996
3.0526611328124997
3.0526611328124997
3.05185546875
3.0542724609375
3.0510498046874996
3.0542724609375
3.050244140625
2.9495361328125
3.0421875
2.7569824218749996
2.7424804687499997
2.698974609375
3.0550781249999996
3.05185546875
3.0566894531249997
3.053466796875
3.0526611328124997
3.0558837890625
0.0459228515625
0.2513671875
0.042700195312499994
0.042700195312499994
0.0475341796875
0.0475341796875
0.049145507812499996
0.0459228515625
0.0459228515625
0.049951171875
0.0475341796875
0.075732421875
0.049951171875
0.046728515624999994
0.045117187499999996
0.046728515624999994
0.046728515624999994
0.0459228515625
0.046728515624999994
0.045117187499999996
0.04189453125
0.0459228515625
3.053466796875
3.053466796875
3.0566894531249997
3.0566894531249997
3.053466796875
3.053466796875
3.050244140625
3.05185546875
3.029296875
2.9583984374999996
3.0526611328124997
2.9503417968749996
2.7819580078125
2.6723876953124996
3.053466796875
3.05185546875
3.05185546875
3.05185546875
3.0542724609375
3.0566894531249997
3.0550781249999996
0.3424072265625
0.046728515624999994
0.0475341796875
0.0475341796875
0.045117187499999996
0.0475341796875
0.0475341796875
0.046728515624999994
0.0459228515625
0.0443115234375
0.0459228515625
0.07734374999999999
0.045117187499999996
0.043505859375
0.0475341796875
0.049951171875
0.0459228515625
0.0459228515625
0.045117187499999996
0.041088867187499996
0.0443115234375
2.582958984375
3.0510498046874996
3.0526611328124997
3.0542724609375
3.05185546875
3.0526611328124997
3.053466796875
3.0542724609375
3.0542724609375
2.8335205078124996
2.872998046875
2.8609130859375
2.850439453125
2.744091796875
3.0566894531249997
3.0526611328124997
3.0510498046874996
3.0510498046874996
3.053466796875
2.1309814453125
0.046728515624999994
0.530126953125
0.0459228515625
0.0459228515625
0.049145507812499996
0.04189453125
0.046728515624999994
0.046728515624999994
0.045117187499999996
0.0475341796875
0.0459228515625
0.0475341796875
0.049145507812499996
0.0475341796875
0.04833984375
0.0459228515625
0.045117187499999996
0.046728515624999994
0.043505859375
0.049145507812499996
0.0475341796875
0.04833984375
0.13857421875
3.0550781249999996
3.050244140625
3.0526611328124997
3.053466796875
3.0566894531249997
3.053466796875
3.0550781249999996
3.0470214843749996
3.0526611328124997
2.882666015625
3.0526611328124997
2.8311035156249997
2.7722900390625
2.6627197265625
3.053466796875
3.053466796875
3.05185546875
3.0494384765625
3.053466796875
3.053466796875
1.0932861328124999
0.050756835937499994
0.049951171875
0.0475341796875
0.046728515624999994
0.045117187499999996
0.043505859375
0.049951171875
0.042700195312499994
0.046728515624999994
0.046728515624999994
0.046728515624999994
0.061230468749999996
0.046728515624999994
0.042700195312499994
0.0459228515625
0.049145507812499996
0.046728515624999994
0.0459228515625
0.0475341796875
0.049145507812499996
0.0459228515625
2.7021972656249997
3.05185546875
3.0494384765625
3.0542724609375
3.0510498046874996
3.0550781249999996
3.053466796875
2.9849853515625
3.0333251953125
2.953564453125
2.4613037109375
2.8093505859374996
2.7585937499999997
2.6836669921875
3.0510498046874996
3.0550781249999996
3.053466796875
3.0510498046874996
3.0542724609375
3.053466796875
0.8628662109374999
0.049951171875
0.0475341796875
0.045117187499999996
0.045117187499999996
0.0459228515625
0.0459228515625
0.0475341796875
0.050756835937499994
0.0459228515625
0.0459228515625
0.3359619140625
0.049145507812499996
0.045117187499999996
0.042700195312499994
0.0459228515625
0.045117187499999996
0.0459228515625
0.045117187499999996
0.0443115234375
0.045117187499999996
0.045117187499999996
2.8230468749999997
3.050244140625
3.0558837890625
3.053466796875
3.05185546875
3.0494384765625
3.0510498046874996
3.05185546875
3.05185546875
3.0381591796875
3.0526611328124997
2.5676513671874996
2.7593994140625
2.7400634765625
2.7062255859374997
3.0486328124999997
3.05185546875
3.050244140625
3.0542724609375
3.05185546875
3.0510498046874996
0.69287109375
0.043505859375
0.046728515624999994
0.0475341796875
0.0459228515625
0.046728515624999994
0.046728515624999994
0.0443115234375
0.0459228515625
0.0459228515625
0.03544921875
0.0459228515625
0.04833984375
0.043505859375
0.045117187499999996
0.046728515624999994
0.046728515624999994
0.0459228515625
0.046728515624999994
0.0394775390625
0.046728515624999994
1.2221923828124999
3.0526611328124997
3.0510498046874996
3.0550781249999996
3.05185546875
3.0550781249999996
3.0550781249999996
3.0526611328124997
3.050244140625
3.0526611328124997
2.9519531249999997
2.5628173828125
2.81015625
2.7779296875
2.6691650390625
3.0550781249999996
3.053466796875
3.05185546875
3.0526611328124997
3.0542724609375
0.87978515625
0.7541015624999999
0.046728515624999994
0.0475341796875
0.04189453125
0.049145507812499996
0.046728515624999994
0.043505859375
0.0459228515625
0.043505859375
0.0475341796875
0.0443115234375
0.0475341796875
0.0459228515625
0.0443115234375
0.0443115234375
0.045117187499999996
0.046728515624999994
0.0459228515625
0.0475341796875
0.0459228515625
0.046728515624999994
0.0443115234375
3.0526611328124997
3.0542724609375
3.0526611328124997
3.0558837890625
3.0526611328124997
3.0542724609375
3.050244140625
3.053466796875
3.0526611328124997
2.9285888671875
3.050244140625
2.7739013671875
2.7803466796875
2.7005859374999996
3.0526611328124997
3.0526611328124997
3.0566894531249997
3.050244140625
3.0510498046874996
3.0542724609375
0.0443115234375
0.0459228515625
0.0475341796875
0.0443115234375
0.04833984375
0.04833984375
0.043505859375
0.0459228515625
0.046728515624999994
0.0459228515625
0.0459228515625
0.045117187499999996
0.045117187499999996
0.049145507812499996
0.049145507812499996
0.0459228515625
0.0459228515625
0.04833984375
0.046728515624999994
0.041088867187499996
0.045117187499999996
0.046728515624999994
3.0164062499999997
3.053466796875
3.050244140625
3.05185546875
3.05185546875
3.0526611328124997
3.0550781249999996
3.0558837890625
3.053466796875
2.9318115234374997
2.7569824218749996
2.9342285156249996
2.737646484375
2.6764160156249996
3.050244140625
3.0526611328124997
3.05185546875
3.05185546875
3.050244140625
3.0510498046874996
3.05830078125
0.40927734374999997
0.046728515624999994
0.0459228515625
0.0475341796875
0.046728515624999994
0.046728515624999994
0.0459228515625
0.045117187499999996
0.0443115234375
0.042700195312499994
0.046728515624999994
0.045117187499999996
0.0459228515625
0.0475341796875
0.0459228515625
0.04833984375
0.046728515624999994
0.0459228515625
0.0459228515625
0.0459228515625
0.04833984375
2.309033203125
3.0252685546875
3.053466796875
3.0542724609375
3.0550781249999996
3.0542724609375
3.0550781249999996
3.0550781249999996
3.053466796875
2.977734375
2.65869140625
2.6538574218749997
2.8053222656249996
2.7183105468749997
2.631298828125
3.0542724609375
3.05185546875
3.05185546875
3.0542724609375
0.829833984375
0.6823974609375
1.603271484375
0.0459228515625
0.046728515624999994
0.045117187499999996
0.045117187499999996
0.042700195312499994
0.0475341796875
0.0459228515625
0.0459228515625
0.0459228515625
0.1168212890625
0.046728515624999994
0.046728515624999994
0.0443115234375
0.045117187499999996
0.049145507812499996
0.042700195312499994
0.049951171875
0.0459228515625
0.0459228515625
0.0459228515625
1.622607421875
3.053466796875
3.0526611328124997
3.050244140625
3.0542724609375
3.0550781249999996
3.05185546875
3.053466796875
3.0510498046874996
3.0486328124999997
2.9156982421874997
2.9116699218749997
2.79404296875
2.6965576171874996
2.6490234375
3.050244140625
3.053466796875
3.050244140625
3.0542724609375
3.0542724609375
3.053466796875
0.049145507812499996
0.0475341796875
0.04833984375
0.046728515624999994
0.0459228515625
0.0475341796875
0.045117187499999996
0.0475341796875
0.046728515624999994
0.0443115234375
0.0443115234375
0.049145507812499996
0.046728515624999994
0.049951171875
0.043505859375
0.0475341796875
0.046728515624999994
0.042700195312499994
0.0443115234375
0.0459228515625
0.0459228515625
0.0475341796875
3.05185546875
3.0566894531249997
3.0542724609375
3.0566894531249997
3.0526611328124997
3.05185546875
3.0526611328124997
2.9986816406249996
3.0526611328124997
2.9970703125
2.6498291015624997
2.70703125
2.7481201171875
2.6216308593749997
3.0494384765625
3.0550781249999996
3.053466796875
3.0550781249999996
3.050244140625
3.0486328124999997
0.0459228515625
0.29326171875
0.0459228515625
0.045117187499999996
0.04833984375
0.046728515624999994
0.049145507812499996
0.045117187499999996
0.04833984375
0.0443115234375
0.046728515624999994
0.20463867187499998
0.0475341796875
0.0459228515625
0.046728515624999994
0.046728515624999994
0.045117187499999996
0.050756835937499994
0.0459228515625
0.049145507812499996
0.046728515624999994
0.0475341796875
3.0550781249999996
3.0558837890625
3.0510498046874996
3.0486328124999997
3.05185546875
3.05185546875
3.05185546875
3.0510498046874996
3.05185546875
2.9237548828124997
3.0510498046874996
2.7513427734375
2.7988769531249997
2.6111572265625
3.053466796875
3.0470214843749996
3.0510498046874996
3.0486328124999997
3.05185546875
2.296142578125
3.053466796875
0.207861328125
0.0443115234375
0.046728515624999994
0.049145507812499996
0.0459228515625
0.04189453125
0.0459228515625
0.0459228515625
0.04189453125
0.046728515624999994
0.04833984375
0.17241210937499998
0.0443115234375
0.0475341796875
0.046728515624999994
0.04833984375
0.0459228515625
0.0459228515625
0.045117187499999996
0.045117187499999996
0.046728515624999994
2.0496093749999997
3.053466796875
3.0550781249999996
3.0526611328124997
3.050244140625
3.043798828125
3.0550781249999996
3.0526611328124997
3.05185546875
2.9350341796875
2.9221435546874996
3.0526611328124997
2.81015625
2.682861328125
2.5676513671874996
3.05185546875
3.050244140625
3.053466796875
3.05185546875
2.9640380859374997
0.0475341796875
0.91845703125
0.0459228515625
0.04833984375
0.042700195312499994
0.04833984375
0.0443115234375
0.045117187499999996
0.0459228515625
0.04833984375
0.0523681640625
0.0475341796875
0.0459228515625
0.04833984375
0.0459228515625
0.0475341796875
0.0459228515625
0.042700195312499994
0.04189453125
0.0459228515625
0.04833984375
0.046728515624999994
0.0459228515625
2.892333984375
3.0542724609375
3.0526611328124997
3.0526611328124997
3.053466796875
3.0542724609375
3.053466796875
3.05185546875
3.053466796875
2.824658203125
2.2824462890625
2.7513427734375
2.6965576171874996
2.6240478515624996
3.0494384765625
3.0526611328124997
3.050244140625
3.0550781249999996
3.050244140625
3.0550781249999996
0.6413085937499999
0.046728515624999994
0.049145507812499996
0.0475341796875
0.043505859375
0.042700195312499994
0.0523681640625
0.046728515624999994
0.049145507812499996
0.049145507812499996
0.049145507812499996
0.28842773437499997
0.054785156249999994
0.043505859375
0.0459228515625
0.04189453125
0.040283203125
0.050756835937499994
0.042700195312499994
0.0443115234375
0.045117187499999996
0.0459228515625
2.8786376953125
3.0558837890625
3.0494384765625
3.0510498046874996
3.05185546875
3.053466796875
3.05185546875
3.050244140625
2.95517578125
3.029296875
2.5112548828124996
2.9028076171875
2.7384521484374997
2.6868896484375
3.0494384765625
3.0550781249999996
3.0542724609375
3.0558837890625
3.053466796875
3.050244140625
1.4203857421875
0.045117187499999996
0.045117187499999996
0.049145507812499996
0.042700195312499994
0.0459228515625
0.0459228515625
0.0459228515625
0.046728515624999994
0.046728515624999994
0.046728515624999994
0.10957031249999999
0.043505859375
0.0475341796875
0.0475341796875
0.0443115234375
0.0443115234375
0.046728515624999994
0.049951171875
0.045117187499999996
0.049145507812499996
0.0475341796875
2.6562744140624996
3.053466796875
3.0526611328124997
3.053466796875
3.0550781249999996
3.0566894531249997
3.0526611328124997
3.0526611328124997
3.0510498046874996
3.050244140625
2.75537109375
2.5555664062499996
2.7884033203125
2.7046142578124996
2.6103515625
3.0510498046874996
3.050244140625
3.0558837890625
3.05185546875
3.0574951171875
3.0478271484375
1.1295410156249999
0.0459228515625
0.046728515624999994
0.046728515624999994
0.04833984375
0.046728515624999994
0.046728515624999994
0.0459228515625
0.042700195312499994
0.042700195312499994
0.07009277343749999
0.0475341796875
0.046728515624999994
0.046728515624999994
0.042700195312499994
0.0459228515625
0.0378662109375
0.046728515624999994
0.049145507812499996
0.042700195312499994
0.046728515624999994
1.084423828125
3.05185546875
3.0510498046874996
3.0550781249999996
3.0510498046874996
3.0542724609375
3.0494384765625
3.05185546875
3.053466796875
3.05830078125
2.94873046875
3.0526611328124997
2.81015625
2.7432861328125
2.6965576171874996
3.05185546875
3.053466796875
3.0542724609375
3.0558837890625
3.0510498046874996
1.98193359375
0.0443115234375
0.0459228515625
0.0459228515625
0.046728515624999994
0.0459228515625
0.04189453125
0.043505859375
0.046728515624999994
0.04833984375
0.0459228515625
0.0443115234375
0.045117187499999996
0.046728515624999994
0.0475341796875
0.045117187499999996
0.0475341796875
0.046728515624999994
0.0459228515625
0.046728515624999994
0.0475341796875
0.0580078125
0.046728515624999994
2.8778320312499996
3.0510498046874996
3.05185546875
3.050244140625
3.0542724609375
3.0494384765625
3.05185546875
3.05185546875
3.0550781249999996
2.8818603515624996
2.7755126953125
2.763427734375
2.7988769531249997
2.6852783203125
3.0494384765625
3.05185546875
3.05185546875
3.0566894531249997
3.0550781249999996
3.0526611328124997
3.0550781249999996
0.15629882812499998
0.045117187499999996
0.049145507812499996
0.046728515624999994
0.043505859375
0.046728515624999994
0.046728515624999994
0.045117187499999996
0.0459228515625
0.049145507812499996
0.0443115234375
0.046728515624999994
0.0443115234375
0.0459228515625
0.0475341796875
0.049145507812499996
0.046728515624999994
0.0459228515625
0.046728515624999994
0.0459228515625
0.045117187499999996
3.0486328124999997
3.04541015625
3.0526611328124997
3.05185546875
3.050244140625
3.0526611328124997
3.0510498046874996
3.0574951171875
3.0510498046874996
2.8738037109374996
3.0067382812499996
2.9543701171874996
2.7722900390625
2.6699707031249997
3.05185546875
3.0526611328124997
3.053466796875
3.0494384765625
3.053466796875
0.887841796875
0.40524902343749997
0.47856445312499996
0.046728515624999994
0.043505859375
0.046728515624999994
0.0475341796875
0.046728515624999994
0.049951171875
0.0443115234375
0.046728515624999994
0.04833984375
0.046728515624999994
0.0475341796875
0.04833984375
0.0459228515625
0.0459228515625
0.041088867187499996
0.046728515624999994
0.046728515624999994
0.043505859375
0.0475341796875
0.04833984375
2.2614990234375
3.05185546875
3.0526611328124997
3.0526611328124997
3.053466796875
3.053466796875
3.05185546875
3.0542724609375
3.0526611328124997
3.05185546875
2.8786376953125
2.8883056640625
2.8157958984375
2.705419921875
2.5805419921875
3.0526611328124997
3.05185546875
3.05185546875
3.053466796875
3.053466796875
0.0459228515625
1.7724609375
0.0443115234375
0.046728515624999994
0.0459228515625
0.046728515624999994
0.0459228515625
0.0459228515625
0.0459228515625
0.0475341796875
0.049951171875
0.0604248046875
0.04833984375
0.04833984375
0.0515625
0.0459228515625
0.046728515624999994
0.0459228515625
0.0459228515625
0.043505859375
0.046728515624999994
0.0459228515625
1.6363037109374998
2.91328125
3.0526611328124997
3.053466796875
3.0486328124999997
3.05185546875
3.0486328124999997
3.0526611328124997
2.9624267578124996
3.0510498046874996
2.9108642578125
2.6885009765624996
2.7408691406249996
2.6965576171874996
2.6240478515624996
3.053466796875
3.05185546875
3.05830078125
3.0510498046874996
3.0494384765625
3.0558837890625
0.04833984375
0.075732421875
0.0459228515625
0.043505859375
0.0459228515625
0.049145507812499996
0.045117187499999996
0.046728515624999994
0.04833984375
0.049951171875
0.0459228515625
0.21591796875
0.04833984375
0.04833984375
0.0443115234375
0.046728515624999994
0.0475341796875
0.042700195312499994
0.0459228515625
0.043505859375
0.042700195312499994
0.0459228515625
3.0542724609375
3.05185546875
3.0542724609375
3.053466796875
3.0526611328124997
3.053466796875
3.0526611328124997
3.0486328124999997
3.0550781249999996
2.937451171875
3.0542724609375
2.745703125
2.68125
2.6280761718749996
3.0510498046874996
3.050244140625
3.0526611328124997
3.053466796875
3.0550781249999996
3.053466796875
3.050244140625
0.17080078124999998
0.046728515624999994
0.045117187499999996
0.0459228515625
0.049951171875
0.0459228515625
0.043505859375
0.045117187499999996
0.049951171875
0.043505859375
0.0443115234375
0.049145507812499996
0.045117187499999996
0.04833984375
0.045117187499999996
0.049145507812499996
0.043505859375
0.043505859375
0.049145507812499996
0.0459228515625
0.049145507812499996
2.5894042968749997
3.05185546875
3.0526611328124997
3.050244140625
3.0494384765625
3.0566894531249997
3.0566894531249997
3.0550781249999996
3.05185546875
2.9326171875
3.0494384765625
2.7287841796874996
2.850439453125
2.7577880859375
2.83271484375
3.053466796875
3.0486328124999997
3.0542724609375
3.0470214843749996
3.053466796875
0.049145507812499996
0.095068359375
0.0475341796875
0.0459228515625
0.049145507812499996
0.0459228515625
0.0459228515625
0.0459228515625
0.046728515624999994
0.04833984375
0.0475341796875
0.046728515624999994
0.11037597656249999
0.0459228515625
0.0515625
0.049145507812499996
0.0523681640625
0.0459228515625
0.0459228515625
0.046728515624999994
0.046728515624999994
0.045117187499999996
1.5766845703124999
3.0542724609375
3.0558837890625
3.0510498046874996
3.0526611328124997
3.0526611328124997
3.0526611328124997
3.05185546875
3.053466796875
3.0526611328124997
2.9906249999999996
3.0550781249999996
2.8472167968749997
2.8206298828125
2.7287841796874996
3.0526611328124997
3.0574951171875
3.05185546875
3.0542724609375
3.05185546875
0.40122070312499997
0.8129150390625
0.0443115234375
0.0475341796875
0.049145507812499996
0.0443115234375
0.0459228515625
0.041088867187499996
0.0459228515625
0.045117187499999996
0.049145507812499996
0.038671874999999994
0.042700195312499994
0.0459228515625
0.0459228515625
0.0475341796875
0.049951171875
0.04833984375
0.045117187499999996
0.045117187499999996
0.0475341796875
0.045117187499999996
0.0443115234375
2.6852783203125
3.0558837890625
3.0558837890625
3.0566894531249997
3.053466796875
3.05185546875
3.0558837890625
3.053466796875
3.0494384765625
2.9495361328125
2.4113525390625
2.9366455078125
2.8294921874999996
2.7408691406249996
3.05830078125
3.0510498046874996
3.05185546875
3.053466796875
3.0526611328124997
3.05185546875
1.6508056640625
0.14501953125
0.049145507812499996
0.0459228515625
0.043505859375
0.046728515624999994
0.042700195312499994
0.0459228515625
0.0475341796875
0.049145507812499996
0.046728515624999994
0.0733154296875
0.045117187499999996
0.045117187499999996
0.04189453125
0.049145507812499996
0.0459228515625
0.0475341796875
0.0459228515625
0.0459228515625
0.046728515624999994
0.045117187499999996
2.5579833984375
3.0510498046874996
3.053466796875
3.0486328124999997
3.050244140625
3.0494384765625
3.0526611328124997
3.053466796875
3.05185546875
3.0510498046874996
2.9688720703125
3.0284912109374997
2.8375488281249996
2.8125732421875
3.050244140625
3.05185546875
3.0510498046874996
3.0550781249999996
3.0510498046874996
2.1632080078125
3.0470214843749996
0.0443115234375
0.0459228515625
0.0459228515625
0.04189453125
0.0459228515625
0.045117187499999996
0.046728515624999994
0.0459228515625
0.0459228515625
0.0459228515625
0.240087890625
0.0459228515625
0.058813476562499994
0.045117187499999996
0.0459228515625
0.046728515624999994
0.0459228515625
0.0459228515625
0.0459228515625
0.0443115234375
0.045117187499999996
2.5177001953125
3.053466796875
3.053466796875
3.0494384765625
3.053466796875
3.053466796875
3.053466796875
3.053466796875
3.0526611328124997
2.9737060546875
2.979345703125
2.642578125
2.8456054687499996
2.7819580078125
2.7013916015625
3.05185546875
3.053466796875
3.04541015625
3.0510498046874996
3.0542724609375
2.093115234375
1.4590576171874998
0.0475341796875
0.043505859375
0.043505859375
0.046728515624999994
0.04189453125
0.049145507812499996
0.0459228515625
0.045117187499999996
0.043505859375
0.0475341796875
0.04833984375
0.04833984375
0.0604248046875
0.0459228515625
0.045117187499999996
0.049145507812499996
0.0475341796875
0.040283203125
0.046728515624999994
0.045117187499999996
0.0459228515625
3.05185546875
3.0550781249999996
3.0550781249999996
3.0566894531249997
3.05185546875
3.053466796875
3.0526611328124997
3.05185546875
3.05185546875
2.9882080078124997
2.9455078125
2.8415771484374996
2.850439453125
2.8061279296875
3.05185546875
3.0550781249999996
3.0486328124999997
3.050244140625
3.0526611328124997
3.0462158203125
0.0459228515625
0.233642578125
0.045117187499999996
0.0459228515625
0.049145507812499996
0.045117187499999996
0.0443115234375
0.045117187499999996
0.045117187499999996
0.0459228515625
0.046728515624999994
0.0829833984375
0.10554199218749999
0.064453125
0.04189453125
0.043505859375
0.045117187499999996
0.0475341796875
0.046728515624999994
0.045117187499999996
0.0459228515625
0.045117187499999996
2.9970703125
3.0494384765625
3.050244140625
3.0542724609375
3.0526611328124997
3.0510498046874996
3.0494384765625
3.0550781249999996
3.0542724609375
3.0510498046874996
3.0526611328124997
3.05185546875
2.9285888671875
2.834326171875
3.0494384765625
3.0510498046874996
3.05185546875
3.0558837890625
3.05185546875
3.0510498046874996
3.053466796875
0.15629882812499998
0.0475341796875
0.0475341796875
0.0459228515625
0.046728515624999994
0.04833984375
0.04833984375
0.046728515624999994
0.0443115234375
0.0459228515625
0.046728515624999994
0.072509765625
0.0459228515625
0.053173828124999996
0.045117187499999996
0.042700195312499994
0.046728515624999994
0.0475341796875
0.049951171875
0.042700195312499994
0.0475341796875
2.0302734375
3.05185546875
3.050244140625
3.053466796875
3.0526611328124997
3.05185546875
3.053466796875
3.0542724609375
3.0542724609375
2.9124755859375
2.9277832031249997
2.95517578125
2.9398681640624997
2.8302978515625
2.73603515625
3.0510498046874996
3.0486328124999997
3.053466796875
3.05185546875
1.5637939453124998
0.0475341796875
2.1865722656249997
0.046728515624999994
0.0459228515625
0.0459228515625
0.0459228515625
0.049145507812499996
0.043505859375
0.046728515624999994
0.0475341796875
0.0459228515625
0.045117187499999996
0.058813476562499994
0.045117187499999996
0.0475341796875
0.049145507812499996
0.049145507812499996
0.046728515624999994
0.0459228515625
0.0459228515625
0.042700195312499994
0.049145507812499996
0.04833984375
2.972900390625
3.05185546875
3.050244140625
3.0550781249999996
3.050244140625
3.0494384765625
3.05185546875
3.0558837890625
3.0494384765625
2.9575927734375
3.0566894531249997
2.914892578125
2.88427734375
2.7948486328124997
3.0478271484375
3.0494384765625
3.0494384765625
3.0558837890625
3.0542724609375
3.053466796875
0.046728515624999994
0.046728515624999994
0.0459228515625
0.0459228515625
0.046728515624999994
0.042700195312499994
0.046728515624999994
0.045117187499999996
0.045117187499999996
0.046728515624999994
0.049951171875
0.045117187499999996
0.09829101562499999
0.064453125
0.0837890625
0.0475341796875
0.046728515624999994
0.0475341796875
0.0475341796875
0.049145507812499996
0.04833984375
0.0459228515625
2.5708740234375
3.05185546875
3.053466796875
3.0550781249999996
3.05185546875
3.0526611328124997
3.053466796875
3.0510498046874996
3.053466796875
3.0510498046874996
2.5958496093749996
3.021240234375
2.9382568359374996
2.9036132812499997
3.0574951171875
3.050244140625
3.0510498046874996
3.05185546875
3.0550781249999996
3.0550781249999996
0.18691406249999998
0.062841796875
0.0443115234375
0.0515625
0.043505859375
0.042700195312499994
0.049951171875
0.043505859375
0.0475341796875
0.043505859375
0.0459228515625
0.3182373046875
0.0443115234375
0.0717041015625
0.0475341796875
0.046728515624999994
0.045117187499999996
0.045117187499999996
0.0475341796875
0.046728515624999994
0.043505859375
0.0459228515625
2.44599609375
3.0462158203125
3.053466796875
3.0542724609375
3.0526611328124997
3.053466796875
3.05185546875
3.05185546875
3.0526611328124997
3.050244140625
3.0510498046874996
2.719921875
2.9197265624999997
2.8133789062499996
2.9712890625
3.050244140625
3.05185546875
3.05185546875
3.050244140625
3.053466796875
3.05185546875
0.4680908203125
0.0459228515625
0.0443115234375
0.049951171875
0.0459228515625
0.046728515624999994
0.046728515624999994
0.046728515624999994
0.0459228515625
0.046728515624999994
0.0475341796875
0.056396484375
0.045117187499999996
0.046728515624999994
0.043505859375
0.0459228515625
0.0459228515625
0.0475341796875
0.045117187499999996
0.046728515624999994
0.0459228515625
0.37060546875
2.9527587890625
3.05185546875
3.0558837890625
3.05185546875
3.0542724609375
3.0526611328124997
3.0526611328124997
3.050244140625
3.0526611328124997
2.9970703125
3.0462158203125
2.9334228515625
2.931005859375
2.85849609375
3.05185546875
3.0510498046874996
3.050244140625
3.053466796875
3.053466796875
0.269091796875
0.3117919921875
0.0475341796875
0.049145507812499996
0.0443115234375
0.0475341796875
0.042700195312499994
0.0443115234375
0.049145507812499996
0.046728515624999994
0.0475341796875
0.046728515624999994
0.045117187499999996
0.046728515624999994
0.0523681640625
0.046728515624999994
0.0459228515625
0.046728515624999994
0.049951171875
0.046728515624999994
0.0475341796875
0.043505859375
0.046728515624999994
2.6490234375
3.05185546875
3.050244140625
3.053466796875
3.050244140625
3.053466796875
3.0526611328124997
3.05185546875
3.05830078125
3.0333251953125
2.6675537109375
2.96484375
2.9753173828125
2.9463134765624996
3.053466796875
3.0510498046874996
3.0526611328124997
3.050244140625
3.0542724609375
3.053466796875
1.7257324218749999
0.045117187499999996
0.0459228515625
0.0459228515625
0.046728515624999994
0.042700195312499994
0.046728515624999994
0.0459228515625
0.042700195312499994
0.045117187499999996
0.0443115234375
0.12890625
0.046728515624999994
0.042700195312499994
0.046728515624999994
0.0475341796875
0.046728515624999994
0.050756835937499994
0.046728515624999994
0.045117187499999996
0.045117187499999996
0.046728515624999994
2.6441894531249996
3.05185546875
3.05185546875
3.059912109375
3.0510498046874996
3.0526611328124997
3.053466796875
3.050244140625
3.0566894531249997
3.003515625
2.72958984375
3.0470214843749996
2.9519531249999997
2.8995849609374997
3.0558837890625
3.05185546875
3.0526611328124997
3.0526611328124997
3.053466796875
2.1599853515625
0.3714111328125
0.13615722656249998
0.049951171875
0.046728515624999994
0.049145507812499996
0.0443115234375
0.0475341796875
0.0459228515625
0.0459228515625
0.0459228515625
0.0459228515625
0.0459228515625
0.0475341796875
0.046728515624999994
0.046728515624999994
0.0459228515625
0.045117187499999996
0.0459228515625
0.0459228515625
0.0475341796875
0.046728515624999994
0.045117187499999996
2.4065185546875
3.05185546875
3.0526611328124997
3.0542724609375
3.053466796875
3.0542724609375
3.0510498046874996
3.0510498046874996
3.0550781249999996
3.0510498046874996
2.963232421875
2.9720947265624997
3.0510498046874996
3.0494384765625
3.01318359375
3.0558837890625
3.0494384765625
3.053466796875
3.0550781249999996
3.0478271484375
2.8544677734375
0.865283203125
0.0475341796875
0.050756835937499994
0.0459228515625
0.0475341796875
0.049951171875
0.046728515624999994
0.046728515624999994
0.0459228515625
0.0475341796875
0.175634765625
0.046728515624999994
0.0475341796875
0.045117187499999996
0.049145507812499996
0.049951171875
0.0475341796875
0.0459228515625
0.045117187499999996
0.0443115234375
0.045117187499999996
1.039306640625
2.8834716796874997
3.0550781249999996
3.0542724609375
3.0542724609375
3.05185546875
3.0526611328124997
3.0526611328124997
3.050244140625
3.0574951171875
3.0550781249999996
3.05185546875
3.0510498046874996
3.0566894531249997
3.0526611328124997
3.0542724609375
3.053466796875
3.05185546875
3.05185546875
3.05185546875
3.0550781249999996
0.040283203125
0.043505859375
0.049951171875
0.043505859375
0.201416015625
0.49790039062499997
0.7822998046874999
1.7289550781249998
3.050244140625
3.0526611328124997
3.05185546875
3.050244140625
3.0486328124999997
3.05185546875
3.0510498046874996
0.040283203125
0.0443115234375
0.04833984375
0.0443115234375
0.1998046875
0.045117187499999996
2.1906005859374997
3.05185546875
3.053466796875
3.0526611328124997
3.0542724609375
3.0558837890625
3.0494384765625
3.05185546875
3.0526611328124997
3.0550781249999996
3.0526611328124997
3.05185546875
3.05185546875
3.0550781249999996
3.0510498046874996
3.05185546875
3.0478271484375
3.05185546875
3.050244140625
3.0526611328124997
3.05185546875
0.0475341796875
0.2553955078125
0.045117187499999996
0.049951171875
0.0475341796875
0.0475341796875
0.0459228515625
0.0459228515625
0.046728515624999994
0.043505859375
0.0443115234375
0.0958740234375
0.049951171875
0.0620361328125
0.0652587890625
0.046728515624999994
0.0443115234375
0.043505859375
0.046728515624999994
0.0475341796875
0.0443115234375
0.0459228515625
3.0542724609375
3.053466796875
3.05185546875
3.05185546875
3.053466796875
3.050244140625
3.0542724609375
3.0550781249999996
3.05185546875
3.0526611328124997
3.05185546875
3.053466796875
3.0558837890625
3.0558837890625
3.050244140625
3.053466796875
3.053466796875
3.0558837890625
3.053466796875
3.05185546875
3.05185546875
0.33273925781249997
0.046728515624999994
0.0459228515625
0.046728515624999994
0.0459228515625
0.0515625
0.0459228515625
0.046728515624999994
0.043505859375
0.0475341796875
0.04833984375
0.049145507812499996
0.04833984375
0.046728515624999994
0.045117187499999996
0.0443115234375
0.043505859375
0.045117187499999996
0.045117187499999996
0.0459228515625
0.0443115234375
1.7104248046875
2.727978515625
3.050244140625
3.0542724609375
3.0526611328124997
3.0542724609375
3.05185546875
3.050244140625
3.05185546875
2.9640380859374997
3.0188232421874996
3.050244140625
3.005126953125
2.9011962890625
2.79404296875
3.053466796875
3.0494384765625
3.0486328124999997
3.0542724609375
2.6039062499999996
0.0459228515625
1.5525146484374999
0.042700195312499994
0.0475341796875
0.046728515624999994
0.045117187499999996
0.04833984375
0.0475341796875
0.046728515624999994
0.038671874999999994
0.045117187499999996
0.0459228515625
0.046728515624999994
0.0475341796875
0.045117187499999996
0.04833984375
0.042700195312499994
0.0443115234375
0.046728515624999994
0.045117187499999996
0.0459228515625
0.046728515624999994
0.0459228515625
3.0349365234374996
3.05185546875
3.0494384765625
3.05185546875
3.0526611328124997
3.0542724609375
3.0566894531249997
3.0526611328124997
3.0526611328124997
2.9994873046875
3.0510498046874996
2.9680664062499997
2.9817626953125
2.9712890625
3.0526611328124997
3.0558837890625
3.0510498046874996
3.0550781249999996
3.0566894531249997
3.0526611328124997
0.011279296874999999
0.045117187499999996
0.0443115234375
0.046728515624999994
0.0443115234375
0.049951171875
0.043505859375
0.046728515624999994
0.045117187499999996
0.0394775390625
0.043505859375
0.045117187499999996
0.0459228515625
0.046728515624999994
0.0378662109375
0.049951171875
0.046728515624999994
0.04189453125
0.049951171875
0.049951171875
0.046728515624999994
0.046728515624999994
2.425048828125
3.0486328124999997
3.0542724609375
3.05185546875
3.0566894531249997
3.053466796875
3.053466796875
3.05185546875
3.05185546875
3.0558837890625
2.7328124999999996
3.053466796875
3.053466796875
2.9761230468749997
3.0526611328124997
3.0494384765625
3.0526611328124997
3.0566894531249997
3.0526611328124997
3.0510498046874996
0.0443115234375
0.0459228515625
0.046728515624999994
0.043505859375
0.046728515624999994
0.046728515624999994
0.0475341796875
0.043505859375
0.0475341796875
0.0394775390625
0.0475341796875
0.111181640625
0.043505859375
0.045117187499999996
0.0459228515625
0.046728515624999994
0.0459228515625
0.0475341796875
0.046728515624999994
0.046728515624999994
0.049951171875
0.043505859375
2.350927734375
3.05185546875
3.053466796875
3.050244140625
3.05185546875
3.05185546875
3.0558837890625
3.0510498046874996
3.0526611328124997
3.05185546875
3.053466796875
3.0147949218749996
3.053466796875
3.050244140625
3.050244140625
3.050244140625
3.05185546875
3.0486328124999997
3.0486328124999997
3.0526611328124997
3.0526611328124997
0.6630615234374999
0.0459228515625
0.042700195312499994
0.045117187499999996
0.045117187499999996
0.046728515624999994
0.049145507812499996
0.0459228515625
0.04833984375
0.045117187499999996
0.0475341796875
0.045117187499999996
0.043505859375
0.0459228515625
0.046728515624999994
0.04833984375
0.0459228515625
0.049145507812499996
0.0475341796875
0.0475341796875
0.0459228515625
0.04189453125
3.050244140625
3.0526611328124997
3.0550781249999996
3.053466796875
3.0542724609375
3.053466796875
3.0486328124999997
3.053466796875
3.0494384765625
3.050244140625
2.96162109375
3.0542724609375
3.05185546875
3.0526611328124997
3.0550781249999996
3.0510498046874996
3.0558837890625
3.0470214843749996
3.05185546875
0.8451416015625
0.046728515624999994
0.046728515624999994
0.046728515624999994
0.04833984375
0.0459228515625
0.043505859375
0.037060546874999996
0.0394775390625
0.0443115234375
0.046728515624999994
0.046728515624999994
0.042700195312499994
0.045117187499999996
0.042700195312499994
0.046728515624999994
0.046728515624999994
0.0459228515625
0.046728515624999994
0.0459228515625
0.045117187499999996
0.046728515624999994
0.049951171875
2.8302978515625
3.0526611328124997
3.0510498046874996
3.05185546875
3.053466796875
3.0550781249999996
3.053466796875
3.053466796875
3.0526611328124997
3.0494384765625
3.0550781249999996
3.053466796875
3.053466796875
3.053466796875
3.0526611328124997
3.0615234375
3.053466796875
3.0510498046874996
3.0526611328124997
3.0526611328124997
0.07412109374999999
0.0459228515625
0.049145507812499996
0.0475341796875
0.049145507812499996
0.0475341796875
0.0459228515625
0.03544921875
0.045117187499999996
0.049145507812499996
0.0459228515625
0.0459228515625
0.045117187499999996
0.046728515624999994
0.0459228515625
0.046728515624999994
0.0475341796875
0.0459228515625
0.04833984375
0.04833984375
0.045117187499999996
0.046728515624999994
2.840771484375
3.053466796875
3.053466796875
3.0550781249999996
3.05185546875
3.053466796875
3.05185546875
3.0510498046874996
3.0566894531249997
3.05185546875
3.0494384765625
3.0510498046874996
3.0494384765625
3.0510498046874996
3.0494384765625
3.05185546875
3.050244140625
3.0558837890625
3.053466796875
3.05185546875
2.410546875
0.2376708984375
0.045117187499999996
0.04833984375
0.046728515624999994
0.0459228515625
0.046728515624999994
0.046728515624999994
0.049145507812499996
0.0459228515625
0.046728515624999994
0.0459228515625
0.050756835937499994
0.053173828124999996
0.0459228515625
0.046728515624999994
0.04833984375
0.046728515624999994
0.043505859375
0.04833984375
0.046728515624999994
0.049145507812499996
2.2083251953125
3.043798828125
3.0550781249999996
3.0558837890625
3.0462158203125
3.0510498046874996
3.0550781249999996
3.0550781249999996
3.0526611328124997
3.0550781249999996
3.053466796875
3.05185546875
3.0526611328124997
3.05185546875
3.0494384765625
3.0550781249999996
3.050244140625
3.0542724609375
3.053466796875
2.0246337890625
0.043505859375
1.142431640625
0.04189453125
0.0475341796875
0.045117187499999996
0.0459228515625
0.045117187499999996
0.0459228515625
0.04189453125
0.049145507812499996
0.045117187499999996
0.042700195312499994
0.0475341796875
0.046728515624999994
0.0459228515625
0.0459228515625
0.04833984375
0.0523681640625
0.0459228515625
0.046728515624999994
0.046728515624999994
0.045117187499999996
0.6388916015624999
3.0526611328124997
3.0550781249999996
3.0526611328124997
3.0526611328124997
3.053466796875
3.0542724609375
3.053466796875
3.053466796875
3.05185546875
3.0542724609375
3.050244140625
3.0494384765625
3.0526611328124997
3.0301025390625
3.0526611328124997
3.043798828125
3.0446044921874997
3.0526611328124997
3.05185546875
3.05185546875
0.0201416015625
0.046728515624999994
0.0443115234375
0.0459228515625
0.045117187499999996
0.046728515624999994
0.050756835937499994
0.045117187499999996
0.041088867187499996
0.0443115234375
0.045117187499999996
0.0475341796875
0.04833984375
0.045117187499999996
0.046728515624999994
0.042700195312499994
0.049145507812499996
0.04833984375
0.043505859375
0.045117187499999996
0.04189453125
0.049951171875
2.4322998046874997
3.0558837890625
3.0526611328124997
3.053466796875
3.0494384765625
3.0526611328124997
3.0470214843749996
3.05185546875
3.05185546875
3.0550781249999996
2.7521484375
3.0486328124999997
3.053466796875
3.0510498046874996
3.05185546875
3.050244140625
3.053466796875
3.053466796875
3.0550781249999996
3.0558837890625
0.0459228515625
0.046728515624999994
0.0475341796875
0.046728515624999994
0.046728515624999994
0.0459228515625
0.046728515624999994
0.0443115234375
0.046728515624999994
0.0459228515625
0.0475341796875
0.2360595703125
0.0459228515625
0.04189453125
0.045117187499999996
0.046728515624999994
0.046728515624999994
0.045117187499999996
0.042700195312499994
0.0459228515625
0.0475341796875
0.042700195312499994
2.747314453125
3.0510498046874996
3.0526611328124997
3.0542724609375
3.0486328124999997
3.0542724609375
3.0526611328124997
3.0542724609375
3.0558837890625
3.0542724609375
3.0526611328124997
3.05185546875
3.050244140625
3.05185546875
3.053466796875
3.05830078125
3.05185546875
3.0478271484375
3.0550781249999996
3.0526611328124997
3.05185546875
0.1699951171875
0.042700195312499994
0.049145507812499996
0.042700195312499994
0.0459228515625
0.049145507812499996
0.0443115234375
0.046728515624999994
0.0459228515625
0.0443115234375
0.0459228515625
0.049145507812499996
0.045117187499999996
0.0443115234375
0.046728515624999994
0.0459228515625
0.0459228515625
0.046728515624999994
0.0443115234375
0.0459228515625
0.04833984375
1.5082031249999999
3.0550781249999996
3.0526611328124997
3.0526611328124997
3.0526611328124997
3.0550781249999996
3.0526611328124997
3.053466796875
3.053466796875
3.053466796875
3.0550781249999996
3.0486328124999997
3.0526611328124997
3.053466796875
3.0494384765625
3.0550781249999996
3.0550781249999996
3.05185546875
3.0526611328124997
3.050244140625
0.5124023437499999
0.0966796875
0.049951171875
0.046728515624999994
0.046728515624999994
0.049145507812499996
0.046728515624999994
0.045117187499999996
0.049145507812499996
0.0459228515625
0.050756835937499994
0.045117187499999996
0.046728515624999994
0.0459228515625
0.046728515624999994
0.0459228515625
0.0459228515625
0.049145507812499996
0.045117187499999996
0.043505859375
0.042700195312499994
0.0459228515625
0.0459228515625
3.0526611328124997
3.05185546875
3.05185546875
3.0558837890625
3.050244140625
3.0526611328124997
3.0550781249999996
3.0510498046874996
3.053466796875
3.0526611328124997
3.0526611328124997
3.050244140625
3.053466796875
3.0558837890625
3.0510498046874996
3.0510498046874996
3.0510498046874996
3.05185546875
3.0550781249999996
3.05185546875
0.046728515624999994
0.045117187499999996
0.042700195312499994
0.049145507812499996
0.0475341796875
0.0459228515625
0.046728515624999994
0.0475341796875
0.0475341796875
0.046728515624999994
0.0443115234375
0.0459228515625
0.0475341796875
0.0459228515625
0.0459228515625
0.0475341796875
0.04833984375
0.043505859375
0.04189453125
0.04833984375
0.049145507812499996
0.046728515624999994
2.9326171875
3.0591064453124996
3.050244140625
3.050244140625
3.0550781249999996
3.053466796875
3.0510498046874996
3.05185546875
3.0510498046874996
3.0526611328124997
3.05185546875
3.0526611328124997
3.0542724609375
3.037353515625
3.0550781249999996
3.0494384765625
3.0550781249999996
3.0550781249999996
3.0526611328124997
3.0550781249999996
1.9182861328124998
0.041088867187499996
0.049145507812499996
