3.05185546875
3.0494384765625
3.053466796875
3.0526611328124997
2.9962646484374997
3.053466796875
2.8778320312499996
3.053466796875
2.6876953125
2.6594970703125
2.5724853515625
3.0510498046874996
3.053466796875
3.0510498046874996
3.0510498046874996
3.05185546875
3.0510498046874996
3.050244140625
0.28439941406249997
0.046728515624999994
0.0459228515625
0.0459228515625
0.0475341796875
0.046728515624999994
0.0475341796875
0.046728515624999994
0.046728515624999994
0.046728515624999994
0.0459228515625
0.0515625
0.0475341796875
0.045117187499999996
0.045117187499999996
0.0459228515625
0.046728515624999994
0.042700195312499994
0.0459228515625
0.046728515624999994
0.0459228515625
3.05185546875
3.0526611328124997
3.050244140625
3.0550781249999996
3.0542724609375
3.0526611328124997
3.0550781249999996
3.05185546875
3.053466796875
3.0083496093749997
3.0558837890625
2.8214355468749996
2.7481201171875
2.618408203125
3.053466796875
3.05185546875
3.053466796875
3.05185546875
3.053466796875
2.333203125
0.046728515624999994
0.33273925781249997
0.046728515624999994
0.0443115234375
0.0475341796875
0.0459228515625
0.046728515624999994
0.046728515624999994
0.046728515624999994
0.043505859375
0.0459228515625
0.046728515624999994
0.0749267578125
0.0475341796875
0.0523681640625
0.04189453125
0.0475341796875
0.045117187499999996
0.0459228515625
0.0459228515625
0.045117187499999996
0.046728515624999994
2.5885986328125
3.053466796875
3.0526611328124997
3.0510498046874996
3.05185546875
3.0558837890625
3.05185546875
3.0510498046874996
3.0542724609375
3.01962890625
2.8174072265624996
2.9334228515625
2.72958984375
2.57490234375
2.4468017578125
3.050244140625
3.0558837890625
3.053466796875
3.0526611328124997
3.0542724609375
0.0443115234375
1.3720458984375
0.046728515624999994
0.0459228515625
0.046728515624999994
0.049951171875
0.0459228515625
0.0459228515625
0.046728515624999994
0.0459228515625
0.0459228515625
0.0475341796875
0.0459228515625
0.049145507812499996
0.0443115234375
0.0475341796875
0.0459228515625
0.04833984375
0.046728515624999994
0.0459228515625
0.0459228515625
0.046728515624999994
1.625830078125
3.0550781249999996
3.0510498046874996
3.053466796875
3.05185546875
3.0486328124999997
3.0550781249999996
3.0542724609375
3.037353515625
3.0558837890625
2.811767578125
2.399267578125
2.7166992187499996
2.6280761718749996
2.5450927734374997
3.0550781249999996
3.0558837890625
3.053466796875
3.053466796875
3.053466796875
3.0566894531249997
0.5260986328125
0.111181640625
0.04189453125
0.042700195312499994
0.045117187499999996
0.0475341796875
0.046728515624999994
0.0459228515625
0.0475341796875
0.0443115234375
0.042700195312499994
0.08620605468749999
0.04833984375
0.042700195312499994
0.046728515624999994
0.046728515624999994
0.046728515624999994
0.045117187499999996
0.043505859375
0.046728515624999994
0.0475341796875
0.0475341796875
2.9833740234375
3.0486328124999997
3.0526611328124997
3.053466796875
3.0486328124999997
3.05185546875
3.05185546875
3.0574951171875
3.0526611328124997
2.9366455078125
3.0357421875
2.7730957031249996
2.631298828125
2.5869873046875
2.4806396484374997
3.0526611328124997
3.053466796875
3.0510498046874996
3.0623291015625
3.0494384765625
3.05185546875
0.2827880859375
0.046728515624999994
0.049951171875
0.043505859375
0.04833984375
0.043505859375
0.049145507812499996
0.046728515624999994
0.042700195312499994
0.043505859375
0.24169921875
0.0459228515625
0.0443115234375
0.050756835937499994
0.0475341796875
0.0459228515625
0.043505859375
0.050756835937499994
0.046728515624999994
0.040283203125
0.045117187499999996
1.24072265625
3.0542724609375
3.0526611328124997
3.05185546875
3.0526611328124997
3.050244140625
3.0510498046874996
3.050244140625
3.0470214843749996
2.8754150390624997
2.882666015625
2.5950439453125
2.705419921875
2.6538574218749997
2.5233398437499996
3.053466796875
3.05185546875
3.05185546875
3.0558837890625
3.053466796875
1.0481689453125
0.30856933593749997
0.046728515624999994
0.0459228515625
0.0362548828125
0.045117187499999996
0.049145507812499996
0.045117187499999996
0.049951171875
0.0475341796875
0.045117187499999996
0.0515625
0.04833984375
0.045117187499999996
0.0749267578125
0.045117187499999996
0.0475341796875
0.042700195312499994
0.0443115234375
0.0459228515625
0.0475341796875
0.0443115234375
1.6564453124999998
3.050244140625
3.0591064453124996
3.05185546875
3.050244140625
3.0566894531249997
3.0542724609375
3.050244140625
3.053466796875
3.053466796875
2.8794433593749997
3.0510498046874996
2.731201171875
2.7142822265624997
2.5660400390625
3.053466796875
3.05185546875
3.05185546875
3.0526611328124997
3.0526611328124997
1.738623046875
0.043505859375
0.136962890625
0.0459228515625
0.0459228515625
0.04833984375
0.0443115234375
0.0459228515625
0.045117187499999996
0.0475341796875
0.045117187499999996
0.050756835937499994
0.0475341796875
0.0459228515625
0.0829833984375
0.0652587890625
0.0459228515625
0.049145507812499996
0.040283203125
0.046728515624999994
0.049951171875
0.0443115234375
0.043505859375
3.0526611328124997
3.050244140625
3.05185546875
3.053466796875
3.0526611328124997
3.0494384765625
3.0526611328124997
3.0574951171875
3.053466796875
2.9447021484375
3.0526611328124997
2.9495361328125
2.8230468749999997
2.705419921875
3.0510498046874996
3.0486328124999997
3.0550781249999996
3.0550781249999996
3.0486328124999997
3.0550781249999996
3.0566894531249997
0.21511230468749998
0.0475341796875
0.046728515624999994
0.046728515624999994
0.045117187499999996
0.050756835937499994
0.0459228515625
0.046728515624999994
0.0443115234375
0.042700195312499994
0.0459228515625
0.0966796875
0.133740234375
0.18852539062499998
0.0459228515625
0.042700195312499994
0.0459228515625
0.0475341796875
0.045117187499999996
0.0459228515625
0.0459228515625
3.0486328124999997
3.053466796875
3.053466796875
3.05185546875
3.05185546875
3.05185546875
3.05185546875
3.05185546875
3.0550781249999996
2.91650390625
2.86494140625
2.8939453124999996
2.8093505859374996
2.682861328125
2.5458984375
3.0494384765625
3.053466796875
3.0566894531249997
3.05185546875
1.2882568359375
0.043505859375
1.4671142578124998
0.0459228515625
0.0459228515625
0.0459228515625
0.046728515624999994
0.046728515624999994
0.045117187499999996
0.04833984375
0.0459228515625
0.042700195312499994
0.0515625
0.11279296875
0.07814941406249999
0.06606445312499999
0.058813476562499994
0.04833984375
0.043505859375
0.046728515624999994
0.0459228515625
0.0475341796875
0.0459228515625
1.1384033203125
3.0550781249999996
3.05185546875
3.0542724609375
3.0526611328124997
3.0510498046874996
3.05185546875
3.0566894531249997
3.0526611328124997
3.0510498046874996
2.876220703125
2.9342285156249996
2.7811523437499996
2.70703125
2.591015625
3.053466796875
3.050244140625
3.05185546875
3.0510498046874996
3.053466796875
3.0591064453124996
1.7829345703125
0.0459228515625
0.0459228515625
0.049951171875
0.046728515624999994
0.0459228515625
0.046728515624999994
0.046728515624999994
0.046728515624999994
0.0459228515625
0.049951171875
0.0459228515625
0.09990234375
0.0555908203125
0.09748535156249999
0.043505859375
0.042700195312499994
0.0459228515625
0.043505859375
0.0443115234375
0.046728515624999994
1.2914794921875
3.0542724609375
3.0526611328124997
3.053466796875
3.0526611328124997
3.0526611328124997
3.0510498046874996
3.0542724609375
2.99384765625
3.053466796875
2.9575927734375
2.5209228515624997
2.8367431640625
2.75537109375
2.6683593749999996
3.0550781249999996
3.0526611328124997
3.05185546875
3.05185546875
3.053466796875
3.053466796875
0.0475341796875
0.045117187499999996
0.046728515624999994
0.0459228515625
0.043505859375
0.046728515624999994
0.043505859375
0.0443115234375
0.0459228515625
0.046728515624999994
0.046728515624999994
0.278759765625
0.0475341796875
0.0926513671875
0.1152099609375
0.04833984375
0.049145507812499996
0.045117187499999996
0.0443115234375
0.0459228515625
0.046728515624999994
0.045117187499999996
3.05185546875
3.053466796875
3.050244140625
3.0550781249999996
3.05185546875
3.0526611328124997
3.0542724609375
3.05185546875
3.0510498046874996
2.9825683593749996
3.0526611328124997
2.8012939453124996
2.7996826171875
2.70380859375
2.7513427734375
3.05185546875
3.0510498046874996
3.0526611328124997
3.0526611328124997
3.050244140625
3.05185546875
0.28681640625
0.046728515624999994
0.0475341796875
0.046728515624999994
0.0475341796875
0.046728515624999994
0.043505859375
0.0475341796875
0.046728515624999994
0.0459228515625
0.046728515624999994
0.104736328125
0.0515625
0.0459228515625
0.046728515624999994
0.046728515624999994
0.043505859375
0.0475341796875
0.046728515624999994
0.0443115234375
0.0475341796875
0.9966064453125
3.050244140625
3.0510498046874996
3.053466796875
3.0550781249999996
3.0510498046874996
3.0510498046874996
3.0486328124999997
3.0566894531249997
3.0494384765625
2.9543701171874996
2.65869140625
2.784375
2.7328124999999996
2.647412109375
3.05185546875
3.05185546875
3.053466796875
3.0542724609375
3.0542724609375
0.18449707031249998
0.2263916015625
0.046728515624999994
0.0459228515625
0.046728515624999994
0.049145507812499996
0.043505859375
0.0475341796875
0.0475341796875
0.049951171875
0.0459228515625
0.0515625
0.13857421875
0.046728515624999994
0.10634765624999999
0.0910400390625
0.0459228515625
0.046728515624999994
0.046728515624999994
0.0459228515625
0.046728515624999994
0.0443115234375
0.046728515624999994
3.0486328124999997
3.05185546875
3.0566894531249997
3.0558837890625
3.059912109375
3.0542724609375
3.0574951171875
3.0494384765625
3.0486328124999997
2.9318115234374997
3.053466796875
2.776318359375
2.7867919921874997
2.6514404296875
3.05185546875
3.0550781249999996
3.0526611328124997
3.0526611328124997
3.0526611328124997
3.0526611328124997
0.159521484375
0.045117187499999996
0.042700195312499994
0.050756835937499994
0.045117187499999996
0.0459228515625
0.0475341796875
0.045117187499999996
0.046728515624999994
0.0515625
0.0475341796875
0.046728515624999994
0.1248779296875
0.0845947265625
0.0717041015625
0.0459228515625
0.049145507812499996
0.046728515624999994
0.046728515624999994
0.0443115234375
0.0459228515625
0.045117187499999996
2.9994873046875
3.053466796875
3.0550781249999996
3.053466796875
3.05185546875
3.0526611328124997
3.0542724609375
3.0566894531249997
3.0542724609375
2.85205078125
2.827880859375
2.840771484375
2.6103515625
2.576513671875
3.05185546875
3.05185546875
3.0510498046874996
3.05185546875
3.0510498046874996
3.0550781249999996
2.4814453125
0.141796875
0.049951171875
0.042700195312499994
0.046728515624999994
0.0459228515625
0.0459228515625
0.0459228515625
0.049145507812499996
0.049145507812499996
0.046728515624999994
0.042700195312499994
0.046728515624999994
0.009667968749999999
0.0515625
0.049951171875
0.0459228515625
0.038671874999999994
0.046728515624999994
0.0475341796875
0.0459228515625
0.0443115234375
2.616796875
3.0550781249999996
3.0526611328124997
3.0526611328124997
3.05830078125
3.0550781249999996
3.05830078125
3.0510498046874996
3.0558837890625
2.8899169921874996
2.6224365234375
2.6772216796875
2.7972656249999996
2.7392578125
2.6119628906249996
3.0478271484375
3.0526611328124997
3.05185546875
3.0486328124999997
0.8306396484374999
1.714453125
1.1351806640625
0.049145507812499996
0.0443115234375
0.046728515624999994
0.046728515624999994
0.043505859375
0.046728515624999994
0.0459228515625
0.049951171875
0.0475341796875
0.18046874999999998
0.0459228515625
0.0604248046875
0.049951171875
0.0475341796875
0.0459228515625
0.046728515624999994
0.0475341796875
0.042700195312499994
0.046728515624999994
0.0459228515625
1.799853515625
3.05185546875
3.053466796875
3.05185546875
3.0526611328124997
3.05185546875
3.05185546875
3.05830078125
3.050244140625
2.9640380859374997
2.8754150390624997
2.8230468749999997
2.760205078125
2.6514404296875
2.54267578125
3.0510498046874996
3.0550781249999996
3.0526611328124997
3.05185546875
3.05185546875
3.0550781249999996
0.045117187499999996
0.049145507812499996
0.0459228515625
0.043505859375
0.043505859375
0.0459228515625
0.04833984375
0.043505859375
0.046728515624999994
0.0475341796875
0.0459228515625
0.0443115234375
0.0604248046875
0.0837890625
0.08942871093749999
0.046728515624999994
0.045117187499999996
0.046728515624999994
0.046728515624999994
0.046728515624999994
0.0459228515625
0.046728515624999994
3.05185546875
3.0542724609375
3.066357421875
3.05185546875
3.0526611328124997
3.0526611328124997
3.0542724609375
2.979345703125
3.0558837890625
2.98740234375
2.7247558593749996
2.7481201171875
2.7569824218749996
2.591015625
3.0526611328124997
3.053466796875
3.05185546875
3.053466796875
3.0574951171875
3.0494384765625
0.049951171875
0.18046874999999998
0.049145507812499996
0.046728515624999994
0.045117187499999996
0.0475341796875
0.0459228515625
0.0459228515625
0.0475341796875
0.043505859375
0.045117187499999996
0.12165527343749999
0.0443115234375
0.04833984375
0.0443115234375
0.0459228515625
0.046728515624999994
0.0459228515625
0.045117187499999996
0.045117187499999996
0.0475341796875
0.0443115234375
3.0526611328124997
3.0526611328124997
3.0470214843749996
3.05185546875
3.0526611328124997
3.0526611328124997
3.0526611328124997
3.05830078125
3.053466796875
3.0147949218749996
3.0526611328124997
2.8713867187499997
2.8069335937499997
2.6449951171875
3.0301025390625
3.053466796875
3.0574951171875
3.0526611328124997
3.053466796875
3.0574951171875
3.0526611328124997
0.049951171875
0.0475341796875
0.046728515624999994
0.045117187499999996
0.049145507812499996
0.043505859375
0.0475341796875
0.0459228515625
0.0459228515625
0.043505859375
0.0475341796875
0.1699951171875
0.09748535156249999
0.08942871093749999
0.04189453125
0.045117187499999996
0.0459228515625
0.0443115234375
0.0443115234375
0.0443115234375
0.0475341796875
2.0584716796875
3.0550781249999996
3.0510498046874996
3.0470214843749996
3.0486328124999997
3.053466796875
3.0550781249999996
3.053466796875
3.05185546875
2.9076416015624997
2.908447265625
3.01318359375
2.7505371093749997
2.6441894531249996
2.5265625
3.0558837890625
3.0470214843749996
3.0550781249999996
3.0526611328124997
3.0558837890625
0.049951171875
1.4840332031249999
0.042700195312499994
0.0459228515625
0.046728515624999994
0.046728515624999994
0.045117187499999996
0.045117187499999996
0.0459228515625
0.045117187499999996
0.0459228515625
0.042700195312499994
0.046728515624999994
0.0636474609375
0.08701171875
0.09829101562499999
0.0443115234375
0.0459228515625
0.0475341796875
0.046728515624999994
0.0475341796875
0.04833984375
1.6056884765625
3.05185546875
3.0494384765625
3.0494384765625
3.05185546875
3.053466796875
3.050244140625
3.0566894531249997
3.0550781249999996
3.053466796875
2.872998046875
2.4210205078125
2.7569824218749996
2.68125
2.6014892578124997
3.0558837890625
3.0566894531249997
3.0550781249999996
3.0526611328124997
3.053466796875
3.053466796875
0.862060546875
0.046728515624999994
0.0443115234375
0.049145507812499996
0.042700195312499994
0.049951171875
0.0475341796875
0.04833984375
0.04833984375
0.043505859375
0.046728515624999994
0.042700195312499994
0.049145507812499996
0.045117187499999996
0.043505859375
0.046728515624999994
0.046728515624999994
0.0459228515625
0.0459228515625
0.0459228515625
0.043505859375
0.04833984375
3.050244140625
3.0510498046874996
3.05185546875
3.0526611328124997
3.05185546875
3.0574951171875
3.0405761718749997
3.053466796875
3.05185546875
3.0139892578125
2.4274658203125
2.8294921874999996
2.695751953125
2.6111572265625
3.05185546875
3.050244140625
3.0526611328124997
3.0526611328124997
3.0550781249999996
2.578125
1.5082031249999999
0.046728515624999994
0.0459228515625
0.04833984375
0.050756835937499994
0.0475341796875
0.04833984375
0.0475341796875
0.046728515624999994
0.0459228515625
0.04833984375
0.103125
0.049145507812499996
0.1071533203125
0.06606445312499999
0.042700195312499994
0.049145507812499996
0.049145507812499996
0.046728515624999994
0.04833984375
0.046728515624999994
0.0443115234375
3.0566894531249997
3.050244140625
3.05185546875
3.0526611328124997
3.0526611328124997
3.0550781249999996
3.0550781249999996
3.053466796875
3.0526611328124997
2.9825683593749996
2.7626220703124997
2.5410644531249997
2.7183105468749997
2.5974609374999997
2.486279296875
3.05185546875
3.05185546875
3.0550781249999996
3.0526611328124997
1.6371093749999999
3.0486328124999997
0.60263671875
0.0515625
0.0459228515625
0.045117187499999996
0.046728515624999994
0.043505859375
0.0459228515625
0.046728515624999994
0.050756835937499994
0.0459228515625
0.2255859375
0.0475341796875
0.04833984375
0.049145507812499996
0.045117187499999996
0.0443115234375
0.043505859375
0.0459228515625
0.04189453125
0.0459228515625
0.32145996093749996
0.7299316406249999
3.050244140625
3.0558837890625
3.0494384765625
3.053466796875
3.05185546875
3.053466796875
3.0510498046874996
3.0526611328124997
3.05185546875
2.89072265625
3.0494384765625
2.760205078125
2.695751953125
2.6119628906249996
3.0494384765625
3.053466796875
3.050244140625
3.053466796875
3.0526611328124997
2.2163818359375
0.0459228515625
0.0459228515625
0.046728515624999994
0.045117187499999996
0.04833984375
0.04833984375
0.0459228515625
0.049145507812499996
0.046728515624999994
0.0443115234375
0.049145507812499996
0.046728515624999994
0.0459228515625
0.0523681640625
0.0749267578125
0.046728515624999994
0.046728515624999994
0.0459228515625
0.0475341796875
0.042700195312499994
0.0459228515625
0.045117187499999996
3.0510498046874996
3.05185546875
3.05185546875
3.0526611328124997
3.0510498046874996
3.0558837890625
3.053466796875
3.053466796875
3.05185546875
2.9358398437499997
2.9205322265625
2.776318359375
2.7690673828124996
2.6353271484375
3.05185546875
3.0526611328124997
3.0486328124999997
3.0542724609375
3.0550781249999996
3.05185546875
3.0558837890625
0.0459228515625
0.046728515624999994
0.046728515624999994
0.0475341796875
0.046728515624999994
0.045117187499999996
0.050756835937499994
0.0459228515625
0.046728515624999994
0.049145507812499996
0.116015625
0.104736328125
0.107958984375
0.0837890625
0.045117187499999996
0.045117187499999996
0.0443115234375
0.045117187499999996
0.04189453125
0.049145507812499996
0.043505859375
3.0542724609375
3.0526611328124997
3.0591064453124996
3.0542724609375
3.0550781249999996
3.05185546875
3.053466796875
3.0550781249999996
3.0494384765625
2.956787109375
3.0494384765625
2.8866943359375
2.7779296875
2.6240478515624996
3.0494384765625
3.053466796875
3.0510498046874996
3.053466796875
3.0526611328124997
1.2850341796875
3.0566894531249997
0.33837890625
0.049951171875
0.0475341796875
0.0475341796875
0.038671874999999994
0.046728515624999994
0.04833984375
0.042700195312499994
0.045117187499999996
0.046728515624999994
0.045117187499999996
0.09023437499999999
0.050756835937499994
0.058813476562499994
0.045117187499999996
0.0378662109375
0.0443115234375
0.043505859375
0.0459228515625
0.0459228515625
0.049951171875
2.0818359374999997
3.0550781249999996
3.0542724609375
3.0510498046874996
3.0558837890625
3.0558837890625
3.0558837890625
3.053466796875
3.053466796875
3.0542724609375
2.8512451171874997
2.8335205078124996
2.769873046875
2.65869140625
2.5257568359375
3.053466796875
3.0494384765625
3.053466796875
3.053466796875
3.0550781249999996
0.045117187499999996
1.4880615234374999
0.045117187499999996
0.04833984375
0.0475341796875
0.049951171875
0.04833984375
0.046728515624999994
0.04833984375
0.04833984375
0.046728515624999994
0.0475341796875
0.04833984375
0.09990234375
0.1039306640625
0.120849609375
0.0459228515625
0.0459228515625
0.04833984375
0.042700195312499994
0.0459228515625
0.0459228515625
2.8383544921875
3.053466796875
3.05185546875
3.050244140625
3.0566894531249997
3.05185546875
3.0526611328124997
3.0526611328124997
2.9028076171875
3.050244140625
2.9495361328125
2.6119628906249996
2.83271484375
2.763427734375
2.6772216796875
3.050244140625
3.05185546875
3.0510498046874996
3.05185546875
3.0550781249999996
3.05185546875
0.046728515624999994
0.042700195312499994
0.0475341796875
0.043505859375
0.0475341796875
0.046728515624999994
0.0475341796875
0.053173828124999996
0.045117187499999996
0.0459228515625
0.049145507812499996
0.32468261718749997
0.10554199218749999
0.0878173828125
0.09345703124999999
0.043505859375
0.046728515624999994
0.0459228515625
0.045117187499999996
0.049145507812499996
0.045117187499999996
0.045117187499999996
3.05185546875
3.050244140625
3.0550781249999996
3.0550781249999996
3.05185546875
3.0526611328124997
3.0550781249999996
3.050244140625
3.05185546875
3.0164062499999997
3.0558837890625
2.8012939453124996
2.7175048828125
2.65869140625
3.0494384765625
3.0550781249999996
3.0550781249999996
3.05185546875
3.050244140625
3.05185546875
3.0542724609375
0.1377685546875
0.046728515624999994
0.046728515624999994
0.046728515624999994
0.0555908203125
0.0459228515625
0.0459228515625
0.045117187499999996
0.0459228515625
0.0459228515625
0.18852539062499998
0.046728515624999994
0.08540039062499999
0.056396484375
0.0475341796875
0.0459228515625
0.046728515624999994
0.0459228515625
0.046728515624999994
0.049951171875
0.04833984375
2.5636230468749996
3.0550781249999996
3.05185546875
3.0558837890625
3.0526611328124997
3.053466796875
3.0526611328124997
3.053466796875
3.0550781249999996
3.053466796875
2.9463134765624996
2.6208251953125
2.7948486328124997
2.6458007812499997
2.5708740234375
3.053466796875
3.0558837890625
3.053466796875
3.0542724609375
3.0526611328124997
3.0494384765625
0.22075195312499998
0.043505859375
0.042700195312499994
0.046728515624999994
0.0475341796875
0.045117187499999996
0.045117187499999996
0.045117187499999996
0.0459228515625
0.046728515624999994
0.1474365234375
0.10634765624999999
0.045117187499999996
0.050756835937499994
0.046728515624999994
0.0459228515625
0.046728515624999994
0.046728515624999994
0.0443115234375
0.046728515624999994
0.046728515624999994
1.5251220703125
3.0510498046874996
3.0550781249999996
3.053466796875
3.0526611328124997
3.0566894531249997
3.0558837890625
3.0558837890625
3.0510498046874996
2.8770263671875
2.892333984375
3.05185546875
2.7448974609374996
2.69736328125
2.624853515625
3.0566894531249997
3.0526611328124997
3.053466796875
3.0494384765625
3.0574951171875
0.7718261718749999
0.30615234375
0.043505859375
0.0443115234375
0.049951171875
0.0459228515625
0.046728515624999994
0.049951171875
0.046728515624999994
0.045117187499999996
0.0443115234375
0.0443115234375
0.0459228515625
0.0604248046875
0.08620605468749999
0.0652587890625
0.0443115234375
0.045117187499999996
0.04189453125
0.042700195312499994
0.0443115234375
0.046728515624999994
0.0523681640625
3.0470214843749996
3.0526611328124997
3.053466796875
3.053466796875
3.05185546875
3.053466796875
3.0566894531249997
3.0526611328124997
3.0542724609375
2.9140869140624996
2.737646484375
2.7505371093749997
2.72314453125
2.5845703125
3.0591064453124996
3.05830078125
3.0478271484375
3.053466796875
3.0526611328124997
3.05185546875
2.4016845703125
0.1313232421875
0.045117187499999996
0.0459228515625
0.046728515624999994
0.045117187499999996
0.0443115234375
0.0443115234375
0.0459228515625
0.046728515624999994
0.0459228515625
0.0459228515625
0.049951171875
0.049951171875
0.0475341796875
0.0443115234375
0.049145507812499996
0.049145507812499996
0.0475341796875
0.046728515624999994
0.04833984375
0.046728515624999994
3.0526611328124997
3.0526611328124997
3.053466796875
3.05185546875
3.0550781249999996
3.053466796875
3.05185546875
3.0550781249999996
3.053466796875
2.908447265625
2.8311035156249997
2.9285888671875
2.7585937499999997
2.6981689453124997
3.0486328124999997
3.0510498046874996
3.050244140625
3.05185546875
3.05185546875
0.9240966796875
2.0874755859375
0.04833984375
0.053173828124999996
0.043505859375
0.049145507812499996
0.0459228515625
0.050756835937499994
0.04833984375
0.0475341796875
0.049951171875
0.0459228515625
0.045117187499999996
0.062841796875
0.11440429687499999
0.09748535156249999
0.0459228515625
0.0459228515625
0.0459228515625
0.043505859375
0.0459228515625
0.045117187499999996
0.0459228515625
3.050244140625
3.0510498046874996
3.0510498046874996
3.0526611328124997
3.053466796875
3.0526611328124997
3.0550781249999996
3.053466796875
3.0526611328124997
2.9519531249999997
2.7102539062499997
2.70380859375
2.7706787109374997
2.6788330078125
2.5845703125
3.0494384765625
3.0526611328124997
3.053466796875
3.0486328124999997
3.053466796875
0.4793701171875
1.2479736328125
0.046728515624999994
0.0459228515625
0.049145507812499996
0.045117187499999996
0.0459228515625
0.0475341796875
0.0459228515625
0.049145507812499996
0.0475341796875
0.075732421875
0.046728515624999994
0.043505859375
0.0475341796875
0.04833984375
0.0443115234375
0.046728515624999994
0.0459228515625
0.049145507812499996
0.0459228515625
0.046728515624999994
1.0916748046875
3.0574951171875
3.0558837890625
3.053466796875
3.050244140625
3.0526611328124997
3.053466796875
3.05185546875
3.0317138671875
3.0542724609375
2.914892578125
2.6514404296875
2.8125732421875
2.7529541015624996
2.6756103515625
3.0526611328124997
3.053466796875
3.0510498046874996
3.050244140625
3.05185546875
3.05185546875
0.0443115234375
0.11923828125
0.046728515624999994
0.0459228515625
0.046728515624999994
0.04189453125
0.050756835937499994
0.0475341796875
0.046728515624999994
0.045117187499999996
0.0459228515625
0.1571044921875
0.046728515624999994
0.041088867187499996
0.04833984375
0.0459228515625
0.049145507812499996
0.043505859375
0.0475341796875
0.046728515624999994
0.0459228515625
0.049951171875
3.0526611328124997
3.05185546875
3.0526611328124997
3.050244140625
3.0510498046874996
3.053466796875
3.05185546875
3.0494384765625
3.05185546875
2.9962646484374997
3.0550781249999996
2.7787353515624997
2.7988769531249997
2.6707763671875
3.0510498046874996
3.050244140625
3.05185546875
3.050244140625
3.0607177734374997
3.0486328124999997
3.0558837890625
0.043505859375
0.0475341796875
0.0459228515625
0.042700195312499994
0.046728515624999994
0.045117187499999996
0.0459228515625
0.045117187499999996
0.046728515624999994
0.046728515624999994
0.0459228515625
0.0555908203125
0.08620605468749999
0.058813476562499994
0.0459228515625
0.042700195312499994
0.049145507812499996
0.0443115234375
0.045117187499999996
0.0459228515625
0.049145507812499996
3.0526611328124997
3.0526611328124997
3.053466796875
3.05185546875
3.0526611328124997
3.0542724609375
3.0550781249999996
3.053466796875
3.05185546875
2.8995849609374997
3.05185546875
2.8029052734374997
2.8077392578125
2.66513671875
2.8560791015625
3.0494384765625
3.0510498046874996
3.050244140625
3.053466796875
2.673193359375
0.0459228515625
0.2650634765625
0.046728515624999994
0.0475341796875
0.0475341796875
0.046728515624999994
0.049145507812499996
0.0459228515625
0.0459228515625
0.043505859375
0.0459228515625
0.046728515624999994
0.0684814453125
0.0475341796875
0.0515625
0.045117187499999996
0.0475341796875
0.046728515624999994
0.045117187499999996
0.04833984375
0.04833984375
0.0459228515625
1.5283447265624999
3.0542724609375
3.0550781249999996
3.0566894531249997
3.053466796875
3.0446044921874997
3.0526611328124997
3.0510498046874996
3.053466796875
3.0510498046874996
2.9116699218749997
3.04541015625
2.7561767578125
2.6522460937499996
2.5410644531249997
3.0510498046874996
3.0510498046874996
3.050244140625
3.0478271484375
3.05185546875
0.045117187499999996
0.6735351562499999
0.049951171875
0.046728515624999994
0.046728515624999994
0.0475341796875
0.0459228515625
0.0459228515625
0.04189453125
0.0443115234375
0.0459228515625
0.049145507812499996
0.046728515624999994
0.049145507812499996
0.045117187499999996
0.0459228515625
0.0459228515625
0.046728515624999994
0.046728515624999994
0.0459228515625
0.0459228515625
0.0475341796875
0.6904541015625
3.0631347656249996
3.053466796875
3.05185546875
3.0550781249999996
3.0526611328124997
3.0550781249999996
3.053466796875
3.0494384765625
3.0510498046874996
2.9100585937499996
2.4226318359375
2.83271484375
2.7626220703124997
2.6482177734374996
3.053466796875
3.0494384765625
3.050244140625
3.0550781249999996
3.0542724609375
3.0566894531249997
1.0449462890624999
0.0459228515625
0.049951171875
0.045117187499999996
0.0475341796875
0.046728515624999994
0.049951171875
0.046728515624999994
0.0443115234375
0.046728515624999994
0.049145507812499996
0.1651611328125
0.045117187499999996
0.0475341796875
0.045117187499999996
0.046728515624999994
0.046728515624999994
0.0459228515625
0.043505859375
0.046728515624999994
0.046728515624999994
0.0459228515625
3.0526611328124997
3.0542724609375
3.0550781249999996
3.0486328124999997
3.0526611328124997
3.050244140625
3.0446044921874997
3.0494384765625
3.053466796875
3.01962890625
2.63291015625
2.7908203124999997
2.6449951171875
2.5966552734375
3.0486328124999997
3.050244140625
3.053466796875
3.050244140625
3.053466796875
2.4306884765625
3.05185546875
0.046728515624999994
0.049145507812499996
0.049145507812499996
0.042700195312499994
0.045117187499999996
0.04833984375
0.041088867187499996
0.046728515624999994
0.046728515624999994
0.043505859375
0.1893310546875
0.043505859375
0.042700195312499994
0.049145507812499996
0.0459228515625
0.0475341796875
0.049145507812499996
0.0459228515625
0.046728515624999994
0.0459228515625
0.045117187499999996
0.833056640625
3.0542724609375
3.0566894531249997
3.0526611328124997
3.0542724609375
3.053466796875
3.0566894531249997
3.0591064453124996
3.053466796875
3.05185546875
2.9438964843749997
2.618408203125
2.7481201171875
2.68125
2.5322021484375
3.053466796875
3.0550781249999996
3.0550781249999996
3.0574951171875
3.053466796875
1.3237060546875
0.8121093749999999
0.0443115234375
0.046728515624999994
0.046728515624999994
0.046728515624999994
0.046728515624999994
0.0443115234375
0.04833984375
0.046728515624999994
0.046728515624999994
0.3150146484375
0.049951171875
0.04833984375
0.0765380859375
0.049145507812499996
0.0475341796875
0.049145507812499996
0.046728515624999994
0.045117187499999996
0.0459228515625
0.046728515624999994
1.8578613281249998
3.0526611328124997
3.0574951171875
3.0486328124999997
3.0550781249999996
3.053466796875
3.053466796875
3.0526611328124997
3.053466796875
3.053466796875
2.9269775390625
3.0526611328124997
2.7642333984375
2.69736328125
2.6514404296875
3.053466796875
3.0494384765625
3.050244140625
3.053466796875
3.053466796875
2.126953125
0.042700195312499994
0.0459228515625
0.046728515624999994
0.046728515624999994
0.0459228515625
0.049145507812499996
0.046728515624999994
0.042700195312499994
0.04833984375
0.046728515624999994
0.072509765625
0.06606445312499999
0.1248779296875
0.12165527343749999
0.07009277343749999
0.0443115234375
0.0459228515625
0.0475341796875
0.0459228515625
0.0459228515625
0.049145507812499996
0.0459228515625
3.053466796875
3.0526611328124997
3.0550781249999996
3.053466796875
3.0486328124999997
3.0526611328124997
3.0510498046874996
3.053466796875
3.0558837890625
2.9060302734374996
2.9962646484374997
2.9011962890625
2.7078369140625
2.650634765625
3.050244140625
3.0526611328124997
3.050244140625
3.05185546875
3.0494384765625
3.0470214843749996
3.0526611328124997
0.3746337890625
0.043505859375
0.0475341796875
0.0459228515625
0.042700195312499994
0.04833984375
0.045117187499999996
0.0459228515625
0.0459228515625
0.042700195312499994
0.0459228515625
0.0459228515625
0.04833984375
0.046728515624999994
0.046728515624999994
0.043505859375
0.0459228515625
0.046728515624999994
0.043505859375
0.0459228515625
0.0459228515625
2.6611083984375
3.05185546875
3.050244140625
3.0542724609375
3.0510498046874996
3.0542724609375
3.053466796875
3.053466796875
3.050244140625
3.0027099609374996
2.827880859375
2.9745117187499996
2.8544677734375
2.7094482421875
3.0550781249999996
3.0526611328124997
3.050244140625
3.0550781249999996
3.053466796875
1.5283447265624999
0.0459228515625
0.18288574218749998
0.046728515624999994
0.046728515624999994
0.045117187499999996
0.049951171875
0.046728515624999994
0.046728515624999994
0.0459228515625
0.0459228515625
0.0459228515625
0.0475341796875
0.111181640625
0.07412109374999999
0.069287109375
0.0459228515625
0.0443115234375
0.041088867187499996
0.043505859375
0.049951171875
0.045117187499999996
0.049145507812499996
2.5305908203125
3.050244140625
3.050244140625
3.0550781249999996
3.050244140625
3.05185546875
3.0526611328124997
3.053466796875
3.0542724609375
3.0494384765625
2.9455078125
2.8947509765625
2.7908203124999997
2.6780273437499997
2.578125
3.053466796875
3.0566894531249997
3.05185546875
3.05185546875
3.05185546875
3.0494384765625
1.7587646484375
0.0475341796875
0.042700195312499994
0.046728515624999994
0.042700195312499994
0.046728515624999994
0.049145507812499996
0.046728515624999994
0.0459228515625
0.0475341796875
0.046728515624999994
0.046728515624999994
0.046728515624999994
0.041088867187499996
0.0459228515625
0.049145507812499996
0.045117187499999996
0.049145507812499996
0.045117187499999996
0.0459228515625
0.043505859375
1.219775390625
2.9438964843749997
3.05185546875
3.0550781249999996
3.0558837890625
3.0550781249999996
3.0550781249999996
3.0510498046874996
2.9825683593749996
3.0526611328124997
2.866552734375
2.5434814453124996
2.7811523437499996
2.715087890625
2.6256591796874997
3.0526611328124997
3.0486328124999997
3.0526611328124997
3.0486328124999997
3.053466796875
3.0542724609375
0.0459228515625
0.0523681640625
0.0459228515625
0.042700195312499994
0.049145507812499996
0.046728515624999994
0.0459228515625
0.046728515624999994
0.0459228515625
0.0475341796875
0.046728515624999994
0.1732177734375
0.046728515624999994
0.04833984375
0.046728515624999994
0.046728515624999994
0.04189453125
0.046728515624999994
0.043505859375
0.0459228515625
0.04833984375
0.043505859375
2.9737060546875
3.0542724609375
3.0526611328124997
3.0526611328124997
3.050244140625
3.05185546875
3.0542724609375
3.0510498046874996
3.05185546875
3.0470214843749996
3.0526611328124997
2.698974609375
2.7134765625
2.6699707031249997
2.6280761718749996
3.05185546875
3.0494384765625
3.0470214843749996
3.0542724609375
3.0478271484375
3.053466796875
0.0443115234375
0.0459228515625
0.0443115234375
0.046728515624999994
0.050756835937499994
0.042700195312499994
0.042700195312499994
0.049145507812499996
0.046728515624999994
0.0459228515625
0.0459228515625
0.1780517578125
0.07412109374999999
0.078955078125
0.042700195312499994
0.045117187499999996
0.0459228515625
0.050756835937499994
0.046728515624999994
0.045117187499999996
0.0443115234375
1.5275390624999998
3.0550781249999996
3.05185546875
3.0510498046874996
3.053466796875
3.053466796875
3.0526611328124997
3.0550781249999996
3.0510498046874996
2.8383544921875
2.9068359375
3.0550781249999996
2.745703125
2.68125
2.5636230468749996
3.053466796875
3.0550781249999996
3.05185546875
3.053466796875
3.05185546875
0.3311279296875
0.045117187499999996
0.046728515624999994
0.0459228515625
0.043505859375
0.0475341796875
0.046728515624999994
0.043505859375
0.0539794921875
0.042700195312499994
0.0459228515625
0.0443115234375
0.049145507812499996
0.046728515624999994
0.0515625
0.0515625
0.0459228515625
0.0475341796875
0.050756835937499994
0.0443115234375
0.049145507812499996
0.0459228515625
0.049145507812499996
3.05185546875
3.05185546875
3.05185546875
3.0542724609375
3.0550781249999996
3.05185546875
3.0566894531249997
3.0526611328124997
3.0542724609375
2.9390625
3.0558837890625
2.7722900390625
2.72958984375
2.6031005859375
3.0462158203125
3.0550781249999996
3.053466796875
3.0510498046874996
3.0526611328124997
3.0526611328124997
1.7378173828124999
0.050756835937499994
0.046728515624999994
0.049951171875
0.046728515624999994
0.046728515624999994
0.0443115234375
0.0475341796875
0.0459228515625
0.045117187499999996
0.046728515624999994
0.045117187499999996
0.0459228515625
0.046728515624999994
0.042700195312499994
0.043505859375
0.0459228515625
0.049145507812499996
0.049145507812499996
0.0515625
0.0459228515625
0.0443115234375
3.0566894531249997
3.0550781249999996
3.0494384765625
3.0566894531249997
3.0478271484375
3.053466796875
3.0542724609375
3.053466796875
3.050244140625
2.985791015625
2.650634765625
2.8560791015625
2.7142822265624997
2.6200195312499996
3.0550781249999996
3.0526611328124997
3.050244140625
3.0526611328124997
3.0542724609375
1.2447509765625
2.5636230468749996
0.103125
0.042700195312499994
0.0459228515625
0.041088867187499996
0.049145507812499996
0.0475341796875
0.045117187499999996
0.042700195312499994
0.0459228515625
0.046728515624999994
0.043505859375
0.046728515624999994
0.11762695312499999
0.0829833984375
0.0459228515625
0.042700195312499994
0.046728515624999994
0.0515625
0.0459228515625
0.045117187499999996
0.0475341796875
3.0550781249999996
3.050244140625
3.0550781249999996
3.05185546875
3.0558837890625
3.053466796875
3.053466796875
3.0510498046874996
3.05830078125
3.0220458984375
2.5974609374999997
2.599072265625
2.7642333984375
2.663525390625
2.5305908203125
3.050244140625
3.053466796875
3.0494384765625
3.0526611328124997
0.8121093749999999
1.67900390625
1.6081054687499998
0.043505859375
0.046728515624999994
0.046728515624999994
0.046728515624999994
0.043505859375
0.0459228515625
0.046728515624999994
0.0459228515625
0.049145507812499996
0.1474365234375
0.0475341796875
0.045117187499999996
0.0459228515625
0.045117187499999996
0.046728515624999994
0.0443115234375
0.046728515624999994
0.0475341796875
0.046728515624999994
0.0459228515625
1.571044921875
3.0526611328124997
3.0550781249999996
3.05185546875
3.05185546875
3.0526611328124997
3.0486328124999997
3.053466796875
3.05185546875
3.05185546875
2.8939453124999996
2.921337890625
2.7271728515625
2.6820556640624997
2.6224365234375
3.05185546875
3.0486328124999997
3.05185546875
3.0486328124999997
3.05185546875
3.05185546875
0.04833984375
0.0459228515625
0.046728515624999994
0.043505859375
0.046728515624999994
0.043505859375
0.046728515624999994
0.0459228515625
0.045117187499999996
0.0459228515625
0.049145507812499996
0.0459228515625
0.0475341796875
0.049145507812499996
0.0475341796875
0.04833984375
0.0459228515625
0.0443115234375
0.0459228515625
0.046728515624999994
0.043505859375
0.0459228515625
3.0574951171875
3.0526611328124997
3.050244140625
3.0566894531249997
3.053466796875
3.05185546875
3.0510498046874996
2.9430908203125
3.029296875
2.947119140625
2.9334228515625
2.7569824218749996
2.7650390624999996
2.6055175781249997
3.0526611328124997
3.053466796875
3.050244140625
3.053466796875
3.0550781249999996
3.0510498046874996
0.0459228515625
0.046728515624999994
0.046728515624999994
0.050756835937499994
0.045117187499999996
0.0443115234375
0.042700195312499994
0.0459228515625
0.0459228515625
0.0459228515625
0.045117187499999996
0.16435546874999998
0.0459228515625
0.0733154296875
0.045117187499999996
0.049145507812499996
0.0459228515625
0.0475341796875
0.0443115234375
0.0475341796875
0.046728515624999994
0.0443115234375
3.050244140625
3.050244140625
3.0526611328124997
3.053466796875
3.0526611328124997
3.0494384765625
3.0550781249999996
3.0574951171875
3.053466796875
2.9664550781249996
3.0510498046874996
2.8447998046875
2.7819580078125
2.6127685546875
3.05185546875
3.0542724609375
3.0510498046874996
3.0526611328124997
3.050244140625
2.3307861328125
3.05185546875
0.3472412109375
0.0459228515625
0.046728515624999994
0.046728515624999994
0.046728515624999994
0.0459228515625
0.04833984375
0.0459228515625
0.042700195312499994
0.0459228515625
0.046728515624999994
0.04833984375
0.0475341796875
0.043505859375
0.0459228515625
0.0459228515625
0.049951171875
0.043505859375
0.049145507812499996
0.0475341796875
0.043505859375
1.5621826171875
3.0494384765625
3.0542724609375
3.0542724609375
3.050244140625
3.050244140625
3.0526611328124997
3.05185546875
3.0550781249999996
3.0486328124999997
2.9253662109375
3.05185546875
2.8037109375
2.7223388671874997
2.616796875
3.0510498046874996
3.053466796875
3.0526611328124997
3.0526611328124997
2.9237548828124997
0.0459228515625
1.1698242187499999
0.043505859375
0.0475341796875
0.0459228515625
0.045117187499999996
0.046728515624999994
0.049145507812499996
0.0459228515625
0.046728515624999994
0.049145507812499996
0.046728515624999994
0.045117187499999996
0.045117187499999996
0.0475341796875
0.046728515624999994
0.042700195312499994
0.0475341796875
0.0459228515625
0.0475341796875
0.0443115234375
0.0459228515625
0.046728515624999994
3.0550781249999996
3.0494384765625
3.050244140625
3.0526611328124997
3.053466796875
3.0550781249999996
3.053466796875
3.053466796875
3.0542724609375
2.9181152343749996
2.489501953125
2.8335205078124996
2.753759765625
2.6844726562499996
3.05185546875
3.05185546875
3.0542724609375
3.0478271484375
3.0510498046874996
3.0494384765625
0.920068359375
0.0459228515625
0.045117187499999996
0.0459228515625
0.04833984375
0.0459228515625
0.046728515624999994
0.040283203125
0.0459228515625
0.0475341796875
0.046728515624999994
0.0459228515625
0.0990966796875
0.0845947265625
0.0958740234375
0.049951171875
0.04833984375
0.046728515624999994
0.046728515624999994
0.0475341796875
0.043505859375
0.0459228515625
3.05185546875
3.0542724609375
3.0510498046874996
3.0510498046874996
3.0510498046874996
3.0574951171875
3.0486328124999997
3.053466796875
3.0558837890625
2.914892578125
2.39443359375
2.8029052734374997
2.65546875
2.5692626953124997
3.0550781249999996
3.05185546875
3.0526611328124997
3.0526611328124997
3.053466796875
3.0010986328125
1.3067871093749999
0.111181640625
0.0475341796875
0.046728515624999994
0.046728515624999994
0.046728515624999994
0.0459228515625
0.0515625
0.0394775390625
0.046728515624999994
0.046728515624999994
0.0459228515625
0.049145507812499996
0.0765380859375
0.053173828124999996
0.042700195312499994
0.046728515624999994
0.046728515624999994
0.0459228515625
0.0459228515625
0.045117187499999996
0.045117187499999996
2.9140869140624996
3.0510498046874996
3.0558837890625
3.053466796875
3.0526611328124997
3.0526611328124997
3.0542724609375
3.0494384765625
3.05185546875
2.977734375
2.8431884765624997
2.6546630859375
2.7779296875
2.7102539062499997
2.6272705078125
3.05185546875
3.0526611328124997
3.053466796875
3.053466796875
1.8022705078124999
3.0486328124999997
0.436669921875
0.049145507812499996
0.0475341796875
0.0459228515625
0.045117187499999996
0.043505859375
0.046728515624999994
0.046728515624999994
0.0539794921875
0.0443115234375
0.33757324218749996
0.059619140625
0.046728515624999994
0.0459228515625
0.04833984375
0.0459228515625
0.046728515624999994
0.0475341796875
0.0459228515625
0.0475341796875
0.1893310546875
1.603271484375
3.0542724609375
3.053466796875
3.0486328124999997
3.053466796875
3.0526611328124997
3.05185546875
3.05185546875
3.0526611328124997
2.9366455078125
2.9181152343749996
3.0494384765625
2.7465087890624997
2.6772216796875
2.608740234375
3.05185546875
3.0550781249999996
3.053466796875
3.0542724609375
3.0526611328124997
1.6508056640625
0.0475341796875
0.046728515624999994
0.045117187499999996
0.0459228515625
0.045117187499999996
0.043505859375
0.0475341796875
0.0459228515625
0.042700195312499994
0.045117187499999996
0.045117187499999996
0.0475341796875
0.043505859375
0.08540039062499999
0.046728515624999994
0.0475341796875
0.046728515624999994
0.042700195312499994
0.0459228515625
0.0475341796875
0.0459228515625
0.0459228515625
3.053466796875
3.05185546875
3.0510498046874996
3.0558837890625
3.053466796875
3.053466796875
3.0526611328124997
3.050244140625
3.0526611328124997
2.9664550781249996
3.0268798828124996
2.7142822265624997
2.70703125
2.5805419921875
3.0510498046874996
3.05185546875
3.0486328124999997
3.0542724609375
3.053466796875
3.0542724609375
3.0566894531249997
0.233642578125
0.045117187499999996
0.046728515624999994
0.046728515624999994
0.042700195312499994
0.045117187499999996
0.046728515624999994
0.0459228515625
0.0459228515625
0.0459228515625
0.043505859375
0.0459228515625
0.045117187499999996
0.0475341796875
0.0459228515625
0.0475341796875
0.0443115234375
0.050756835937499994
0.046728515624999994
0.0459228515625
0.046728515624999994
3.0526611328124997
3.0526611328124997
3.0558837890625
3.0550781249999996
3.0526611328124997
3.0526611328124997
3.053466796875
3.0526611328124997
3.0510498046874996
2.969677734375
3.05185546875
2.9390625
2.811767578125
2.65546875
3.0510498046874996
3.0550781249999996
3.0510498046874996
3.0550781249999996
3.0566894531249997
1.1722412109375
3.0542724609375
0.0910400390625
0.04833984375
0.0459228515625
0.042700195312499994
0.0475341796875
0.042700195312499994
0.046728515624999994
0.0475341796875
0.049951171875
0.0459228515625
0.046728515624999994
0.0708984375
0.059619140625
0.049951171875
0.0459228515625
0.0459228515625
0.046728515624999994
0.0459228515625
0.0459228515625
0.04833984375
0.043505859375
2.5160888671875
3.0526611328124997
3.05185546875
3.0526611328124997
3.0566894531249997
3.0566894531249997
3.050244140625
3.05185546875
3.053466796875
2.9020019531249996
2.7448974609374996
2.76826171875
2.7650390624999996
2.6538574218749997
2.5587890625
3.0526611328124997
3.0470214843749996
3.0550781249999996
3.0558837890625
1.8151611328125
0.045117187499999996
1.5879638671874998
0.043505859375
0.04833984375
0.046728515624999994
0.04833984375
0.0443115234375
0.046728515624999994
0.049145507812499996
0.0459228515625
0.046728515624999994
0.0475341796875
0.0443115234375
0.045117187499999996
0.0878173828125
0.046728515624999994
0.043505859375
0.041088867187499996
0.04833984375
0.045117187499999996
0.0459228515625
0.043505859375
1.319677734375
2.9519531249999997
3.0566894531249997
3.05185546875
3.0550781249999996
3.053466796875
3.0510498046874996
3.05185546875
3.0349365234374996
3.05185546875
2.8528564453125
2.6385498046875
2.7706787109374997
2.6965576171874996
2.6014892578124997
3.0526611328124997
3.05185546875
3.05185546875
3.053466796875
3.0550781249999996
3.0550781249999996
0.045117187499999996
0.0475341796875
0.045117187499999996
0.046728515624999994
0.046728515624999994
0.0443115234375
0.0459228515625
0.045117187499999996
0.049951171875
0.0443115234375
0.046728515624999994
0.23525390624999998
0.04833984375
0.058813476562499994
0.07734374999999999
0.046728515624999994
0.046728515624999994
0.045117187499999996
0.04833984375
0.046728515624999994
0.04189453125
0.0459228515625
3.0550781249999996
3.0526611328124997
3.0574951171875
3.0526611328124997
3.0558837890625
3.05185546875
3.0550781249999996
2.9640380859374997
3.001904296875
2.96162109375
2.5160888671875
2.7730957031249996
2.69736328125
2.5998779296874996
3.053466796875
3.0494384765625
3.0510498046874996
3.0526611328124997
3.05185546875
3.05185546875
3.05185546875
0.045117187499999996
0.042700195312499994
0.043505859375
0.042700195312499994
0.04833984375
0.045117187499999996
0.046728515624999994
0.046728515624999994
0.046728515624999994
0.042700195312499994
0.23686523437499998
0.049951171875
0.09829101562499999
0.046728515624999994
0.045117187499999996
0.045117187499999996
0.0475341796875
0.046728515624999994
0.045117187499999996
0.046728515624999994
0.046728515624999994
3.0510498046874996
3.05185546875
3.05185546875
3.0510498046874996
3.05185546875
3.0494384765625
3.0550781249999996
3.05185546875
3.050244140625
2.7779296875
3.053466796875
2.6901123046874997
2.7408691406249996
2.6111572265625
2.566845703125
3.05830078125
3.05185546875
3.0550781249999996
3.0526611328124997
3.053466796875
3.0486328124999997
0.3988037109375
0.045117187499999996
0.049145507812499996
0.045117187499999996
0.0443115234375
0.0459228515625
0.042700195312499994
0.0443115234375
0.0459228515625
0.046728515624999994
0.049951171875
0.069287109375
0.046728515624999994
0.046728515624999994
0.045117187499999996
0.046728515624999994
0.04833984375
0.0459228515625
0.0475341796875
0.046728515624999994
0.04833984375
0.9087890624999999
3.053466796875
3.0574951171875
3.0494384765625
3.0558837890625
3.0542724609375
3.05185546875
3.0510498046874996
3.0526611328124997
3.050244140625
2.8810546875
3.0542724609375
2.7021972656249997
2.647412109375
2.5950439453125
3.05185546875
3.0494384765625
3.0526611328124997
3.0510498046874996
3.05185546875
0.6292236328124999
0.045117187499999996
0.045117187499999996
0.0475341796875
0.045117187499999996
0.043505859375
0.045117187499999996
0.0459228515625
0.0459228515625
0.0459228515625
0.0475341796875
0.057202148437499996
0.0443115234375
0.049951171875
0.059619140625
0.043505859375
0.046728515624999994
0.0459228515625
0.0443115234375
0.049145507812499996
0.0459228515625
0.0459228515625
0.04189453125
3.0526611328124997
3.0526611328124997
3.053466796875
3.0550781249999996
3.0526611328124997
3.05185546875
3.053466796875
3.0558837890625
3.050244140625
2.8778320312499996
2.5168945312499997
2.7448974609374996
2.7134765625
2.6192138671875
3.0542724609375
3.0478271484375
3.053466796875
3.0526611328124997
3.0542724609375
3.05185546875
2.325146484375
0.04833984375
0.049951171875
0.0459228515625
0.045117187499999996
0.0459228515625
0.042700195312499994
0.0443115234375
0.043505859375
0.04189453125
0.0459228515625
0.0443115234375
0.0878173828125
0.0475341796875
0.04833984375
0.045117187499999996
0.046728515624999994
0.0443115234375
0.049145507812499996
0.0475341796875
0.045117187499999996
0.0459228515625
3.0542724609375
3.0494384765625
3.0558837890625
3.0566894531249997
3.0526611328124997
3.053466796875
3.05185546875
3.050244140625
3.053466796875
2.889111328125
2.7263671874999997
2.850439453125
2.6860839843749997
2.60712890625
3.05185546875
3.0542724609375
3.0566894531249997
3.053466796875
3.050244140625
0.8427246093749999
2.2534423828125
0.31340332031249996
0.04833984375
0.0459228515625
0.042700195312499994
0.0443115234375
0.0459228515625
0.049951171875
0.043505859375
0.04189453125
0.04189453125
0.0459228515625
0.0459228515625
0.045117187499999996
0.043505859375
0.0459228515625
0.0443115234375
0.045117187499999996
0.046728515624999994
0.0459228515625
0.043505859375
0.0515625
2.60068359375
3.0526611328124997
3.0510498046874996
3.0542724609375
3.0550781249999996
3.053466796875
3.0542724609375
3.05185546875
3.0550781249999996
3.050244140625
2.616796875
2.5918212890624996
2.7497314453125
2.6079345703124996
2.489501953125
3.0526611328124997
3.0542724609375
3.05185546875
3.050244140625
3.050244140625
0.7114013671874999
1.22138671875
0.045117187499999996
0.0443115234375
0.042700195312499994
0.046728515624999994
0.043505859375
0.0459228515625
0.0459228515625
0.0459228515625
0.049145507812499996
0.240087890625
0.0459228515625
0.0620361328125
0.07412109374999999
0.049145507812499996
0.0475341796875
0.045117187499999996
0.045117187499999996
0.0459228515625
0.049145507812499996
0.0459228515625
2.08505859375
3.053466796875
3.0542724609375
3.0510498046874996
3.0558837890625
3.0550781249999996
3.0542724609375
3.0526611328124997
2.956787109375
3.005126953125
2.8721923828125
2.9302001953124996
2.7626220703124997
2.6538574218749997
2.5974609374999997
3.0510498046874996
3.0526611328124997
3.0550781249999996
3.0550781249999996
3.0550781249999996
3.0542724609375
0.045117187499999996
0.0459228515625
0.0475341796875
0.0475341796875
0.0459228515625
0.046728515624999994
0.0443115234375
0.045117187499999996
0.040283203125
0.0475341796875
0.040283203125
0.1313232421875
0.0475341796875
0.045117187499999996
0.0459228515625
0.0475341796875
0.0515625
0.0459228515625
0.0459228515625
0.045117187499999996
0.0475341796875
0.0475341796875
3.0123779296874997
3.053466796875
3.0526611328124997
3.05185546875
3.050244140625
3.0550781249999996
3.053466796875
2.9656494140625
3.0550781249999996
2.969677734375
3.0542724609375
2.6868896484375
2.6860839843749997
2.5652343749999997
3.0526611328124997
3.053466796875
3.0526611328124997
3.0486328124999997
3.053466796875
3.05185546875
3.0510498046874996
0.11279296875
0.0459228515625
0.0459228515625
0.0515625
0.046728515624999994
0.0459228515625
0.045117187499999996
0.046728515624999994
0.045117187499999996
0.045117187499999996
0.17080078124999998
0.045117187499999996
0.0459228515625
0.0459228515625
0.045117187499999996
0.042700195312499994
0.042700195312499994
0.045117187499999996
0.0459228515625
0.046728515624999994
0.046728515624999994
3.0542724609375
3.053466796875
3.0526611328124997
3.0542724609375
3.0542724609375
3.05185546875
3.05185546875
3.0526611328124997
3.0558837890625
2.9068359375
3.0526611328124997
2.7932373046874996
2.7303955078124997
2.6079345703124996
2.7722900390625
3.0542724609375
3.0526611328124997
3.0542724609375
3.0526611328124997
2.7916259765625
3.0494384765625
0.045117187499999996
0.042700195312499994
0.042700195312499994
0.0475341796875
0.0515625
0.0459228515625
0.0459228515625
0.0475341796875
0.0459228515625
0.0459228515625
0.0475341796875
0.1732177734375
0.08056640625
0.1039306640625
0.0459228515625
0.0459228515625
0.045117187499999996
0.046728515624999994
0.04833984375
0.04189453125
0.046728515624999994
1.9625976562499998
3.0486328124999997
3.0542724609375
3.0510498046874996
3.053466796875
3.0510498046874996
3.043798828125
3.0558837890625
3.0542724609375
2.81015625
2.8335205078124996
2.9978759765625
2.6780273437499997
2.578125
2.462109375
3.0526611328124997
3.0510498046874996
3.0550781249999996
3.0510498046874996
3.053466796875
0.046728515624999994
1.252001953125
0.0443115234375
0.046728515624999994
0.043505859375
0.0443115234375
0.0443115234375
0.04833984375
0.043505859375
0.049145507812499996
0.04833984375
0.0459228515625
0.045117187499999996
0.0459228515625
0.046728515624999994
0.046728515624999994
0.0459228515625
0.046728515624999994
0.046728515624999994
0.0475341796875
0.045117187499999996
0.04833984375
0.7387939453125
3.0550781249999996
3.05185546875
3.0526611328124997
3.05185546875
3.05185546875
3.066357421875
3.053466796875
3.0526611328124997
3.05185546875
2.8230468749999997
2.2921142578125
2.650634765625
2.5877929687499996
2.4943359375
3.05185546875
3.053466796875
3.0550781249999996
3.0510498046874996
3.0566894531249997
3.05830078125
1.268115234375
0.046728515624999994
0.049145507812499996
0.045117187499999996
0.046728515624999994
0.045117187499999996
0.046728515624999994
0.033837890625
0.0443115234375
0.053173828124999996
0.046728515624999994
0.0765380859375
0.0475341796875
0.046728515624999994
0.046728515624999994
0.0475341796875
0.043505859375
0.0459228515625
0.045117187499999996
0.046728515624999994
0.0459228515625
0.046728515624999994
3.0550781249999996
3.0607177734374997
3.053466796875
3.053466796875
3.0526611328124997
3.050244140625
3.0526611328124997
3.0494384765625
3.0325195312499997
2.9511474609375
2.5531494140624997
2.8335205078124996
2.6997802734375
2.6192138671875
3.053466796875
3.05185546875
3.053466796875
3.0510498046874996
3.0526611328124997
2.0230224609375
3.053466796875
0.046728515624999994
0.0459228515625
0.041088867187499996
0.043505859375
0.0459228515625
0.046728515624999994
0.0475341796875
0.0443115234375
0.04833984375
0.045117187499999996
0.0443115234375
0.045117187499999996
0.049145507812499996
0.046728515624999994
0.043505859375
0.0475341796875
0.049145507812499996
0.0459228515625
0.049951171875
0.045117187499999996
0.8572265625
3.053466796875
3.0526611328124997
3.0389648437499996
3.050244140625
3.0526611328124997
3.0486328124999997
3.05185546875
3.0550781249999996
3.050244140625
2.85849609375
2.6466064453125
2.50400390625
2.6643310546874996
2.560400390625
2.462109375
3.050244140625
3.053466796875
3.0510498046874996
3.05830078125
3.0446044921874997
2.8560791015625
0.952294921875
0.0459228515625
0.0459228515625
0.0459228515625
0.04833984375
0.049145507812499996
0.046728515624999994
0.0475341796875
0.0475341796875
0.0459228515625
0.24814453125
0.0443115234375
0.0459228515625
0.0475341796875
0.0443115234375
0.0459228515625
0.045117187499999996
0.0459228515625
0.045117187499999996
0.042700195312499994
0.19013671875
0.8644775390624999
3.053466796875
3.05185546875
3.053466796875
3.0526611328124997
3.0526611328124997
3.05185546875
3.0526611328124997
3.053466796875
3.0526611328124997
2.866552734375
3.0510498046874996
2.7650390624999996
2.679638671875
2.6103515625
3.053466796875
3.053466796875
3.050244140625
3.0550781249999996
3.0526611328124997
2.2727783203125
0.0459228515625
0.22478027343749998
0.046728515624999994
0.049145507812499996
0.049145507812499996
0.0475341796875
0.0459228515625
0.0459228515625
0.0459228515625
0.043505859375
0.08056640625
0.06767578125
0.0845947265625
0.0717041015625
0.049145507812499996
0.045117187499999996
0.0459228515625
0.0459228515625
0.045117187499999996
0.043505859375
0.043505859375
0.0475341796875
3.0526611328124997
3.05185546875
3.0550781249999996
3.0526611328124997
3.05185546875
3.0526611328124997
3.053466796875
3.0478271484375
3.0526611328124997
2.9745117187499996
3.0526611328124997
2.7900146484375
2.8069335937499997
2.6981689453124997
3.0550781249999996
3.0526611328124997
3.0510498046874996
3.0526611328124997
3.0526611328124997
3.0526611328124997
3.0542724609375
0.0459228515625
0.046728515624999994
0.0459228515625
0.0459228515625
0.0443115234375
0.046728515624999994
0.045117187499999996
0.043505859375
0.0475341796875
0.04833984375
0.240087890625
0.133740234375
0.143408203125
0.16677246093749998
0.045117187499999996
0.045117187499999996
0.042700195312499994
0.0459228515625
0.0459228515625
0.046728515624999994
0.049145507812499996
3.0550781249999996
3.053466796875
3.053466796875
3.05185546875
3.0550781249999996
3.0462158203125
3.050244140625
3.05185546875
3.0510498046874996
2.8335205078124996
3.053466796875
2.905224609375
2.81015625
2.679638671875
3.0558837890625
3.05185546875
3.05185546875
3.0550781249999996
3.0550781249999996
1.6451660156249999
3.0526611328124997
0.3262939453125
0.046728515624999994
0.046728515624999994
0.049951171875
0.0523681640625
0.042700195312499994
0.0459228515625
0.046728515624999994
0.0475341796875
0.045117187499999996
0.0459228515625
0.0708984375
0.04833984375
0.0733154296875
0.040283203125
0.043505859375
0.046728515624999994
0.049145507812499996
0.042700195312499994
0.046728515624999994
0.0475341796875
2.2115478515625
3.0494384765625
3.05185546875
3.0470214843749996
3.053466796875
3.0494384765625
3.0542724609375
3.053466796875
3.053466796875
2.9946533203124996
2.914892578125
2.9970703125
2.827880859375
2.721533203125
2.5595947265624996
3.05830078125
3.053466796875
3.0558837890625
3.053466796875
2.9882080078124997
0.046728515624999994
1.51787109375
0.046728515624999994
0.0459228515625
0.049145507812499996
0.046728515624999994
0.045117187499999996
0.050756835937499994
0.046728515624999994
0.045117187499999996
0.0459228515625
0.0765380859375
0.0459228515625
0.133740234375
0.1409912109375
0.103125
0.046728515624999994
0.043505859375
0.0459228515625
0.045117187499999996
0.042700195312499994
0.0459228515625
1.303564453125
3.0550781249999996
3.05830078125
3.053466796875
3.050244140625
3.0542724609375
3.0558837890625
3.0526611328124997
3.034130859375
3.053466796875
3.0099609375
2.6965576171874996
2.8399658203125
2.7819580078125
2.6852783203125
3.0550781249999996
3.053466796875
3.053466796875
3.0526611328124997
3.0486328124999997
3.0510498046874996
0.153076171875
0.040283203125
0.046728515624999994
0.0459228515625
0.042700195312499994
0.0459228515625
0.046728515624999994
0.0459228515625
0.049951171875
0.0523681640625
0.0459228515625
0.26828613281249997
0.10554199218749999
0.08137207031249999
0.08137207031249999
0.0459228515625
0.042700195312499994
0.049951171875
0.046728515624999994
0.0459228515625
0.046728515624999994
0.043505859375
2.753759765625
3.0558837890625
3.0526611328124997
3.0526611328124997
3.050244140625
3.05185546875
3.053466796875
3.0486328124999997
3.053466796875
2.9680664062499997
3.0526611328124997
2.840771484375
2.7368408203124996
2.7062255859374997
3.0510498046874996
3.0510498046874996
3.05185546875
3.0542724609375
3.0550781249999996
3.050244140625
3.05185546875
0.042700195312499994
0.043505859375
0.046728515624999994
0.0459228515625
0.0459228515625
0.0459228515625
0.046728515624999994
0.045117187499999996
0.046728515624999994
0.046728515624999994
0.042700195312499994
0.045117187499999996
0.049145507812499996
0.06606445312499999
0.04189453125
0.049145507812499996
0.046728515624999994
0.049951171875
0.0475341796875
0.04833984375
0.0443115234375
2.8899169921874996
3.0542724609375
3.0550781249999996
3.0550781249999996
3.0526611328124997
3.0550781249999996
3.0542724609375
3.0550781249999996
3.0542724609375
3.0478271484375
3.053466796875
2.6619140624999997
2.7851806640624996
2.689306640625
2.6385498046875
3.050244140625
3.053466796875
3.0526611328124997
3.05185546875
3.04541015625
3.05185546875
0.23122558593749998
0.0475341796875
0.046728515624999994
0.0459228515625
0.0443115234375
0.0475341796875
0.04189453125
0.049145507812499996
0.046728515624999994
0.046728515624999994
0.165966796875
0.1538818359375
0.0845947265625
0.14501953125
0.1232666015625
0.043505859375
0.0475341796875
0.045117187499999996
0.041088867187499996
0.046728515624999994
0.049145507812499996
1.4219970703125
3.0542724609375
3.0494384765625
3.053466796875
3.0510498046874996
3.0526611328124997
3.05185546875
3.05185546875
3.05185546875
2.9108642578125
2.9422851562499996
3.0462158203125
2.808544921875
2.7932373046874996
2.7126708984374996
3.05830078125
3.053466796875
3.0550781249999996
3.0510498046874996
3.0558837890625
0.978076171875
0.049145507812499996
0.0459228515625
0.0443115234375
0.0443115234375
0.046728515624999994
0.04833984375
0.046728515624999994
0.0443115234375
0.04833984375
0.049145507812499996
0.045117187499999996
0.057202148437499996
0.0475341796875
0.04833984375
0.04833984375
0.042700195312499994
0.045117187499999996
0.0459228515625
0.045117187499999996
0.043505859375
0.043505859375
0.0459228515625
3.053466796875
3.053466796875
3.05185546875
3.050244140625
3.05185546875
3.0486328124999997
3.043798828125
3.0550781249999996
3.0550781249999996
2.9720947265624997
2.8254638671874996
2.79404296875
2.81982421875
2.6764160156249996
3.0526611328124997
3.0542724609375
3.0526611328124997
3.0494384765625
3.05185546875
3.05185546875
2.7610107421874996
0.17724609375
0.046728515624999994
0.046728515624999994
0.0459228515625
0.0475341796875
0.0459228515625
0.0443115234375
0.046728515624999994
0.045117187499999996
0.046728515624999994
0.046728515624999994
0.062841796875
0.059619140625
0.075732421875
0.045117187499999996
0.045117187499999996
0.042700195312499994
0.0459228515625
0.049145507812499996
0.04833984375
0.046728515624999994
3.0542724609375
3.05185546875
3.050244140625
3.05185546875
3.053466796875
3.0566894531249997
3.050244140625
3.05185546875
3.050244140625
3.0204345703124997
2.9559814453124997
2.9221435546874996
2.7722900390625
2.7086425781249996
3.050244140625
3.053466796875
3.0542724609375
3.0550781249999996
3.0526611328124997
0.8910644531249999
1.095703125
0.133740234375
0.04833984375
0.046728515624999994
0.0475341796875
0.0459228515625
0.043505859375
0.049145507812499996
0.0475341796875
0.054785156249999994
0.045117187499999996
0.0459228515625
0.0684814453125
0.0837890625
0.0966796875
0.046728515624999994
0.040283203125
0.045117187499999996
0.046728515624999994
0.043505859375
0.0459228515625
0.046728515624999994
2.840771484375
3.053466796875
3.053466796875
3.0494384765625
3.0550781249999996
3.05185546875
3.0526611328124997
3.053466796875
3.053466796875
3.0478271484375
2.94873046875
2.953564453125
2.824658203125
2.7368408203124996
2.616796875
3.0510498046874996
3.0558837890625
3.0550781249999996
3.053466796875
3.0550781249999996
0.04833984375
1.4493896484375
0.046728515624999994
0.04833984375
0.042700195312499994
0.0459228515625
0.049951171875
0.049951171875
0.046728515624999994
0.0459228515625
0.0459228515625
0.046728515624999994
0.0459228515625
0.0958740234375
0.072509765625
0.07412109374999999
0.0443115234375
0.046728515624999994
0.046728515624999994
0.046728515624999994
0.046728515624999994
0.0459228515625
1.110205078125
3.0252685546875
3.0526611328124997
3.0550781249999996
3.0478271484375
3.0526611328124997
3.0550781249999996
3.0550781249999996
3.050244140625
3.053466796875
2.905224609375
2.642578125
2.7747070312499997
2.70703125
2.6361328124999996
3.050244140625
3.0550781249999996
3.0526611328124997
3.0526611328124997
3.053466796875
3.05185546875
0.0459228515625
0.19094238281249998
0.042700195312499994
0.0443115234375
0.046728515624999994
0.0475341796875
0.0459228515625
0.0459228515625
0.0459228515625
0.04189453125
0.046728515624999994
0.20705566406249998
0.0539794921875
0.0926513671875
0.09023437499999999
0.046728515624999994
0.049951171875
0.042700195312499994
0.0475341796875
0.046728515624999994
0.0475341796875
0.049145507812499996
3.0220458984375
3.0486328124999997
3.053466796875
3.053466796875
3.05185546875
3.053466796875
3.0558837890625
3.05185546875
3.05185546875
2.9898193359375
3.0550781249999996
2.7932373046874996
2.7610107421874996
2.6643310546874996
3.0526611328124997
3.0550781249999996
3.0550781249999996
3.05185546875
3.05185546875
3.0542724609375
3.0510498046874996
0.046728515624999994
0.04189453125
0.046728515624999994
0.043505859375
0.0475341796875
0.049145507812499996
0.04833984375
0.0459228515625
0.04833984375
0.0459228515625
0.045117187499999996
0.0475341796875
0.09990234375
0.1329345703125
0.046728515624999994
0.046728515624999994
0.049145507812499996
0.0443115234375
0.046728515624999994
0.046728515624999994
0.046728515624999994
3.0405761718749997
3.05185546875
3.0526611328124997
3.053466796875
3.053466796875
3.0550781249999996
3.053466796875
3.0526611328124997
3.0542724609375
2.8617187499999996
3.0550781249999996
2.744091796875
2.81015625
2.7005859374999996
2.6981689453124997
3.0526611328124997
3.0526611328124997
3.0550781249999996
3.050244140625
3.0566894531249997
0.046728515624999994
0.29326171875
0.0475341796875
0.0459228515625
0.042700195312499994
0.049951171875
0.0475341796875
0.0443115234375
0.045117187499999996
0.045117187499999996
0.0459228515625
0.046728515624999994
0.12246093749999999
0.0346435546875
0.057202148437499996
0.0443115234375
0.04833984375
0.046728515624999994
0.043505859375
0.0443115234375
0.0459228515625
0.0459228515625
1.1448486328125
3.053466796875
3.0550781249999996
3.0542724609375
3.053466796875
3.0558837890625
3.05830078125
3.0526611328124997
3.0550781249999996
3.0526611328124997
2.9986816406249996
3.0510498046874996
2.8431884765624997
2.80048828125
2.7102539062499997
3.0486328124999997
3.0574951171875
3.0542724609375
3.05185546875
3.0542724609375
0.18288574218749998
0.249755859375
0.046728515624999994
0.045117187499999996
0.04833984375
0.0475341796875
0.043505859375
0.045117187499999996
0.049145507812499996
0.043505859375
0.0459228515625
0.0604248046875
0.049145507812499996
0.1345458984375
0.143408203125
0.0966796875
0.0475341796875
0.0459228515625
0.046728515624999994
0.0459228515625
0.0539794921875
0.046728515624999994
0.045117187499999996
3.053466796875
3.05185546875
3.0542724609375
3.0550781249999996
3.050244140625
3.0486328124999997
3.05185546875
3.05185546875
3.0558837890625
2.947119140625
2.6047119140625
2.9036132812499997
2.811767578125
2.6949462890625
3.05185546875
3.05185546875
3.05185546875
3.0526611328124997
3.0526611328124997
3.0526611328124997
1.429248046875
0.045117187499999996
0.049951171875
0.0475341796875
0.0515625
0.046728515624999994
0.0459228515625
0.043505859375
0.0459228515625
0.0443115234375
0.046728515624999994
0.049951171875
0.1232666015625
0.06767578125
0.06606445312499999
0.043505859375
0.046728515624999994
0.0475341796875
0.0475341796875
0.046728515624999994
0.045117187499999996
0.0459228515625
2.383154296875
3.0550781249999996
3.0526611328124997
3.0526611328124997
3.0494384765625
3.0526611328124997
3.05185546875
3.0526611328124997
3.0510498046874996
2.9656494140625
2.8528564453125
2.9326171875
2.7851806640624996
2.7046142578124996
3.05185546875
3.053466796875
3.0542724609375
3.0478271484375
3.0526611328124997
1.65
3.050244140625
0.2263916015625
0.043505859375
0.04833984375
0.045117187499999996
0.046728515624999994
0.046728515624999994
0.046728515624999994
0.0443115234375
0.043505859375
0.0459228515625
0.2118896484375
0.0459228515625
0.078955078125
0.0620361328125
0.0459228515625
0.045117187499999996
0.049145507812499996
0.0443115234375
0.0459228515625
0.0459228515625
0.0459228515625
2.695751953125
3.0526611328124997
3.0510498046874996
3.0510498046874996
3.053466796875
3.0486328124999997
3.05185546875
3.053466796875
3.0550781249999996
3.05185546875
2.7247558593749996
2.6925292968749996
2.866552734375
2.7126708984374996
2.5934326171874997
3.0558837890625
3.0405761718749997
3.0526611328124997
3.0494384765625
3.05185546875
1.9182861328124998
1.0191650390625
0.049145507812499996
0.0459228515625
0.0459228515625
0.04833984375
0.046728515624999994
0.046728515624999994
0.046728515624999994
0.045117187499999996
0.0394775390625
0.3182373046875
0.0555908203125
0.0958740234375
0.11279296875
0.046728515624999994
0.046728515624999994
0.0475341796875
0.0475341796875
0.0443115234375
0.04189453125
0.0443115234375
2.2357177734375
3.05185546875
3.05185546875
3.0494384765625
3.0494384765625
3.0510498046874996
3.0550781249999996
3.0647460937499997
3.050244140625
3.0510498046874996
2.9753173828125
3.0566894531249997
2.827880859375
2.7392578125
2.6748046875
3.0566894531249997
3.05185546875
3.0510498046874996
3.05185546875
3.053466796875
2.7851806640624996
0.049145507812499996
0.0958740234375
0.0443115234375
0.0443115234375
0.045117187499999996
0.045117187499999996
0.046728515624999994
0.049951171875
0.0459228515625
0.045117187499999996
0.049145507812499996
0.058813476562499994
0.116015625
0.091845703125
0.07814941406249999
0.046728515624999994
0.046728515624999994
0.0459228515625
0.046728515624999994
0.046728515624999994
0.045117187499999996
0.042700195312499994
3.0510498046874996
3.050244140625
3.053466796875
3.05185546875
3.053466796875
3.0526611328124997
3.0526611328124997
3.0526611328124997
3.05185546875
3.0317138671875
3.053466796875
2.9761230468749997
2.7948486328124997
2.6780273437499997
3.05185546875
3.0542724609375
3.0542724609375
3.0510498046874996
3.0550781249999996
3.0526611328124997
3.050244140625
0.439892578125
0.0443115234375
0.046728515624999994
0.0459228515625
0.0459228515625
0.045117187499999996
0.0475341796875
0.0475341796875
0.049145507812499996
0.045117187499999996
0.0475341796875
0.059619140625
0.09990234375
0.1007080078125
0.041088867187499996
0.0475341796875
0.0443115234375
0.0443115234375
0.046728515624999994
0.042700195312499994
0.0459228515625
2.0971435546875
3.05185546875
3.05185546875
3.0526611328124997
3.0558837890625
3.0494384765625
3.053466796875
3.05185546875
3.0526611328124997
2.931005859375
2.9680664062499997
2.9704833984374996
2.872998046875
2.7408691406249996
3.05185546875
3.05185546875
3.0494384765625
3.0542724609375
3.0526611328124997
1.770849609375
0.043505859375
0.13857421875
0.0475341796875
0.0475341796875
0.04189453125
0.046728515624999994
0.045117187499999996
0.0459228515625
0.0459228515625
0.049951171875
0.0459228515625
0.07814941406249999
0.1635498046875
0.1007080078125
0.13615722656249998
0.0459228515625
0.046728515624999994
0.043505859375
0.042700195312499994
0.0459228515625
0.046728515624999994
0.0459228515625
2.144677734375
3.0526611328124997
