1.181103515625
3.059912109375
3.059912109375
3.0591064453124996
3.0591064453124996
3.059912109375
3.0591064453124996
3.0188232421874996
2.8786376953125
3.0574951171875
2.9390625
3.05830078125
2.7046142578124996
2.6981689453124997
2.560400390625
3.0574951171875
3.0607177734374997
3.0615234375
3.0574951171875
3.0615234375
3.059912109375
3.0591064453124996
0.0539794921875
0.0515625
0.054785156249999994
0.056396484375
0.0523681640625
0.053173828124999996
0.053173828124999996
0.056396484375
0.0523681640625
0.0555908203125
0.249755859375
0.0523681640625
0.0539794921875
0.0523681640625
0.0515625
0.0539794921875
0.046728515624999994
0.0539794921875
0.0515625
0.0555908203125
0.053173828124999996
3.0542724609375
3.0639404296875
3.0591064453124996
3.0591064453124996
3.0631347656249996
3.059912109375
3.0615234375
3.0591064453124996
3.0615234375
2.8874999999999997
3.059912109375
2.70380859375
2.769873046875
2.592626953125
2.9841796874999997
3.0558837890625
2.98095703125
3.0566894531249997
3.0591064453124996
2.8464111328125
3.0615234375
0.3875244140625
0.0523681640625
0.049951171875
0.0539794921875
0.0523681640625
0.049951171875
0.0523681640625
0.0539794921875
0.053173828124999996
0.053173828124999996
0.0523681640625
0.1393798828125
0.0523681640625
0.0539794921875
0.0523681640625
0.0523681640625
0.0523681640625
0.0523681640625
0.054785156249999994
0.0523681640625
0.0515625
1.5509033203125
3.05830078125
3.05830078125
3.0566894531249997
3.059912109375
3.05830078125
3.0607177734374997
3.059912109375
3.0591064453124996
3.037353515625
2.8794433593749997
3.0566894531249997
2.7013916015625
2.6216308593749997
2.5015869140625
3.05830078125
3.05830078125
3.05830078125
3.0623291015625
3.0639404296875
0.37382812499999996
0.0515625
0.050756835937499994
0.0523681640625
0.0539794921875
0.053173828124999996
0.0539794921875
0.053173828124999996
0.0523681640625
0.0523681640625
0.049951171875
0.0580078125
0.0475341796875
0.10634765624999999
0.1426025390625
0.08137207031249999
0.053173828124999996
0.053173828124999996
0.056396484375
0.0539794921875
0.053173828124999996
0.0523681640625
1.6105224609375
3.059912109375
3.059912109375
3.0591064453124996
3.0615234375
3.0574951171875
3.0631347656249996
3.0558837890625
3.0574951171875
3.0591064453124996
2.8383544921875
2.6844726562499996
2.7432861328125
2.7030029296875
2.5982666015625
3.0574951171875
3.0574951171875
3.059912109375
3.0615234375
3.0607177734374997
3.059912109375
2.3759033203124997
0.0515625
0.0523681640625
0.053173828124999996
0.053173828124999996
0.054785156249999994
0.053173828124999996
0.0555908203125
0.053173828124999996
0.0515625
0.0523681640625
0.0523681640625
0.0845947265625
0.0910400390625
0.088623046875
0.0523681640625
0.053173828124999996
0.053173828124999996
0.0555908203125
0.0555908203125
0.053173828124999996
0.0523681640625
3.059912109375
3.059912109375
3.05830078125
3.05830078125
3.0566894531249997
3.0703857421875
3.059912109375
3.05830078125
3.0591064453124996
2.88427734375
2.9640380859374997
2.8786376953125
2.7013916015625
2.56845703125
3.0566894531249997
3.05830078125
3.05830078125
3.05830078125
3.0591064453124996
0.865283203125
3.0623291015625
0.5043457031249999
0.0539794921875
0.0539794921875
0.0555908203125
0.053173828124999996
0.054785156249999994
0.053173828124999996
0.053173828124999996
0.0539794921875
0.054785156249999994
0.053173828124999996
0.053173828124999996
0.054785156249999994
0.056396484375
0.064453125
0.057202148437499996
0.0539794921875
0.049951171875
0.053173828124999996
0.0539794921875
0.053173828124999996
2.7650390624999996
3.0607177734374997
3.0591064453124996
3.0558837890625
3.059912109375
3.0574951171875
3.0607177734374997
3.0591064453124996
3.0574951171875
2.83271484375
2.8037109375
2.7988769531249997
2.7658447265625
2.6232421875
2.4911132812499996
3.059912109375
3.059912109375
3.0558837890625
3.0631347656249996
1.5073974609374998
0.053173828124999996
1.5597656249999998
0.0523681640625
0.053173828124999996
0.057202148437499996
0.053173828124999996
0.057202148437499996
0.054785156249999994
0.049951171875
0.0555908203125
0.0555908203125
0.056396484375
0.0555908203125
0.0604248046875
0.0829833984375
0.057202148437499996
0.053173828124999996
0.0523681640625
0.0523681640625
0.054785156249999994
0.0539794921875
0.054785156249999994
3.0075439453125
3.0591064453124996
3.0591064453124996
3.0615234375
3.059912109375
3.0558837890625
3.05830078125
3.0623291015625
3.05830078125
3.0591064453124996
2.9011962890625
2.4774169921875
2.771484375
2.6860839843749997
2.6047119140625
3.059912109375
3.0615234375
3.0566894531249997
3.0566894531249997
3.0591064453124996
3.0607177734374997
0.1168212890625
0.0555908203125
0.050756835937499994
0.0523681640625
0.049951171875
0.050756835937499994
0.057202148437499996
0.0523681640625
0.0539794921875
0.0523681640625
0.0523681640625
0.053173828124999996
0.116015625
0.11762695312499999
0.06606445312499999
0.0555908203125
0.0523681640625
0.0539794921875
0.053173828124999996
0.053173828124999996
0.053173828124999996
0.053173828124999996
3.059912109375
3.0591064453124996
3.059912109375
3.0607177734374997
3.059912109375
3.0550781249999996
3.0574951171875
3.05830078125
3.0631347656249996
2.9108642578125
2.3195068359374997
2.745703125
2.65869140625
2.5555664062499996
3.05830078125
3.059912109375
3.0566894531249997
3.0607177734374997
3.0615234375
3.053466796875
0.8805908203124999
0.1345458984375
0.056396484375
0.053173828124999996
0.0555908203125
0.0515625
0.0515625
0.053173828124999996
0.0523681640625
0.0523681640625
0.0523681640625
0.054785156249999994
0.053173828124999996
0.061230468749999996
0.054785156249999994
0.053173828124999996
0.053173828124999996
0.053173828124999996
0.053173828124999996
0.0539794921875
0.053173828124999996
0.053173828124999996
3.05830078125
3.05830078125
3.0639404296875
3.0607177734374997
3.0655517578125
3.0647460937499997
3.0631347656249996
3.0591064453124996
3.0655517578125
2.9358398437499997
2.7102539062499997
2.578125
2.7384521484374997
2.62646484375
2.5410644531249997
3.0574951171875
3.0566894531249997
3.05830078125
3.0566894531249997
1.7370117187499998
3.0558837890625
0.7726318359375
0.050756835937499994
0.053173828124999996
0.050756835937499994
0.0580078125
0.0523681640625
0.0523681640625
0.049951171875
0.057202148437499996
0.049951171875
0.35126953125
0.054785156249999994
0.0878173828125
0.0580078125
0.0539794921875
0.0523681640625
0.053173828124999996
0.0539794921875
0.0515625
0.056396484375
0.0539794921875
1.2157470703125
3.0615234375
3.0615234375
3.0574951171875
3.0574951171875
3.05830078125
3.0591064453124996
3.05830078125
3.059912109375
2.8866943359375
2.9197265624999997
3.011572265625
2.7739013671875
2.6627197265625
2.5579833984375
3.0591064453124996
3.0591064453124996
3.0566894531249997
3.05830078125
3.0574951171875
2.7561767578125
0.057202148437499996
0.054785156249999994
0.053173828124999996
0.0539794921875
0.053173828124999996
0.053173828124999996
0.0555908203125
0.050756835937499994
0.053173828124999996
0.0539794921875
0.0515625
0.0523681640625
0.0733154296875
0.0523681640625
0.0515625
0.0539794921875
0.050756835937499994
0.0539794921875
0.0555908203125
0.0475341796875
0.053173828124999996
0.054785156249999994
3.0550781249999996
3.059912109375
3.0607177734374997
3.0615234375
3.05830078125
3.05830078125
3.0607177734374997
2.9962646484374997
3.0550781249999996
2.9624267578124996
2.6498291015624997
2.7505371093749997
2.7102539062499997
2.608740234375
3.0623291015625
3.059912109375
3.059912109375
3.0615234375
3.0607177734374997
3.0591064453124996
0.0523681640625
0.1329345703125
0.0539794921875
0.0523681640625
0.0515625
0.054785156249999994
0.0515625
0.056396484375
0.050756835937499994
0.0523681640625
0.0515625
0.13615722656249998
0.053173828124999996
0.111181640625
0.0523681640625
0.053173828124999996
0.050756835937499994
0.050756835937499994
0.0515625
0.054785156249999994
0.0539794921875
0.050756835937499994
3.0558837890625
3.0615234375
3.0566894531249997
3.0591064453124996
3.05830078125
3.0607177734374997
3.05185546875
3.0591064453124996
3.0631347656249996
2.9519531249999997
3.059912109375
2.8302978515625
2.8375488281249996
2.642578125
2.9116699218749997
3.0591064453124996
3.059912109375
3.059912109375
3.0607177734374997
3.0591064453124996
3.0591064453124996
0.057202148437499996
0.053173828124999996
0.0523681640625
0.0539794921875
0.0539794921875
0.0555908203125
0.054785156249999994
0.053173828124999996
0.053173828124999996
0.054785156249999994
0.050756835937499994
0.17241210937499998
0.022558593749999998
0.10151367187499999
0.0515625
0.054785156249999994
0.0515625
0.053173828124999996
0.050756835937499994
0.053173828124999996
0.0523681640625
1.6379150390625
3.0647460937499997
3.0566894531249997
3.0558837890625
3.0615234375
3.059912109375
3.059912109375
3.0623291015625
3.0591064453124996
2.8681640625
2.8423828125
3.059912109375
2.7021972656249997
2.6039062499999996
2.5201171875
3.05830078125
3.0566894531249997
3.0623291015625
3.05830078125
3.0615234375
0.485009765625
0.053173828124999996
0.053173828124999996
0.053173828124999996
0.049145507812499996
0.0555908203125
0.056396484375
0.054785156249999994
0.0555908203125
0.0475341796875
0.053173828124999996
0.049951171875
0.0515625
0.053173828124999996
0.0523681640625
0.049145507812499996
0.0515625
0.053173828124999996
0.053173828124999996
0.04833984375
0.053173828124999996
0.053173828124999996
0.050756835937499994
2.985791015625
3.0631347656249996
3.05830078125
3.0607177734374997
3.059912109375
3.059912109375
3.059912109375
3.0615234375
3.0550781249999996
2.8883056640625
2.8995849609374997
2.7239501953125
2.72314453125
2.6119628906249996
3.0591064453124996
3.0623291015625
3.0607177734374997
3.059912109375
3.0591064453124996
3.0607177734374997
2.3871826171875
0.053173828124999996
0.0555908203125
0.053173828124999996
0.049951171875
0.050756835937499994
0.053173828124999996
0.0523681640625
0.053173828124999996
0.057202148437499996
0.0515625
0.053173828124999996
0.0580078125
0.0668701171875
0.1200439453125
0.0515625
0.0515625
0.0515625
0.053173828124999996
0.053173828124999996
0.053173828124999996
0.0523681640625
3.059912109375
3.059912109375
3.05830078125
3.05830078125
3.0623291015625
3.059912109375
3.05830078125
3.066357421875
3.059912109375
2.9970703125
3.0566894531249997
2.9108642578125
2.779541015625
2.6659423828124997
3.05830078125
3.0566894531249997
3.059912109375
3.0558837890625
3.0574951171875
0.839501953125
3.0607177734374997
0.053173828124999996
0.053173828124999996
0.0555908203125
0.0539794921875
0.053173828124999996
0.053173828124999996
0.050756835937499994
0.0515625
0.053173828124999996
0.0515625
0.054785156249999994
0.124072265625
0.08942871093749999
0.056396484375
0.054785156249999994
0.053173828124999996
0.053173828124999996
0.0539794921875
0.053173828124999996
0.053173828124999996
0.050756835937499994
2.7424804687499997
3.05830078125
3.0615234375
3.0591064453124996
3.0615234375
3.05830078125
3.0558837890625
3.0631347656249996
3.0591064453124996
2.8850830078125
2.824658203125
2.8399658203125
2.7368408203124996
2.6377441406249997
2.5579833984375
3.053466796875
3.0623291015625
3.05830078125
3.059912109375
1.8336914062499998
0.053173828124999996
1.5154541015624998
0.0539794921875
0.049145507812499996
0.0539794921875
0.053173828124999996
0.0523681640625
0.053173828124999996
0.050756835937499994
0.057202148437499996
0.0523681640625
0.0539794921875
0.053173828124999996
0.0580078125
0.056396484375
0.053173828124999996
0.049145507812499996
0.0515625
0.054785156249999994
0.0539794921875
0.0515625
0.0555908203125
1.6943115234375
3.0615234375
3.05830078125
3.0615234375
3.05830078125
3.0623291015625
3.0607177734374997
3.059912109375
3.0615234375
3.059912109375
2.8447998046875
2.4500244140625
2.7336181640625
2.679638671875
2.6296874999999997
3.059912109375
3.05830078125
3.0591064453124996
3.0574951171875
3.059912109375
3.0607177734374997
0.153076171875
0.054785156249999994
0.053173828124999996
0.0539794921875
0.0523681640625
0.0523681640625
0.0555908203125
0.0555908203125
0.053173828124999996
0.0555908203125
0.04833984375
0.050756835937499994
0.08056640625
0.07734374999999999
0.07009277343749999
0.054785156249999994
0.0523681640625
0.053173828124999996
0.049145507812499996
0.0523681640625
0.0523681640625
0.050756835937499994
3.0574951171875
3.05830078125
3.0558837890625
3.0615234375
3.0607177734374997
3.0591064453124996
3.050244140625
3.0607177734374997
2.9519531249999997
2.9906249999999996
2.4919189453125
2.8166015625
2.7021972656249997
2.63935546875
3.0591064453124996
3.0591064453124996
3.0591064453124996
3.059912109375
3.0607177734374997
3.0615234375
1.2101074218749999
0.0523681640625
0.04833984375
0.056396484375
0.049145507812499996
0.0555908203125
0.049951171875
0.0523681640625
0.0515625
0.049145507812499996
0.056396484375
0.124072265625
0.0539794921875
0.11037597656249999
0.11279296875
0.0523681640625
0.054785156249999994
0.049951171875
0.0539794921875
0.053173828124999996
0.0539794921875
0.053173828124999996
2.9575927734375
3.05830078125
3.0615234375
3.0591064453124996
3.05830078125
3.05830078125
3.05830078125
3.05185546875
3.0647460937499997
2.947119140625
2.6119628906249996
2.5467041015625
2.7561767578125
2.6498291015624997
2.5579833984375
3.059912109375
3.0558837890625
3.0615234375
3.0607177734374997
1.4703369140625
3.018017578125
1.3156494140625
0.049145507812499996
0.049951171875
0.054785156249999994
0.0523681640625
0.053173828124999996
0.054785156249999994
0.0539794921875
0.0515625
0.0523681640625
0.27634277343749997
0.0523681640625
0.0604248046875
0.053173828124999996
0.056396484375
0.049951171875
0.0523681640625
0.053173828124999996
0.053173828124999996
0.0523681640625
0.0515625
1.26005859375
3.0607177734374997
3.0591064453124996
3.0542724609375
3.05830078125
3.0615234375
3.0655517578125
3.0607177734374997
3.05830078125
3.0591064453124996
2.9302001953124996
3.0349365234374996
2.7779296875
2.6981689453124997
2.6578857421874997
3.05830078125
3.059912109375
3.0558837890625
3.0550781249999996
3.059912109375
2.760205078125
0.0523681640625
0.0555908203125
0.053173828124999996
0.0523681640625
0.0523681640625
0.053173828124999996
0.0539794921875
0.053173828124999996
0.049951171875
0.0539794921875
0.088623046875
0.15871582031249998
0.0910400390625
0.1554931640625
0.10634765624999999
0.049145507812499996
0.054785156249999994
0.049145507812499996
0.050756835937499994
0.053173828124999996
0.0539794921875
0.053173828124999996
3.05830078125
3.05830078125
3.0591064453124996
3.0566894531249997
3.05830078125
3.0607177734374997
3.0607177734374997
2.88427734375
3.0421875
2.866552734375
2.5555664062499996
2.679638671875
2.6860839843749997
2.55234375
3.0591064453124996
3.0615234375
3.059912109375
3.0615234375
3.0623291015625
3.059912109375
3.0574951171875
0.049951171875
0.050756835937499994
0.049145507812499996
0.0523681640625
0.053173828124999996
0.056396484375
0.056396484375
0.050756835937499994
0.053173828124999996
0.050756835937499994
0.2457275390625
0.0523681640625
0.053173828124999996
0.0539794921875
0.053173828124999996
0.0539794921875
0.053173828124999996
0.0539794921875
0.0539794921875
0.0523681640625
0.053173828124999996
3.059912109375
3.05830078125
3.0623291015625
3.053466796875
3.0615234375
3.05830078125
3.0542724609375
3.05830078125
3.0623291015625
3.053466796875
3.059912109375
2.6441894531249996
2.7424804687499997
2.5773193359374997
2.8850830078125
3.05830078125
3.0615234375
3.0631347656249996
3.059912109375
2.9060302734374996
3.05830078125
0.33515625
0.053173828124999996
0.053173828124999996
0.0539794921875
0.050756835937499994
0.0580078125
0.049145507812499996
0.053173828124999996
0.054785156249999994
0.0555908203125
0.049951171875
0.1571044921875
0.07814941406249999
0.10957031249999999
0.057202148437499996
0.0523681640625
0.0475341796875
0.0539794921875
0.054785156249999994
0.053173828124999996
0.053173828124999996
1.7813232421874998
3.059912109375
3.059912109375
3.0574951171875
3.0574951171875
3.0615234375
3.0615234375
3.059912109375
3.059912109375
3.0325195312499997
2.9108642578125
3.0615234375
2.7569824218749996
2.68125
2.5740966796875
3.059912109375
3.0591064453124996
3.0574951171875
3.0574951171875
3.0647460937499997
0.48662109374999996
0.404443359375
0.054785156249999994
0.0515625
0.050756835937499994
0.0539794921875
0.050756835937499994
0.053173828124999996
0.0515625
0.053173828124999996
0.050756835937499994
0.10634765624999999
0.0539794921875
0.11923828125
0.143408203125
0.0636474609375
0.053173828124999996
0.053173828124999996
0.053173828124999996
0.053173828124999996
0.054785156249999994
0.0523681640625
0.049951171875
3.059912109375
3.059912109375
3.059912109375
3.05830078125
3.0623291015625
3.0623291015625
3.0591064453124996
3.0615234375
3.0591064453124996
2.9261718749999996
3.0558837890625
2.7344238281249997
2.7255615234375
2.5974609374999997
3.0574951171875
3.0623291015625
3.0566894531249997
3.0591064453124996
3.05830078125
3.0607177734374997
2.618408203125
0.054785156249999994
0.053173828124999996
0.056396484375
0.0539794921875
0.0523681640625
0.054785156249999994
0.053173828124999996
0.056396484375
0.0580078125
0.0555908203125
0.0539794921875
0.0652587890625
0.056396484375
0.054785156249999994
0.0539794921875
0.053173828124999996
0.053173828124999996
0.0523681640625
0.0539794921875
0.053173828124999996
0.053173828124999996
2.98740234375
3.0574951171875
3.059912109375
3.0623291015625
3.05830078125
3.0591064453124996
3.059912109375
3.0591064453124996
3.05830078125
3.0494384765625
3.0623291015625
2.908447265625
2.7505371093749997
2.5845703125
3.0591064453124996
3.05830078125
3.0615234375
3.0607177734374997
3.0591064453124996
0.9031494140624999
3.0615234375
0.436669921875
0.054785156249999994
0.0515625
0.0523681640625
0.0539794921875
0.053173828124999996
0.0523681640625
0.0555908203125
0.0555908203125
0.0523681640625
0.0539794921875
0.10957031249999999
0.054785156249999994
0.07734374999999999
0.053173828124999996
0.049951171875
0.056396484375
0.053173828124999996
0.0515625
0.0555908203125
0.053173828124999996
2.9181152343749996
3.0607177734374997
3.0631347656249996
3.059912109375
3.05830078125
3.0615234375
3.0607177734374997
3.0647460937499997
3.0631347656249996
2.9237548828124997
2.8544677734375
2.8915283203124997
2.7884033203125
2.6441894531249996
2.5160888671875
3.0623291015625
3.0631347656249996
3.0558837890625
3.0574951171875
2.1309814453125
0.0523681640625
1.5243164062499999
0.0515625
0.053173828124999996
0.0523681640625
0.0555908203125
0.053173828124999996
0.054785156249999994
0.0539794921875
0.0539794921875
0.0523681640625
0.062841796875
0.0475341796875
0.057202148437499996
0.06606445312499999
0.049145507812499996
0.054785156249999994
0.0523681640625
0.0515625
0.049145507812499996
0.053173828124999996
0.0523681640625
1.3857421875
3.0623291015625
3.0591064453124996
3.0647460937499997
3.0615234375
3.0615234375
3.0591064453124996
3.059912109375
3.0591064453124996
3.0478271484375
2.91328125
2.4121582031249997
2.7408691406249996
2.6546630859375
2.566845703125
3.0566894531249997
3.05830078125
3.0558837890625
3.0558837890625
3.059912109375
3.0542724609375
0.39638671875
0.0580078125
0.053173828124999996
0.0539794921875
0.053173828124999996
0.0515625
0.057202148437499996
0.056396484375
0.0523681640625
0.0515625
0.0523681640625
0.054785156249999994
0.054785156249999994
0.0708984375
0.0539794921875
0.0515625
0.053173828124999996
0.056396484375
0.053173828124999996
0.049951171875
0.0515625
0.0515625
2.8810546875
3.0591064453124996
3.0615234375
3.0566894531249997
3.0566894531249997
3.0591064453124996
3.0591064453124996
3.0591064453124996
3.0550781249999996
2.9181152343749996
2.4766113281249997
2.8423828125
2.6739990234374997
2.582958984375
3.0607177734374997
3.0566894531249997
3.0615234375
3.0550781249999996
3.0615234375
3.053466796875
1.46953125
0.0515625
0.054785156249999994
0.0539794921875
0.049951171875
0.0523681640625
0.0515625
0.0539794921875
0.04833984375
0.0523681640625
0.054785156249999994
0.0580078125
0.0539794921875
0.1071533203125
0.104736328125
0.0515625
0.0515625
0.054785156249999994
0.053173828124999996
0.054785156249999994
0.0515625
0.0555908203125
3.0591064453124996
3.0607177734374997
3.0574951171875
3.059912109375
3.0607177734374997
3.0591064453124996
3.0631347656249996
3.059912109375
3.05830078125
3.001904296875
2.5894042968749997
2.578125
2.68125
2.618408203125
2.5168945312499997
3.059912109375
3.059912109375
3.05830078125
3.0607177734374997
1.2028564453125
2.8222412109375
0.554296875
0.053173828124999996
0.0539794921875
0.049951171875
0.0539794921875
0.0523681640625
0.0539794921875
0.053173828124999996
0.053173828124999996
0.0523681640625
0.3037353515625
0.0620361328125
0.095068359375
0.095068359375
0.0684814453125
0.0555908203125
0.049951171875
0.0523681640625
0.056396484375
0.0515625
0.050756835937499994
1.5492919921875
3.0591064453124996
3.05830078125
3.0574951171875
3.059912109375
3.0566894531249997
3.0591064453124996
3.0615234375
3.0591064453124996
3.0591064453124996
2.9156982421874997
2.8230468749999997
2.6925292968749996
2.6490234375
2.5894042968749997
3.0574951171875
3.0623291015625
3.05830078125
3.059912109375
3.059912109375
3.0615234375
0.049951171875
0.0555908203125
0.0539794921875
0.0539794921875
0.059619140625
0.053173828124999996
0.053173828124999996
0.053173828124999996
0.0555908203125
0.0523681640625
0.054785156249999994
0.053173828124999996
0.08620605468749999
0.10151367187499999
0.07734374999999999
0.0523681640625
0.056396484375
0.0555908203125
0.054785156249999994
0.053173828124999996
0.054785156249999994
0.0539794921875
2.9583984374999996
3.0550781249999996
3.0615234375
3.0615234375
3.059912109375
3.059912109375
3.0623291015625
3.0486328124999997
3.059912109375
2.963232421875
2.6578857421874997
2.72958984375
2.6965576171874996
2.5475097656249996
3.0566894531249997
3.05830078125
3.0591064453124996
3.0566894531249997
3.0591064453124996
3.0615234375
0.053173828124999996
0.0515625
0.0523681640625
0.053173828124999996
0.057202148437499996
0.054785156249999994
0.0523681640625
0.054785156249999994
0.0539794921875
0.053173828124999996
0.04833984375
0.2747314453125
0.0580078125
0.0878173828125
0.053173828124999996
0.058813476562499994
0.0580078125
0.053173828124999996
0.0555908203125
0.056396484375
0.0523681640625
0.0523681640625
3.0615234375
3.059912109375
3.053466796875
3.0655517578125
3.05830078125
3.05830078125
3.0639404296875
3.0574951171875
3.0591064453124996
2.9559814453124997
3.05830078125
2.6562744140624996
2.808544921875
2.66513671875
2.860107421875
3.05830078125
3.0631347656249996
3.0574951171875
3.0615234375
2.9044189453125
3.0591064453124996
0.053173828124999996
0.0523681640625
0.054785156249999994
0.049951171875
0.04833984375
0.053173828124999996
0.053173828124999996
0.053173828124999996
0.0523681640625
0.053173828124999996
0.059619140625
0.16677246093749998
0.1007080078125
0.0910400390625
0.0515625
0.053173828124999996
0.053173828124999996
0.053173828124999996
0.053173828124999996
0.050756835937499994
0.053173828124999996
1.3962158203125
3.0615234375
3.0566894531249997
3.0558837890625
3.0631347656249996
3.0615234375
3.059912109375
3.0574951171875
3.0558837890625
3.0566894531249997
2.921337890625
3.0607177734374997
2.7424804687499997
2.663525390625
2.60712890625
3.0591064453124996
3.05830078125
3.05830078125
3.0558837890625
3.05830078125
0.5309326171875
0.0515625
0.057202148437499996
0.0539794921875
0.0523681640625
0.053173828124999996
0.053173828124999996
0.057202148437499996
0.049145507812499996
0.04833984375
0.0515625
0.053173828124999996
0.053173828124999996
0.0523681640625
0.0555908203125
0.0539794921875
0.0523681640625
0.053173828124999996
0.049951171875
0.0523681640625
0.0539794921875
0.054785156249999994
0.049951171875
3.05830078125
3.0591064453124996
3.0607177734374997
3.0591064453124996
3.0647460937499997
3.05185546875
3.0623291015625
3.0574951171875
3.0639404296875
2.9140869140624996
2.7569824218749996
2.7046142578124996
2.7328124999999996
2.5571777343749997
3.05830078125
3.0615234375
3.0566894531249997
3.0558837890625
3.0615234375
3.059912109375
2.4081298828124997
0.0555908203125
0.0539794921875
0.053173828124999996
0.053173828124999996
0.0523681640625
0.0539794921875
0.054785156249999994
0.0515625
0.0523681640625
0.0515625
0.059619140625
0.103125
0.069287109375
0.054785156249999994
0.059619140625
0.053173828124999996
0.0555908203125
0.0523681640625
0.053173828124999996
0.0539794921875
0.0523681640625
3.05830078125
3.059912109375
3.0607177734374997
3.0591064453124996
3.0615234375
3.0591064453124996
3.0607177734374997
3.0550781249999996
3.0325195312499997
3.0397705078125
3.0333251953125
2.985791015625
2.78759765625
2.65869140625
3.05830078125
3.059912109375
3.0623291015625
3.0591064453124996
3.05830078125
0.8757568359375
3.0591064453124996
0.143408203125
0.0523681640625
0.050756835937499994
0.054785156249999994
0.049145507812499996
0.056396484375
0.049951171875
0.0539794921875
0.050756835937499994
0.049145507812499996
0.056396484375
0.053173828124999996
0.049145507812499996
0.053173828124999996
0.054785156249999994
0.054785156249999994
0.053173828124999996
0.053173828124999996
0.056396484375
0.053173828124999996
0.050756835937499994
2.8560791015625
3.0615234375
3.0607177734374997
3.05830078125
3.0647460937499997
3.0591064453124996
3.0623291015625
3.05830078125
3.0623291015625
3.027685546875
2.8625244140625
2.8447998046875
2.7344238281249997
2.6135742187499997
2.4854736328125
3.0574951171875
3.0566894531249997
3.059912109375
3.0574951171875
1.587158203125
0.0523681640625
1.5968261718749999
0.050756835937499994
0.0555908203125
0.0539794921875
0.056396484375
0.0515625
0.0539794921875
0.0523681640625
0.0539794921875
0.053173828124999996
0.054785156249999994
0.053173828124999996
0.0523681640625
0.053173828124999996
0.053173828124999996
0.053173828124999996
0.0555908203125
0.0539794921875
0.0523681640625
0.0515625
0.0539794921875
0.8588378906249999
3.0574951171875
3.0615234375
3.0591064453124996
3.0574951171875
3.0607177734374997
3.059912109375
3.0615234375
3.05830078125
3.0607177734374997
2.9044189453125
2.40087890625
2.7666503906249997
2.6498291015624997
2.5644287109375
3.0591064453124996
3.059912109375
3.0591064453124996
3.0623291015625
3.059912109375
3.0591064453124996
0.0555908203125
0.053173828124999996
0.0539794921875
0.0539794921875
0.0539794921875
0.049145507812499996
0.050756835937499994
0.049145507812499996
0.053173828124999996
0.0539794921875
0.053173828124999996
0.31743164062499996
0.1426025390625
0.104736328125
0.10231933593749999
0.053173828124999996
0.0515625
0.053173828124999996
0.053173828124999996
0.049951171875
0.053173828124999996
0.0523681640625
3.059912109375
3.0607177734374997
3.0631347656249996
3.0623291015625
3.0639404296875
3.05830078125
3.059912109375
3.0574951171875
3.059912109375
2.977734375
2.3783203125
2.769873046875
2.6788330078125
2.591015625
3.0607177734374997
3.0591064453124996
3.059912109375
3.0566894531249997
3.0566894531249997
3.0591064453124996
1.0465576171875
0.050756835937499994
0.054785156249999994
0.04833984375
0.0539794921875
0.053173828124999996
0.049145507812499996
0.0515625
0.054785156249999994
0.0523681640625
0.0555908203125
0.09748535156249999
0.0523681640625
0.0539794921875
0.054785156249999994
0.0523681640625
0.0523681640625
0.0523681640625
0.050756835937499994
0.053173828124999996
0.053173828124999996
0.054785156249999994
3.0631347656249996
3.05830078125
3.059912109375
3.059912109375
3.0623291015625
3.0639404296875
3.0550781249999996
3.0591064453124996
3.0591064453124996
2.8657470703124996
2.7336181640625
2.56201171875
2.721533203125
2.6466064453125
2.5757080078124996
3.059912109375
3.0591064453124996
3.0615234375
3.05830078125
3.059912109375
3.05830078125
0.9804931640625
0.0523681640625
0.054785156249999994
0.053173828124999996
0.0515625
0.0515625
0.049951171875
0.049145507812499996
0.0539794921875
0.053173828124999996
0.388330078125
0.103125
0.120849609375
0.12568359375
0.1087646484375
0.056396484375
0.049951171875
0.053173828124999996
0.053173828124999996
0.053173828124999996
0.04833984375
1.690283203125
3.0591064453124996
3.0558837890625
3.0607177734374997
3.059912109375
3.0607177734374997
3.0591064453124996
3.05830078125
3.0591064453124996
2.9318115234374997
2.91650390625
2.9302001953124996
2.7005859374999996
2.5894042968749997
2.5515380859374996
3.059912109375
3.059912109375
3.0591064453124996
3.059912109375
3.0566894531249997
2.3783203125
0.054785156249999994
0.053173828124999996
0.0580078125
0.053173828124999996
0.0555908203125
0.053173828124999996
0.04833984375
0.0523681640625
0.0523681640625
0.053173828124999996
0.0539794921875
0.12890625
0.064453125
0.0523681640625
0.0515625
0.053173828124999996
0.053173828124999996
0.053173828124999996
0.0523681640625
0.0523681640625
0.053173828124999996
0.0523681640625
3.0550781249999996
3.0607177734374997
3.0574951171875
3.059912109375
3.0623291015625
3.0591064453124996
3.059912109375
3.02607421875
3.0566894531249997
2.8593017578124997
3.0639404296875
2.6498291015624997
2.640966796875
2.578125
3.0574951171875
3.0591064453124996
3.05830078125
3.0623291015625
3.0591064453124996
3.0615234375
3.05830078125
0.050756835937499994
0.0523681640625
0.0515625
0.0539794921875
0.049145507812499996
0.053173828124999996
0.046728515624999994
0.054785156249999994
0.0515625
0.053173828124999996
0.149853515625
0.0515625
0.088623046875
0.057202148437499996
0.0539794921875
0.053173828124999996
0.0555908203125
0.0523681640625
0.0523681640625
0.053173828124999996
0.0523681640625
3.0510498046874996
3.0631347656249996
3.059912109375
3.0591064453124996
3.0558837890625
3.0615234375
3.059912109375
3.0591064453124996
3.0615234375
2.9962646484374997
3.059912109375
2.7722900390625
2.7561767578125
2.5491210937499997
3.0558837890625
3.059912109375
3.0607177734374997
3.0631347656249996
3.0558837890625
2.462109375
3.059912109375
0.20463867187499998
0.0555908203125
0.049951171875
0.053173828124999996
0.053173828124999996
0.053173828124999996
0.054785156249999994
0.053173828124999996
0.0539794921875
0.056396484375
0.053173828124999996
0.1393798828125
0.0555908203125
0.050756835937499994
0.0515625
0.0523681640625
0.053173828124999996
0.0523681640625
0.053173828124999996
0.049951171875
0.0539794921875
1.6830322265625
3.0623291015625
3.0574951171875
3.059912109375
3.05830078125
3.059912109375
3.05830078125
3.05830078125
3.05830078125
2.8931396484375
2.9326171875
3.0607177734374997
2.763427734375
2.6562744140624996
2.5595947265624996
3.0591064453124996
3.059912109375
3.0591064453124996
3.05830078125
3.0623291015625
0.19013671875
0.9837158203124999
0.057202148437499996
0.053173828124999996
0.054785156249999994
0.057202148437499996
0.0539794921875
0.053173828124999996
0.053173828124999996
0.0515625
0.0515625
0.0539794921875
0.053173828124999996
0.0652587890625
0.104736328125
0.056396484375
0.053173828124999996
0.0523681640625
0.053173828124999996
0.054785156249999994
0.056396484375
0.053173828124999996
0.2972900390625
3.0566894531249997
3.0623291015625
3.0566894531249997
3.0591064453124996
3.0574951171875
3.05830078125
3.059912109375
3.059912109375
3.05830078125
2.8359375
2.5168945312499997
2.7271728515625
2.69091796875
2.5716796874999996
3.05830078125
3.059912109375
3.0558837890625
3.0591064453124996
3.0558837890625
3.0607177734374997
1.66611328125
0.053173828124999996
0.0523681640625
0.0515625
0.053173828124999996
0.0539794921875
0.0523681640625
0.056396484375
0.0523681640625
0.0555908203125
0.056396484375
0.0539794921875
0.06606445312499999
0.0555908203125
0.053173828124999996
0.0523681640625
0.056396484375
0.049951171875
0.04833984375
0.053173828124999996
0.049951171875
0.0523681640625
3.0623291015625
3.05830078125
3.05830078125
3.0607177734374997
3.0631347656249996
3.0607177734374997
2.9825683593749996
3.0607177734374997
3.0591064453124996
2.9277832031249997
3.0550781249999996
2.88427734375
2.7328124999999996
2.592626953125
3.0566894531249997
3.0574951171875
3.0591064453124996
3.059912109375
3.0591064453124996
0.8507812499999999
3.0607177734374997
0.1941650390625
0.0523681640625
0.0539794921875
0.054785156249999994
0.041088867187499996
0.0539794921875
0.053173828124999996
0.053173828124999996
0.0539794921875
0.053173828124999996
0.0523681640625
0.0555908203125
0.0539794921875
0.104736328125
0.054785156249999994
0.054785156249999994
0.056396484375
0.054785156249999994
0.0555908203125
0.053173828124999996
0.054785156249999994
2.7585937499999997
3.059912109375
3.0591064453124996
3.0607177734374997
3.059912109375
3.0615234375
3.0591064453124996
3.0615234375
3.059912109375
2.99384765625
2.802099609375
2.7416748046875
2.785986328125
2.65869140625
2.5394531249999996
3.0591064453124996
3.05830078125
3.05830078125
3.059912109375
1.35673828125
0.053173828124999996
1.5299560546875
0.0515625
0.049951171875
0.0523681640625
0.0515625
0.0515625
0.056396484375
0.0539794921875
0.0523681640625
0.0515625
0.046728515624999994
0.053173828124999996
0.056396484375
0.054785156249999994
0.0523681640625
0.050756835937499994
0.049145507812499996
0.0539794921875
0.0523681640625
0.0539794921875
0.053173828124999996
2.5402587890625
3.0631347656249996
3.0607177734374997
3.0574951171875
3.059912109375
3.0631347656249996
3.0550781249999996
3.059912109375
3.0615234375
3.059912109375
2.8657470703124996
2.4693603515625
2.7416748046875
2.6385498046875
2.5612060546874997
3.0607177734374997
3.0615234375
3.0591064453124996
3.0623291015625
3.0607177734374997
3.05830078125
0.053173828124999996
0.053173828124999996
0.053173828124999996
0.054785156249999994
0.049951171875
0.0523681640625
0.0539794921875
0.053173828124999996
0.0523681640625
0.053173828124999996
0.054785156249999994
0.050756835937499994
0.053173828124999996
0.054785156249999994
0.0539794921875
0.0523681640625
0.0539794921875
0.049145507812499996
0.056396484375
0.0539794921875
0.0515625
0.053173828124999996
3.059912109375
3.05830078125
3.059912109375
3.0607177734374997
3.0631347656249996
3.0558837890625
3.0574951171875
3.0591064453124996
3.0566894531249997
3.0027099609374996
2.3275634765624997
2.7481201171875
2.65546875
2.5450927734374997
3.0615234375
3.0591064453124996
3.0574951171875
3.05830078125
3.0623291015625
3.059912109375
0.7774658203125
0.0523681640625
0.056396484375
0.0539794921875
0.054785156249999994
0.0523681640625
0.054785156249999994
0.053173828124999996
0.0539794921875
0.0555908203125
0.0539794921875
0.143408203125
0.0523681640625
0.0708984375
0.057202148437499996
0.04833984375
0.053173828124999996
0.0523681640625
0.0515625
0.0523681640625
0.056396484375
0.054785156249999994
3.059912109375
3.059912109375
3.0558837890625
3.0647460937499997
3.0607177734374997
3.0631347656249996
3.059912109375
3.0591064453124996
3.0631347656249996
2.9970703125
2.73603515625
2.5475097656249996
2.7046142578124996
2.5982666015625
2.5410644531249997
3.0607177734374997
3.0574951171875
3.0591064453124996
3.0558837890625
3.0470214843749996
3.05830078125
0.5607421874999999
0.053173828124999996
0.0539794921875
0.057202148437499996
0.0523681640625
0.0555908203125
0.0523681640625
0.0523681640625
0.0620361328125
0.0523681640625
0.249755859375
0.054785156249999994
0.0515625
0.053173828124999996
0.049145507812499996
0.049951171875
0.054785156249999994
0.0539794921875
0.0475341796875
0.0523681640625
0.0555908203125
1.4308593749999998
3.0623291015625
3.0615234375
3.0615234375
3.0607177734374997
3.0615234375
3.0526611328124997
3.05830078125
3.0591064453124996
3.05830078125
2.8754150390624997
3.0550781249999996
2.7175048828125
2.6353271484375
2.55234375
3.0615234375
3.0615234375
3.0623291015625
3.05830078125
3.05830078125
2.5934326171874997
0.0580078125
0.0555908203125
0.056396484375
0.0515625
0.053173828124999996
0.0523681640625
0.049951171875
0.049145507812499996
0.053173828124999996
0.054785156249999994
0.053173828124999996
0.0539794921875
0.056396484375
0.054785156249999994
0.053173828124999996
0.0523681640625
0.0539794921875
0.0523681640625
0.050756835937499994
0.053173828124999996
0.0515625
0.050756835937499994
3.059912109375
3.0623291015625
3.0591064453124996
3.0639404296875
3.05830078125
3.06796875
3.059912109375
3.0566894531249997
3.0566894531249997
2.9592041015625
2.8915283203124997
2.7755126953125
2.784375
2.6627197265625
3.0615234375
3.0558837890625
3.05830078125
3.0591064453124996
3.0591064453124996
3.0591064453124996
3.05830078125
0.0523681640625
0.053173828124999996
0.0539794921875
0.0555908203125
0.0539794921875
0.0523681640625
0.053173828124999996
0.053173828124999996
0.056396484375
0.0515625
0.2054443359375
0.07734374999999999
0.08620605468749999
0.088623046875
0.053173828124999996
0.0523681640625
0.0523681640625
0.0523681640625
0.0539794921875
0.049951171875
0.0515625
3.059912109375
3.0623291015625
3.0550781249999996
3.05830078125
3.059912109375
3.059912109375
3.0566894531249997
3.059912109375
3.0591064453124996
2.9664550781249996
3.059912109375
2.779541015625
2.824658203125
2.624853515625
3.0591064453124996
3.0591064453124996
3.059912109375
3.05830078125
3.05830078125
2.3984619140625
3.059912109375
0.3117919921875
0.0539794921875
0.054785156249999994
0.053173828124999996
0.0539794921875
0.0523681640625
0.053173828124999996
0.0523681640625
0.056396484375
0.054785156249999994
0.050756835937499994
0.0555908203125
0.049951171875
0.057202148437499996
0.050756835937499994
0.053173828124999996
0.053173828124999996
0.053173828124999996
0.049145507812499996
0.0523681640625
0.049145507812499996
1.670947265625
3.0607177734374997
3.0591064453124996
3.0558837890625
3.0591064453124996
3.059912109375
3.0591064453124996
3.05830078125
3.0558837890625
3.0591064453124996
2.9237548828124997
3.0615234375
2.721533203125
2.640966796875
2.5330078124999997
3.0631347656249996
3.059912109375
3.05830078125
3.0591064453124996
3.05830078125
0.050756835937499994
0.36416015625
0.049951171875
0.054785156249999994
0.053173828124999996
0.0555908203125
0.0539794921875
0.049951171875
0.0523681640625
0.046728515624999994
0.054785156249999994
0.053173828124999996
0.049951171875
0.0523681640625
0.08137207031249999
0.053173828124999996
0.0515625
0.056396484375
0.0539794921875
0.053173828124999996
0.054785156249999994
0.053173828124999996
0.0539794921875
3.059912109375
3.0591064453124996
3.0574951171875
3.0615234375
3.0615234375
3.0607177734374997
3.05830078125
3.0623291015625
3.0591064453124996
2.8802490234375
2.4613037109375
2.7021972656249997
2.6707763671875
2.5434814453124996
3.0623291015625
3.059912109375
3.059912109375
3.0574951171875
3.059912109375
3.05830078125
1.60166015625
0.053173828124999996
0.0523681640625
0.0523681640625
0.054785156249999994
0.050756835937499994
0.053173828124999996
0.053173828124999996
0.0523681640625
0.0523681640625
0.053173828124999996
0.053173828124999996
0.08056640625
0.056396484375
0.053173828124999996
0.0555908203125
0.058813476562499994
0.056396484375
0.049145507812499996
0.053173828124999996
0.0539794921875
0.0539794921875
3.059912109375
3.059912109375
3.0623291015625
3.05830078125
3.0591064453124996
3.05830078125
3.0615234375
3.0623291015625
3.0591064453124996
3.0405761718749997
2.8681640625
2.882666015625
2.69736328125
2.5813476562499997
3.059912109375
3.0615234375
3.0566894531249997
3.0647460937499997
3.0623291015625
0.9788818359375
3.066357421875
0.2650634765625
0.053173828124999996
0.0523681640625
0.0515625
0.053173828124999996
0.057202148437499996
0.0539794921875
0.053173828124999996
0.0539794921875
0.0515625
0.053173828124999996
0.053173828124999996
0.053173828124999996
0.053173828124999996
0.053173828124999996
0.053173828124999996
0.049145507812499996
0.053173828124999996
0.0523681640625
0.050756835937499994
0.0523681640625
3.0607177734374997
3.0631347656249996
3.05830078125
3.0550781249999996
3.0631347656249996
3.0631347656249996
3.0615234375
3.0566894531249997
3.0591064453124996
2.9020019531249996
2.7964599609375
2.7585937499999997
2.719921875
2.6216308593749997
2.5322021484375
3.0566894531249997
3.0615234375
3.0591064453124996
3.0615234375
1.1367919921875
0.0523681640625
1.5057861328125
0.056396484375
0.0523681640625
0.0555908203125
0.0523681640625
0.050756835937499994
0.053173828124999996
0.053173828124999996
0.0555908203125
0.050756835937499994
0.0539794921875
0.0459228515625
0.0515625
0.1329345703125
0.0523681640625
0.053173828124999996
0.0539794921875
0.0523681640625
0.054785156249999994
0.054785156249999994
0.053173828124999996
2.6860839843749997
3.0623291015625
3.0615234375
3.0591064453124996
3.059912109375
3.0574951171875
3.059912109375
3.059912109375
2.9044189453125
3.0550781249999996
2.92939453125
2.616796875
2.8053222656249996
2.7021972656249997
2.6321044921874996
3.0615234375
3.0574951171875
3.0607177734374997
3.0607177734374997
3.059912109375
3.059912109375
0.0515625
0.054785156249999994
0.049951171875
0.0523681640625
0.053173828124999996
0.0515625
0.0539794921875
0.0515625
0.057202148437499996
0.0523681640625
0.0523681640625
0.28037109374999997
0.0652587890625
0.07009277343749999
0.057202148437499996
0.0555908203125
0.056396484375
0.0539794921875
0.0539794921875
0.053173828124999996
0.0523681640625
0.053173828124999996
3.0574951171875
3.0566894531249997
3.0558837890625
3.0607177734374997
3.059912109375
3.0591064453124996
3.0623291015625
3.05830078125
3.0574951171875
2.98740234375
2.373486328125
2.7344238281249997
2.6466064453125
2.608740234375
3.0639404296875
3.0591064453124996
3.0607177734374997
3.059912109375
3.059912109375
3.05830078125
3.0429931640624996
0.054785156249999994
0.054785156249999994
0.053173828124999996
0.0523681640625
0.0523681640625
0.053173828124999996
0.053173828124999996
0.0555908203125
0.0515625
0.0539794921875
0.0966796875
0.0515625
0.0515625
0.054785156249999994
0.0523681640625
0.056396484375
0.0539794921875
0.053173828124999996
0.0515625
0.0523681640625
0.049145507812499996
2.5458984375
3.0591064453124996
3.0615234375
3.05830078125
3.0607177734374997
3.0623291015625
3.0623291015625
3.059912109375
3.059912109375
3.0566894531249997
2.866552734375
2.647412109375
2.7779296875
2.666748046875
2.5853759765624997
3.0591064453124996
3.0631347656249996
3.0607177734374997
3.0711914062499996
3.0591064453124996
3.0591064453124996
0.610693359375
0.0539794921875
0.049951171875
0.0515625
0.0580078125
0.053173828124999996
0.054785156249999994
0.0515625
0.054785156249999994
0.0539794921875
0.281982421875
0.053173828124999996
0.0523681640625
0.0604248046875
0.053173828124999996
0.0515625
0.0539794921875
0.053173828124999996
0.054785156249999994
0.0523681640625
0.17885742187499998
1.980322265625
3.059912109375
3.059912109375
3.0615234375
3.0574951171875
3.0591064453124996
3.0607177734374997
3.0607177734374997
3.0574951171875
2.9277832031249997
2.9438964843749997
3.0252685546875
2.7626220703124997
2.6723876953124996
2.6103515625
3.0574951171875
3.0574951171875
3.059912109375
3.05830078125
3.059912109375
2.1946289062499997
0.0539794921875
0.0555908203125
0.0523681640625
0.0555908203125
0.053173828124999996
0.053173828124999996
0.049951171875
0.0515625
0.0539794921875
0.054785156249999994
0.056396484375
0.0555908203125
0.054785156249999994
0.054785156249999994
0.0515625
0.050756835937499994
0.054785156249999994
0.0523681640625
0.0539794921875
0.0523681640625
0.053173828124999996
0.0523681640625
3.059912109375
3.0591064453124996
3.0607177734374997
3.059912109375
3.0647460937499997
3.0615234375
3.05830078125
3.0550781249999996
3.0607177734374997
2.9882080078124997
3.059912109375
2.7166992187499996
2.7569824218749996
2.6208251953125
3.05830078125
3.043798828125
3.059912109375
3.0566894531249997
3.0607177734374997
3.0566894531249997
3.059912109375
0.16838378906249998
0.053173828124999996
0.053173828124999996
0.0539794921875
0.0539794921875
0.046728515624999994
0.056396484375
0.053173828124999996
0.053173828124999996
0.0539794921875
0.1071533203125
0.053173828124999996
0.0708984375
0.056396484375
0.0523681640625
0.0539794921875
0.0539794921875
0.0523681640625
0.049951171875
0.056396484375
0.053173828124999996
3.0591064453124996
3.059912109375
3.0591064453124996
3.0607177734374997
3.0591064453124996
3.059912109375
3.0607177734374997
3.059912109375
3.05830078125
2.9398681640624997
3.0566894531249997
2.81015625
2.7730957031249996
2.5877929687499996
3.0607177734374997
3.0591064453124996
3.0607177734374997
3.0591064453124996
3.059912109375
2.312255859375
3.05830078125
0.053173828124999996
0.049951171875
0.050756835937499994
0.0555908203125
0.0523681640625
0.053173828124999996
0.0515625
0.053173828124999996
0.0523681640625
0.054785156249999994
0.054785156249999994
0.15227050781249998
0.059619140625
0.120849609375
0.053173828124999996
0.050756835937499994
0.053173828124999996
0.053173828124999996
0.0523681640625
0.053173828124999996
0.053173828124999996
1.8224121093749999
3.05830078125
3.05830078125
3.0591064453124996
3.0615234375
3.0591064453124996
3.059912109375
3.0615234375
3.0607177734374997
2.8552734374999997
2.9181152343749996
3.0607177734374997
2.784375
2.6691650390625
2.5797363281249996
3.0607177734374997
3.059912109375
3.05830078125
3.059912109375
3.0615234375
0.053173828124999996
0.936181640625
0.0555908203125
0.0515625
0.0555908203125
0.0523681640625
0.053173828124999996
0.053173828124999996
0.053173828124999996
0.0555908203125
0.050756835937499994
0.053173828124999996
0.053173828124999996
0.0523681640625
0.0555908203125
0.0580078125
0.0539794921875
0.056396484375
0.057202148437499996
0.053173828124999996
0.054785156249999994
0.0539794921875
0.45761718749999997
3.0607177734374997
3.0615234375
3.05830078125
3.0631347656249996
3.0591064453124996
3.0615234375
3.059912109375
3.0607177734374997
3.0615234375
2.8874999999999997
2.5201171875
2.7521484375
2.7247558593749996
2.608740234375
3.0623291015625
3.0591064453124996
3.059912109375
3.0550781249999996
3.0591064453124996
3.0574951171875
1.4800048828124999
0.049951171875
0.057202148437499996
0.054785156249999994
0.0555908203125
0.053173828124999996
0.053173828124999996
0.050756835937499994
0.054785156249999994
0.049951171875
0.0523681640625
0.050756835937499994
0.0539794921875
0.0539794921875
0.061230468749999996
0.059619140625
0.053173828124999996
0.054785156249999994
0.054785156249999994
0.049951171875
0.053173828124999996
0.053173828124999996
3.0647460937499997
3.0591064453124996
3.069580078125
3.0574951171875
3.0623291015625
3.05830078125
3.0566894531249997
3.05830078125
3.0591064453124996
3.0574951171875
2.9785400390624996
2.931005859375
2.737646484375
2.6047119140625
3.0558837890625
3.0591064453124996
3.0607177734374997
3.0607177734374997
3.0607177734374997
1.0409179687499999
2.8794433593749997
0.053173828124999996
0.0523681640625
0.0555908203125
0.0523681640625
0.0515625
0.053173828124999996
0.0539794921875
0.053173828124999996
0.049145507812499996
0.053173828124999996
0.050756835937499994
0.0555908203125
0.107958984375
0.08217773437499999
0.0539794921875
0.056396484375
0.0523681640625
0.0523681640625
0.053173828124999996
0.0523681640625
0.050756835937499994
3.0631347656249996
3.05830078125
3.0615234375
3.059912109375
3.0550781249999996
3.059912109375
3.0607177734374997
3.0550781249999996
3.05830078125
2.9849853515625
2.6522460937499996
2.6538574218749997
2.7505371093749997
2.6272705078125
2.5354248046874996
3.059912109375
3.0615234375
3.0615234375
3.0623291015625
0.9869384765625
0.061230468749999996
1.5347900390625
0.0523681640625
0.0555908203125
0.054785156249999994
0.0539794921875
0.053173828124999996
0.053173828124999996
0.0523681640625
0.0523681640625
0.049951171875
0.062841796875
0.0523681640625
0.0523681640625
0.053173828124999996
0.053173828124999996
0.053173828124999996
0.054785156249999994
0.054785156249999994
0.0523681640625
0.0523681640625
0.054785156249999994
1.6967285156249998
3.05830078125
3.0615234375
3.0631347656249996
3.0558837890625
3.0550781249999996
3.0591064453124996
3.0550781249999996
3.027685546875
3.059912109375
2.882666015625
2.5515380859374996
2.771484375
2.689306640625
2.6224365234375
3.0574951171875
3.0558837890625
3.05830078125
3.0623291015625
3.053466796875
3.0607177734374997
0.050756835937499994
0.0539794921875
0.046728515624999994
0.0523681640625
0.0523681640625
0.0523681640625
0.049145507812499996
0.0523681640625
0.050756835937499994
0.0515625
0.0555908203125
0.18369140625
0.0910400390625
0.07734374999999999
0.07734374999999999
0.0523681640625
0.0580078125
0.049951171875
0.049951171875
0.0539794921875
0.0523681640625
0.053173828124999996
3.0558837890625
3.05830078125
3.0623291015625
3.0607177734374997
3.0550781249999996
3.0591064453124996
3.059912109375
2.9624267578124996
2.9543701171874996
2.9882080078124997
3.0615234375
2.760205078125
2.6844726562499996
2.6441894531249996
3.0591064453124996
3.05830078125
3.0574951171875
3.0550781249999996
3.0591064453124996
3.05830078125
3.059912109375
0.056396484375
0.0523681640625
0.049951171875
0.0555908203125
0.054785156249999994
0.0555908203125
0.0539794921875
0.053173828124999996
0.053173828124999996
0.053173828124999996
0.270703125
0.06767578125
0.1119873046875
0.0797607421875
0.0523681640625
0.04833984375
0.0523681640625
0.053173828124999996
0.049951171875
0.053173828124999996
0.0523681640625
3.059912109375
3.059912109375
3.05830078125
3.059912109375
3.0631347656249996
3.0607177734374997
3.0623291015625
3.05830078125
3.0574951171875
2.9181152343749996
3.011572265625
2.6377441406249997
2.7561767578125
2.6119628906249996
2.5370361328124997
3.05830078125
3.0615234375
3.059912109375
3.0591064453124996
3.059912109375
3.059912109375
0.6654785156249999
0.054785156249999994
0.049145507812499996
0.053173828124999996
0.0515625
0.054785156249999994
0.0539794921875
0.0555908203125
0.0515625
0.046728515624999994
0.057202148437499996
0.0539794921875
0.053173828124999996
0.0515625
0.0523681640625
0.064453125
0.0523681640625
0.053173828124999996
0.0555908203125
0.0555908203125
0.14501953125
0.8177490234375
3.0607177734374997
3.0591064453124996
3.0574951171875
3.059912109375
3.0566894531249997
3.0655517578125
3.0591064453124996
3.0607177734374997
3.0615234375
2.9221435546874996
3.05830078125
2.727978515625
2.666748046875
2.6417724609374997
3.05830078125
3.059912109375
3.0607177734374997
3.0566894531249997
3.0566894531249997
1.6669189453125
0.053173828124999996
0.0539794921875
0.056396484375
0.0539794921875
0.050756835937499994
0.04833984375
0.0523681640625
0.0523681640625
0.0539794921875
0.0523681640625
0.059619140625
0.053173828124999996
0.1071533203125
0.0829833984375
0.054785156249999994
0.053173828124999996
0.054785156249999994
0.049951171875
0.053173828124999996
0.0580078125
0.0555908203125
0.053173828124999996
3.0566894531249997
3.0639404296875
3.0550781249999996
3.0574951171875
3.0615234375
3.0591064453124996
3.0615234375
3.0623291015625
3.059912109375
2.956787109375
3.037353515625
2.8037109375
2.7577880859375
2.615185546875
3.0607177734374997
3.05830078125
3.0566894531249997
3.0591064453124996
3.0591064453124996
3.0574951171875
3.0615234375
0.053173828124999996
0.0539794921875
0.057202148437499996
0.053173828124999996
0.0539794921875
0.0539794921875
0.0555908203125
0.053173828124999996
0.0523681640625
0.0475341796875
0.054785156249999994
0.059619140625
0.07734374999999999
0.0580078125
0.053173828124999996
0.0515625
0.054785156249999994
0.053173828124999996
0.053173828124999996
0.053173828124999996
0.0523681640625
3.0591064453124996
3.059912109375
3.0631347656249996
3.059912109375
3.0623291015625
3.059912109375
3.0591064453124996
3.0631347656249996
3.059912109375
2.953564453125
3.0574951171875
2.8778320312499996
2.7336181640625
2.6135742187499997
3.0558837890625
3.059912109375
3.05830078125
3.0591064453124996
3.0591064453124996
1.6201904296874998
0.049951171875
0.23203125
0.06767578125
0.0523681640625
0.0539794921875
0.049951171875
0.0555908203125
0.056396484375
0.053173828124999996
0.053173828124999996
0.050756835937499994
0.050756835937499994
0.0515625
0.054785156249999994
0.0523681640625
0.0523681640625
0.0523681640625
0.049951171875
0.053173828124999996
0.053173828124999996
0.0523681640625
0.0539794921875
2.0761962890625
3.05830078125
3.05830078125
3.05830078125
3.0615234375
3.059912109375
3.0607177734374997
3.0542724609375
3.05830078125
3.0591064453124996
2.9237548828124997
3.0446044921874997
2.7610107421874996
2.6820556640624997
2.592626953125
3.059912109375
2.98095703125
3.059912109375
3.0591064453124996
3.059912109375
0.053173828124999996
1.0489746093749999
0.0515625
0.056396484375
0.0523681640625
0.057202148437499996
0.050756835937499994
0.0515625
0.0539794921875
0.053173828124999996
0.053173828124999996
0.0515625
0.053173828124999996
0.10554199218749999
0.1168212890625
0.0652587890625
0.0523681640625
0.0523681640625
0.058813476562499994
0.053173828124999996
0.053173828124999996
0.0523681640625
0.8628662109374999
3.059912109375
3.0607177734374997
3.0591064453124996
3.05830078125
3.0607177734374997
3.059912109375
3.0631347656249996
3.0607177734374997
3.0607177734374997
2.9140869140624996
2.4524414062499997
2.866552734375
2.7722900390625
2.67158203125
3.0615234375
3.0574951171875
3.0591064453124996
3.0607177734374997
3.0574951171875
3.0615234375
1.2624755859374999
0.0515625
0.0515625
0.053173828124999996
0.049145507812499996
0.0523681640625
0.0523681640625
0.053173828124999996
0.0523681640625
0.0523681640625
0.053173828124999996
0.0636474609375
0.062841796875
0.0523681640625
0.0765380859375
0.0523681640625
0.0515625
0.053173828124999996
0.0539794921875
0.050756835937499994
0.0539794921875
0.053173828124999996
3.059912109375
3.0615234375
3.059912109375
3.0591064453124996
3.0607177734374997
3.0631347656249996
3.0591064453124996
3.0591064453124996
3.0615234375
2.9011962890625
2.6224365234375
2.924560546875
2.6941406249999997
2.6482177734374996
3.0574951171875
3.059912109375
3.0558837890625
3.0607177734374997
3.0615234375
1.4961181640624999
3.0010986328125
0.127294921875
0.053173828124999996
0.049145507812499996
0.0523681640625
0.054785156249999994
0.053173828124999996
0.053173828124999996
0.049951171875
0.0515625
0.0523681640625
0.1699951171875
0.0523681640625
0.0523681640625
0.0555908203125
0.0555908203125
0.0523681640625
0.0515625
0.053173828124999996
0.0523681640625
0.0515625
0.049951171875
2.6997802734375
3.0591064453124996
3.0615234375
3.0591064453124996
3.0574951171875
3.0566894531249997
3.0566894531249997
3.0623291015625
3.0615234375
3.0607177734374997
2.70380859375
2.75537109375
2.8391601562499997
2.7183105468749997
2.59423828125
3.059912109375
3.0607177734374997
3.0591064453124996
3.0639404296875
3.0566894531249997
2.98095703125
1.15048828125
0.054785156249999994
0.049145507812499996
0.053173828124999996
0.0523681640625
0.0523681640625
0.056396484375
0.053173828124999996
0.053173828124999996
0.049145507812499996
0.1635498046875
0.0523681640625
0.0684814453125
0.09023437499999999
0.053173828124999996
0.0515625
0.049951171875
0.053173828124999996
0.0539794921875
0.0523681640625
0.056396484375
2.047998046875
3.0421875
3.0591064453124996
3.059912109375
3.0607177734374997
3.0639404296875
3.05830078125
3.059912109375
2.9302001953124996
2.963232421875
2.8874999999999997
2.6949462890625
2.753759765625
2.7013916015625
2.6039062499999996
3.05830078125
3.0558837890625
3.059912109375
3.059912109375
3.05830078125
3.059912109375
0.050756835937499994
0.0620361328125
0.053173828124999996
0.0515625
0.0539794921875
0.056396484375
0.049145507812499996
0.04833984375
0.0523681640625
0.0555908203125
0.054785156249999994
0.136962890625
0.054785156249999994
0.0539794921875
0.053173828124999996
0.056396484375
0.0539794921875
0.053173828124999996
0.0539794921875
0.0539794921875
0.0539794921875
0.0523681640625
2.9688720703125
3.0671630859374996
3.059912109375
3.0574951171875
3.059912109375
3.0591064453124996
3.059912109375
3.05830078125
3.05830078125
2.969677734375
3.0631347656249996
2.7730957031249996
2.6981689453124997
2.6280761718749996
2.8738037109374996
3.059912109375
3.0591064453124996
3.0591064453124996
3.0558837890625
3.0566894531249997
3.05830078125
0.30937499999999996
0.049951171875
0.053173828124999996
0.0539794921875
0.0515625
0.057202148437499996
0.053173828124999996
0.054785156249999994
0.056396484375
0.053173828124999996
0.049145507812499996
0.0523681640625
0.0580078125
0.057202148437499996
0.0539794921875
0.0515625
0.0515625
0.053173828124999996
0.049951171875
0.0523681640625
0.0539794921875
1.606494140625
3.0566894531249997
3.059912109375
3.0647460937499997
3.0623291015625
3.0607177734374997
3.0591064453124996
3.05830078125
3.05830078125
2.892333984375
2.9753173828125
2.6683593749999996
2.8157958984375
2.7521484375
2.5998779296874996
3.059912109375
3.0591064453124996
3.059912109375
3.0615234375
3.059912109375
0.49064941406249996
0.053173828124999996
0.053173828124999996
0.0523681640625
0.0515625
0.0515625
0.053173828124999996
0.053173828124999996
0.0523681640625
0.053173828124999996
0.0515625
0.25458984375
0.11279296875
0.069287109375
0.1248779296875
0.08056640625
0.049951171875
0.053173828124999996
0.04833984375
0.0555908203125
0.049145507812499996
0.053173828124999996
1.335791015625
3.0623291015625
3.053466796875
3.0591064453124996
3.0574951171875
3.0623291015625
3.059912109375
3.0607177734374997
3.0615234375
3.0607177734374997
2.9076416015624997
3.0615234375
2.7489257812499996
2.647412109375
2.6039062499999996
3.0566894531249997
3.05830078125
3.0591064453124996
3.0566894531249997
3.059912109375
1.5919921874999998
0.0523681640625
0.0515625
0.049145507812499996
0.053173828124999996
0.0555908203125
0.053173828124999996
0.056396484375
0.057202148437499996
0.0523681640625
0.0523681640625
0.056396484375
0.050756835937499994
0.0555908203125
0.0539794921875
0.0539794921875
0.053173828124999996
0.049145507812499996
0.0539794921875
0.0555908203125
0.053173828124999996
0.0523681640625
0.056396484375
3.0615234375
3.0607177734374997
3.0623291015625
3.0591064453124996
3.0623291015625
3.0607177734374997
3.0639404296875
3.0639404296875
3.0615234375
2.9656494140625
3.059912109375
2.7851806640624996
2.7722900390625
2.6530517578125
3.05830078125
3.0591064453124996
3.05830078125
3.05830078125
3.0558837890625
3.0615234375
3.059912109375
0.1087646484375
0.056396484375
0.0555908203125
0.0539794921875
0.0539794921875
0.050756835937499994
0.053173828124999996
0.0515625
0.049951171875
0.053173828124999996
0.050756835937499994
0.0555908203125
0.057202148437499996
0.0684814453125
0.050756835937499994
0.050756835937499994
0.053173828124999996
0.0523681640625
0.053173828124999996
0.0523681640625
0.0523681640625
2.73603515625
3.0591064453124996
3.0623291015625
3.059912109375
3.0566894531249997
3.0615234375
3.0591064453124996
3.0623291015625
3.0574951171875
3.021240234375
2.9285888671875
2.9140869140624996
2.866552734375
2.7424804687499997
3.066357421875
3.059912109375
3.0591064453124996
3.0574951171875
3.0607177734374997
1.7499023437499999
0.0515625
0.07734374999999999
0.0523681640625
0.053173828124999996
0.053173828124999996
0.0523681640625
0.054785156249999994
0.0555908203125
0.053173828124999996
0.0523681640625
0.0515625
0.053173828124999996
0.104736328125
0.0539794921875
0.0845947265625
0.0539794921875
0.054785156249999994
0.0515625
0.058813476562499994
0.0515625
0.04833984375
0.053173828124999996
2.077001953125
3.0566894531249997
3.0615234375
3.0591064453124996
3.0591064453124996
3.0591064453124996
3.059912109375
3.0558837890625
3.0623291015625
3.0615234375
2.9108642578125
3.0591064453124996
2.745703125
2.6337158203124997
2.5273681640624996
3.0566894531249997
3.0607177734374997
3.0574951171875
3.0591064453124996
3.0623291015625
0.049951171875
0.6759521484375
0.053173828124999996
0.053173828124999996
0.0523681640625
0.053173828124999996
0.053173828124999996
0.0539794921875
0.053173828124999996
0.050756835937499994
0.056396484375
0.054785156249999994
0.0515625
0.07009277343749999
0.075732421875
0.056396484375
0.0515625
0.0523681640625
0.0523681640625
0.0523681640625
0.0539794921875
0.056396484375
0.31340332031249996
3.0591064453124996
3.0631347656249996
3.0607177734374997
3.0607177734374997
3.059912109375
3.059912109375
3.0591064453124996
3.0623291015625
3.0615234375
2.8689697265625
2.4709716796875
2.8447998046875
2.747314453125
2.6385498046875
3.05830078125
3.059912109375
3.0591064453124996
3.0574951171875
3.05830078125
3.0615234375
1.0634765625
0.04833984375
0.0539794921875
0.0539794921875
0.049145507812499996
0.054785156249999994
0.054785156249999994
0.0523681640625
0.049951171875
0.056396484375
0.053173828124999996
0.06767578125
0.0298095703125
0.0555908203125
0.0539794921875
0.053173828124999996
0.0475341796875
0.0523681640625
0.0539794921875
0.0523681640625
0.0539794921875
0.0523681640625
3.0623291015625
3.0574951171875
3.0607177734374997
3.0591064453124996
3.05830078125
3.0615234375
3.066357421875
3.0655517578125
3.02607421875
3.053466796875
2.7030029296875
2.9503417968749996
2.776318359375
2.7158935546875
3.0631347656249996
3.0566894531249997
3.0607177734374997
3.0558837890625
3.05830078125
1.2342773437499999
2.7448974609374996
0.053173828124999996
0.053173828124999996
0.0539794921875
0.049951171875
0.053173828124999996
0.049145507812499996
0.0539794921875
0.053173828124999996
0.0523681640625
0.0555908203125
0.30856933593749997
0.0555908203125
0.0684814453125
0.0604248046875
0.0523681640625
0.053173828124999996
0.053173828124999996
0.053173828124999996
0.0523681640625
0.053173828124999996
0.049951171875
2.8125732421875
3.0591064453124996
3.066357421875
3.0558837890625
3.0615234375
3.05830078125
3.0574951171875
3.05830078125
3.059912109375
3.0607177734374997
2.731201171875
2.745703125
2.8286865234375
2.72314453125
2.5837646484374996
3.0591064453124996
3.0591064453124996
3.0566894531249997
3.059912109375
3.05830078125
3.0607177734374997
1.9029785156249999
0.049951171875
0.0523681640625
0.056396484375
0.0523681640625
0.0515625
0.0523681640625
0.054785156249999994
0.053173828124999996
0.0539794921875
0.049951171875
0.053173828124999996
0.0555908203125
0.058813476562499994
0.0515625
0.0515625
0.053173828124999996
0.0539794921875
0.0523681640625
0.053173828124999996
0.049951171875
2.0391357421875
3.059912109375
3.0558837890625
3.059912109375
3.05830078125
3.0566894531249997
3.0615234375
3.0607177734374997
2.985791015625
3.059912109375
2.9028076171875
2.650634765625
2.7489257812499996
2.6997802734375
2.6055175781249997
3.0591064453124996
3.0591064453124996
3.059912109375
3.059912109375
3.0574951171875
3.059912109375
0.053173828124999996
0.064453125
0.053173828124999996
0.0523681640625
0.049145507812499996
0.0523681640625
0.0555908203125
0.0523681640625
0.053173828124999996
0.04833984375
0.0555908203125
0.24169921875
0.0539794921875
0.10634765624999999
0.07412109374999999
0.0523681640625
0.0523681640625
0.0515625
0.0555908203125
0.057202148437499996
0.0515625
0.0523681640625
3.0647460937499997
3.0591064453124996
3.053466796875
3.0639404296875
3.059912109375
3.059912109375
3.0607177734374997
3.0591064453124996
3.0083496093749997
2.96162109375
3.059912109375
2.7739013671875
2.679638671875
2.615185546875
2.8939453124999996
3.0615234375
3.0615234375
3.059912109375
3.059912109375
3.05830078125
3.05830078125
0.15629882812499998
0.0523681640625
0.0523681640625
0.050756835937499994
0.0539794921875
0.053173828124999996
0.0515625
0.056396484375
0.056396484375
0.053173828124999996
0.053173828124999996
0.053173828124999996
0.0515625
0.054785156249999994
0.054785156249999994
0.050756835937499994
0.0515625
0.0523681640625
0.0515625
0.0523681640625
0.053173828124999996
3.05830078125
3.0574951171875
3.0647460937499997
3.0623291015625
3.0615234375
3.059912109375
3.05830078125
3.059912109375
3.0615234375
3.0566894531249997
2.9463134765624996
2.5894042968749997
2.737646484375
2.6417724609374997
2.5418701171875
3.0591064453124996
3.0671630859374996
3.0574951171875
3.059912109375
3.0615234375
0.48259277343749996
0.7017333984374999
0.0515625
0.0523681640625
0.0523681640625
0.0515625
0.0555908203125
0.053173828124999996
0.0515625
0.0539794921875
0.0539794921875
0.0926513671875
0.0555908203125
0.050756835937499994
0.049951171875
0.053173828124999996
0.056396484375
0.053173828124999996
0.053173828124999996
0.0539794921875
0.053173828124999996
0.0539794921875
1.2955078125
3.059912109375
3.0591064453124996
3.0550781249999996
3.0607177734374997
3.0591064453124996
3.0639404296875
3.0607177734374997
3.0655517578125
3.05830078125
2.9656494140625
3.059912109375
2.818212890625
2.744091796875
2.6691650390625
3.0615234375
3.0615234375
3.059912109375
3.0550781249999996
3.0591064453124996
1.4526123046875
0.0515625
0.0515625
0.0523681640625
0.0523681640625
0.0580078125
0.0523681640625
0.0555908203125
0.049951171875
0.053173828124999996
0.053173828124999996
0.0539794921875
0.053173828124999996
0.08620605468749999
0.07734374999999999
0.0555908203125
0.053173828124999996
0.0475341796875
0.0523681640625
0.0539794921875
0.053173828124999996
0.054785156249999994
0.053173828124999996
3.059912109375
3.059912109375
3.05830078125
3.059912109375
3.0574951171875
3.05830078125
3.05830078125
3.0558837890625
3.0591064453124996
2.9527587890625
3.0381591796875
2.940673828125
2.7142822265624997
2.5757080078124996
3.059912109375
3.0615234375
3.0607177734374997
3.0607177734374997
3.0542724609375
3.0607177734374997
3.059912109375
0.27392578125
0.056396484375
0.050756835937499994
0.0523681640625
0.057202148437499996
0.050756835937499994
0.0539794921875
0.0539794921875
0.0539794921875
0.0515625
0.04833984375
0.053173828124999996
0.053173828124999996
0.0515625
0.0515625
0.053173828124999996
0.0515625
0.053173828124999996
0.053173828124999996
0.0523681640625
0.054785156249999994
2.6119628906249996
3.05830078125
3.05830078125
3.0607177734374997
3.0574951171875
3.0591064453124996
3.0574951171875
3.0550781249999996
3.059912109375
3.0486328124999997
2.9108642578125
2.872998046875
2.7948486328124997
2.650634765625
3.0607177734374997
3.0615234375
3.0607177734374997
3.0623291015625
3.066357421875
2.0326904296875
0.0523681640625
0.28439941406249997
0.054785156249999994
0.0539794921875
0.0539794921875
0.053173828124999996
0.0523681640625
0.056396484375
0.053173828124999996
0.0523681640625
0.0523681640625
0.04833984375
0.053173828124999996
0.053173828124999996
0.059619140625
0.049951171875
0.0523681640625
0.0539794921875
0.058813476562499994
0.053173828124999996
0.0539794921875
0.050756835937499994
2.23330078125
3.0591064453124996
3.0566894531249997
3.0486328124999997
3.0591064453124996
3.0623291015625
3.0591064453124996
3.05830078125
3.0558837890625
3.0591064453124996
2.9930419921875
3.0591064453124996
2.8125732421875
2.760205078125
2.6321044921874996
3.0607177734374997
3.059912109375
3.0607177734374997
3.059912109375
3.0574951171875
0.0539794921875
0.9249023437499999
0.0523681640625
0.049951171875
0.054785156249999994
0.0539794921875
0.0523681640625
0.0523681640625
0.0515625
0.0523681640625
0.053173828124999996
0.053173828124999996
0.0523681640625
0.0990966796875
0.054785156249999994
0.049145507812499996
0.050756835937499994
0.0555908203125
0.053173828124999996
0.0523681640625
0.0555908203125
0.053173828124999996
0.0539794921875
2.745703125
3.0591064453124996
3.059912109375
3.05830078125
3.0558837890625
3.0615234375
3.0574951171875
3.05830078125
3.0574951171875
2.874609375
2.5209228515624997
2.860107421875
2.769873046875
2.631298828125
3.05830078125
3.0623291015625
3.0591064453124996
3.0566894531249997
3.0574951171875
3.0566894531249997
1.69189453125
0.11923828125
0.053173828124999996
0.0523681640625
0.054785156249999994
0.0555908203125
0.0523681640625
0.054785156249999994
0.0539794921875
0.050756835937499994
0.03544921875
0.0523681640625
0.054785156249999994
0.054785156249999994
0.0539794921875
0.053173828124999996
0.053173828124999996
0.0539794921875
0.053173828124999996
0.056396484375
0.053173828124999996
0.0539794921875
2.9197265624999997
3.0574951171875
3.0510498046874996
3.0615234375
3.059912109375
3.059912109375
3.059912109375
3.0591064453124996
3.0591064453124996
2.956787109375
2.6659423828124997
2.9011962890625
2.7392578125
2.657080078125
3.05830078125
3.059912109375
3.059912109375
3.059912109375
3.0591064453124996
1.019970703125
2.1325927734375
0.1651611328125
0.050756835937499994
0.0523681640625
0.053173828124999996
0.054785156249999994
0.0523681640625
0.049145507812499996
0.0555908203125
0.054785156249999994
0.046728515624999994
0.21672363281249998
0.054785156249999994
0.08942871093749999
0.091845703125
0.049951171875
0.057202148437499996
0.050756835937499994
0.056396484375
0.053173828124999996
0.053173828124999996
0.057202148437499996
3.0558837890625
3.0615234375
3.05830078125
3.05830078125
3.0607177734374997
3.0558837890625
3.0591064453124996
3.0623291015625
3.059912109375
2.9447021484375
2.7690673828124996
2.7900146484375
2.8238525390625
2.7191162109375
2.5716796874999996
3.0591064453124996
3.0607177734374997
3.05830078125
3.0591064453124996
3.0591064453124996
3.059912109375
1.3639892578125
0.04833984375
0.049951171875
0.0523681640625
0.0555908203125
0.0580078125
0.053173828124999996
0.050756835937499994
0.0555908203125
0.0539794921875
0.054785156249999994
0.053173828124999996
0.061230468749999996
0.053173828124999996
0.053173828124999996
0.050756835937499994
0.0539794921875
0.053173828124999996
0.053173828124999996
0.053173828124999996
0.0539794921875
2.0391357421875
3.05830078125
3.059912109375
3.0623291015625
3.0623291015625
3.0574951171875
3.05830078125
3.0591064453124996
3.0236572265625
3.059912109375
2.9060302734374996
2.67158203125
2.7352294921875
2.65869140625
2.5547607421875
3.0623291015625
3.0526611328124997
3.0591064453124996
3.05830078125
3.0591064453124996
3.0566894531249997
0.0523681640625
0.069287109375
0.0515625
0.054785156249999994
0.053173828124999996
0.0523681640625
0.053173828124999996
0.056396484375
0.0523681640625
0.0539794921875
0.04833984375
0.1506591796875
0.0515625
0.053173828124999996
0.053173828124999996
0.0523681640625
0.0523681640625
0.04833984375
