1.5218994140625
1.4888671875
1.4791992187499998
1.4912841796874998
1.442138671875
1.4800048828124999
1.47275390625
1.4840332031249999
1.4961181640624999
2.663525390625
1.848193359375
1.4840332031249999
1.368017578125
1.3317626953125
1.561376953125
0.6243896484375
0.9031494140624999
1.0046630859374999
1.2439453125
1.4469726562499998
1.5194824218749998
1.5114257812499998
1.6483886718749998
1.6524169921874998
1.6346923828125
1.7055908203124999
1.62744140625
1.6290527343749999
1.6121337890624998
1.5919921874999998
0.26828613281249997
1.2221923828124999
1.7281494140625
1.7692382812499998
1.9182861328124998
1.5960205078124998
2.70703125
2.7626220703124997
2.02705078125
1.6282470703124998
1.5315673828124998
1.5162597656249999
1.5146484375
1.4590576171874998
1.4510009765624998
1.46630859375
1.4493896484375
1.4518066406249999
1.4816162109375
1.4719482421874999
1.4791992187499998
2.2212158203125
1.9513183593749999
1.4598632812499999
1.4026611328124998
1.224609375
1.6604736328124998
0.9603515625
0.791162109375
0.928125
1.1947998046875
1.4042724609375
1.4961181640624999
1.4993408203124998
1.625830078125
1.635498046875
1.6491943359374999
1.6951171875
1.6443603515624998
1.6524169921874998
1.6411376953124999
1.625830078125
0.7114013671874999
1.1545166015625
1.667724609375
1.8022705078124999
2.02060546875
1.8465820312499999
1.8844482421875
2.9302001953124996
2.099560546875
1.7168701171874998
1.5662109375
1.5154541015624998
1.480810546875
1.496923828125
1.4671142578124998
1.4590576171874998
1.4219970703125
1.3784912109374998
1.4735595703125
1.4735595703125
1.4791992187499998
2.0729736328125
2.3839599609374997
1.5766845703124999
1.3849365234375
1.216552734375
0.833056640625
1.1222900390625
0.8467529296874999
0.8435302734375
1.110205078125
1.409912109375
1.4993408203124998
1.529150390625
1.6185791015625
1.625830078125
1.6282470703124998
1.6822265625
1.6201904296874998
1.6411376953124999
1.6371093749999999
1.6209960937499999
0.9796874999999999
0.5865234375
1.5815185546875
1.780517578125
1.9231201171874999
2.1140624999999997
1.8473876953125
3.0550781249999996
2.360595703125
1.7442626953125
1.5557373046874998
1.48564453125
1.4711425781249998
1.4896728515625
1.509814453125
1.4759765624999999
1.4300537109375
1.4010498046875
1.4630859374999998
1.4655029296875
1.4711425781249998
1.46630859375
2.8955566406249997
1.5944091796875
1.3865478515624998
1.32451171875
0.816943359375
0.9466552734375
0.5567138671874999
0.8016357421875
1.052197265625
1.3462646484374998
1.4783935546875
1.55009765625
1.590380859375
1.6435546875
1.6564453124999998
1.6620849609375
1.7982421874999999
1.6717529296875
1.654833984375
1.6379150390625
1.6201904296874998
0.5043457031249999
1.5645996093749999
1.7410400390624998
1.9376220703125
2.04638671875
2.454052734375
2.9511474609375
2.3501220703125
1.8457763671874998
1.6298583984375
1.4880615234374999
1.493701171875
1.50498046875
1.474365234375
1.456640625
1.4542236328125
1.4074951171874999
1.4590576171874998
1.4638916015624999
1.4783935546875
1.474365234375
2.94873046875
1.8183837890624999
1.4139404296875
1.3494873046875
1.2858398437499998
1.3728515625
0.5285156249999999
0.7718261718749999
0.9603515625
1.3148437499999999
1.4606689453125
1.5807128906249999
1.5605712890624999
1.6612792968749999
1.6798095703125
1.6653076171874999
1.7265380859375
1.6701416015625
1.6427490234375
1.6508056640625
1.6177734375
0.0749267578125
1.24072265625
1.7370117187499998
1.8417480468749998
1.9714599609374999
2.2631103515624997
2.7046142578124996
2.900390625
1.91748046875
1.635498046875
1.5146484375
1.4816162109375
1.5605712890624999
1.482421875
1.4373046875
1.4928955078125
1.4236083984374999
1.4244140625
1.4687255859375
1.4687255859375
1.456640625
2.4749999999999996
1.9070068359374999
1.4518066406249999
1.409912109375
1.2689208984375
1.5911865234375
0.61552734375
0.775048828125
0.952294921875
1.19560546875
1.4066894531249998
1.5267333984375
1.5162597656249999
1.6798095703125
1.6435546875
1.6427490234375
1.7015624999999999
1.658056640625
1.6524169921874998
1.6306640625
1.6242187499999998
0.0515625
1.1819091796874999
1.6572509765624999
1.8151611328125
2.0343017578125
1.6000488281249998
1.9279541015625
2.9156982421874997
2.080224609375
1.72734375
1.5186767578125
1.4542236328125
1.482421875
1.4687255859375
1.4622802734375
1.4276367187499999
1.429248046875
1.4574462890625
1.4550292968749998
1.4590576171874998
1.4679199218749999
2.2792236328124997
2.3396484374999997
1.5605712890624999
1.4187744140624998
1.22783203125
0.9837158203124999
0.90234375
0.7033447265624999
0.84755859375
1.0707275390625
1.4373046875
1.513037109375
1.5412353515625
1.6572509765624999
1.63388671875
1.6717529296875
1.7015624999999999
1.662890625
1.662890625
1.6508056640625
1.6427490234375
0.678369140625
0.6815917968749999
1.6556396484375
1.7845458984375
1.9472900390624999
1.77568359375
1.869140625
3.0558837890625
2.2880859375
1.7104248046875
1.546875
1.4864501953125
1.4840332031249999
1.4880615234374999
1.493701171875
1.4767822265625
1.409912109375
1.4252197265625
1.4655029296875
1.4759765624999999
1.47275390625
1.4590576171874998
2.41376953125
1.5734619140625
1.3833251953124999
1.19560546875
0.8048583984375
1.1158447265625
0.6775634765624999
0.8104980468749999
1.0642822265625
1.3261230468749998
1.5218994140625
1.571044921875
1.6105224609375
1.69833984375
1.6798095703125
1.6725585937499998
1.7168701171874998
1.6346923828125
1.6282470703124998
1.6218017578125
0.9329589843749999
0.5365722656249999
1.5911865234375
1.740234375
1.9303710937499998
2.1374267578125
2.5458984375
3.0284912109374997
2.4443847656249997
1.8731689453125
1.571044921875
1.49853515625
1.46953125
1.509814453125
1.4896728515625
1.4711425781249998
1.47275390625
1.397021484375
1.458251953125
1.4630859374999998
1.4751708984374998
1.4598632812499999
2.9414794921875
1.7877685546875
1.3801025390625
1.3108154296874999
1.3220947265624998
0.9168457031249999
0.56396484375
0.7742431640624999
0.9595458984374999
1.329345703125
1.461474609375
1.5243164062499999
1.5984375
1.6951171875
1.6620849609375
1.6435546875
1.796630859375
1.706396484375
1.7023681640625
1.6411376953124999
1.609716796875
0.064453125
1.542041015625
1.754736328125
1.8780029296874998
2.0197998046875
2.5048095703124997
2.9914306640625
2.7086425781249996
1.8538330078124998
1.5758789062499998
1.4791992187499998
1.4477783203124999
1.490478515625
1.4735595703125
1.4848388671875
1.4493896484375
1.4550292968749998
1.4542236328125
1.4671142578124998
1.4920898437499999
1.4783935546875
2.96484375
1.848193359375
1.4429443359374998
1.340625
1.29228515625
1.41796875
0.604248046875
0.7742431640624999
0.9160400390625
1.2101074218749999
1.4550292968749998
1.5275390624999998
1.5476806640624998
1.6886718749999998
1.69189453125
1.674169921875
1.703173828125
1.6443603515624998
1.6508056640625
1.6250244140624999
1.6169677734374999
0.050756835937499994
1.239111328125
1.6532226562499999
1.8175781249999998
1.977099609375
1.4888671875
2.76826171875
2.856884765625
2.0576660156249997
1.619384765625
1.5146484375
1.477587890625
1.5170654296875
1.4961181640624999
1.4316650390624999
1.461474609375
1.4042724609375
1.4397216796874999
1.461474609375
1.4671142578124998
1.4679199218749999
2.5031982421874996
2.247802734375
1.4429443359374998
1.3881591796875
1.1778808593749999
1.6201904296874998
0.575244140625
0.7863281249999999
0.8515869140625
1.2028564453125
1.4469726562499998
1.5194824218749998
1.5041748046874999
1.65
1.6765869140624998
1.6830322265625
1.6717529296875
1.651611328125
1.6572509765624999
1.6379150390625
1.622607421875
0.488232421875
1.1786865234375
1.6483886718749998
1.7813232421874998
1.977099609375
1.5686279296874999
1.909423828125
3.05185546875
2.1374267578125
1.7313720703125
1.5404296874999999
1.4735595703125
1.50498046875
1.45341796875
1.522705078125
1.4598632812499999
1.4284423828125
1.4872558593749998
1.4759765624999999
1.47275390625
1.45341796875
2.3235351562499997
2.3525390625
1.561376953125
1.3744628906249998
1.1915771484375
0.9337646484375
1.2020507812499999
0.7798828124999999
0.825
1.1214843749999999
1.3639892578125
1.529150390625
1.538818359375
1.6177734375
1.6266357421875
1.63388671875
1.658056640625
1.7370117187499998
1.6572509765624999
1.64677734375
1.6121337890624998
0.604248046875
0.6574218749999999
1.5839355468749998
1.7901855468749999
1.9634033203124999
2.350927734375
2.441162109375
3.050244140625
2.241357421875
1.7853515624999998
1.5533203125
1.4912841796874998
1.4703369140625
1.4767822265625
1.480810546875
1.4888671875
1.4364990234375
1.458251953125
1.4622802734375
1.4703369140625
1.4800048828124999
1.4655029296875
2.9108642578125
1.5807128906249999
1.397021484375
1.2995361328125
1.26005859375
1.1609619140625
0.581689453125
0.775048828125
1.0513916015625
1.340625
1.461474609375
1.5492919921875
1.6137451171875
1.6693359374999999
1.670947265625
1.662890625
1.7281494140625
1.6886718749999998
1.6532226562499999
1.6290527343749999
1.6105224609375
0.11923828125
1.609716796875
1.7539306640624999
1.869140625
2.1785156249999997
2.5265625
2.8157958984375
2.7368408203124996
1.8522216796875
1.603271484375
1.5122314453124999
1.4848388671875
1.5146484375
1.4912841796874998
1.464697265625
1.4606689453125
1.4171630859375
1.4501953125
1.458251953125
1.482421875
1.4751708984374998
2.947119140625
1.7668212890625
1.4308593749999998
1.3341796874999998
1.284228515625
1.1239013671875
0.36416015625
0.760546875
0.9949951171875
1.2302490234374999
1.4711425781249998
1.5412353515625
1.538818359375
1.6645019531249998
1.6564453124999998
1.6822265625
1.66611328125
1.6451660156249999
1.6685302734374998
1.651611328125
1.61455078125
0.07734374999999999
1.3108154296874999
1.6878662109375
1.8385253906249999
1.9634033203124999
1.426025390625
2.8012939453124996
2.8431884765624997
2.0415527343749997
1.6846435546874998
1.5106201171875
1.4687255859375
1.490478515625
1.4703369140625
1.458251953125
1.477587890625
1.4348876953124998
1.4703369140625
1.45341796875
1.461474609375
1.4896728515625
2.6723876953124996
2.18173828125
1.4373046875
1.384130859375
1.168212890625
1.3639892578125
0.5615478515625
0.7436279296874999
0.8685058593749999
1.2431396484375
1.4244140625
1.5106201171875
1.5243164062499999
1.6910888671875
1.6991455078125
1.6564453124999998
1.7200927734375
1.6806152343749998
1.667724609375
1.6443603515624998
1.6234130859375
0.217529296875
1.284228515625
1.71123046875
1.7893798828124998
1.9940185546875
1.4308593749999998
2.2582763671875
3.0510498046874996
1.98515625
1.6588623046875
1.542041015625
1.4671142578124998
1.513037109375
1.4300537109375
1.5243164062499999
1.4590576171874998
1.409912109375
1.50498046875
1.4630859374999998
1.4759765624999999
1.4840332031249999
2.52978515625
2.2437744140625
1.542041015625
1.3656005859375
1.1690185546875
1.216552734375
1.2785888671874999
0.7718261718749999
0.8427246093749999
1.116650390625
1.384130859375
1.5138427734375
1.53076171875
1.6266357421875
1.651611328125
1.6435546875
1.6854492187499999
1.6733642578124999
1.651611328125
1.6346923828125
1.6209960937499999
0.49951171875
0.7839111328124999
1.6218017578125
1.7901855468749999
2.0020751953125
2.4749999999999996
1.9658203125
3.0421875
2.3839599609374997
1.8369140625
1.5541259765625
1.4993408203124998
1.4864501953125
1.4622802734375
1.5025634765625
1.4840332031249999
1.4219970703125
1.4542236328125
1.44052734375
1.4832275390624998
1.4848388671875
1.4800048828124999
2.7908203124999997
1.5509033203125
1.3849365234375
1.31162109375
0.9966064453125
1.222998046875
0.726708984375
0.7645751953125
1.1150390625
1.380908203125
1.4928955078125
1.5364013671874999
1.606494140625
1.6508056640625
1.6532226562499999
1.6927001953124998
1.6733642578124999
1.6765869140624998
1.6508056640625
1.619384765625
1.6201904296874998
0.6856201171874999
1.6008544921874999
1.7249267578124998
1.893310546875
2.3533447265625
2.3614013671875
2.9221435546874996
2.3203125
1.8409423828125
1.5734619140625
1.4655029296875
1.4751708984374998
1.4912841796874998
1.46953125
1.4759765624999999
1.4332763671875
1.47275390625
1.4598632812499999
1.480810546875
1.4912841796874998
1.4711425781249998
2.8657470703124996
1.7168701171874998
1.4332763671875
1.2947021484374999
1.2689208984375
0.865283203125
0.59619140625
0.8080810546874999
0.9812988281249999
1.2850341796875
1.474365234375
1.533984375
1.5605712890624999
1.6733642578124999
1.651611328125
1.6395263671875
1.7450683593749998
1.667724609375
1.6540283203125
1.6346923828125
1.6153564453125
0.15468749999999998
1.3905761718749998
1.7378173828124999
1.844970703125
1.9110351562499999
2.502392578125
2.9197265624999997
2.6288818359375
1.960986328125
1.5992431640625
1.5138427734375
1.474365234375
1.509814453125
1.5025634765625
1.47275390625
1.4397216796874999
1.416357421875
1.461474609375
1.46630859375
1.4751708984374998
1.4759765624999999
2.7392578125
1.7732666015624998
1.4510009765624998
1.4074951171874999
1.2955078125
1.1375976562499999
0.48581542968749997
0.8145263671874999
0.9877441406249999
1.276171875
1.429248046875
1.5218994140625
1.506591796875
1.6854492187499999
1.7466796875
1.6701416015625
1.6806152343749998
1.6564453124999998
1.6379150390625
1.6459716796875
1.6089111328124999
0.11037597656249999
1.2963134765625
1.699951171875
1.7926025390625
1.920703125
1.4493896484375
2.2051025390625
2.827880859375
2.1100341796874997
1.6959228515625
1.5251220703125
1.4751708984374998
1.522705078125
1.4606689453125
1.4542236328125
1.47275390625
1.400244140625
1.4413330078125
1.4630859374999998
1.46953125
1.4832275390624998
2.5902099609375
2.1551513671875
1.5315673828124998
1.3954101562499999
1.1698242187499999
1.380908203125
0.5220703125
0.7879394531249999
0.903955078125
1.1577392578124999
1.4356933593749999
1.509814453125
1.5251220703125
1.6935058593749999
1.6822265625
1.658056640625
1.6951171875
1.6636962890625
1.6588623046875
1.6298583984375
1.62744140625
0.35288085937499997
0.9224853515625
1.6781982421875
1.803076171875
2.0004638671875
1.4606689453125
2.0576660156249997
3.050244140625
2.180126953125
1.6653076171874999
1.5347900390625
1.4864501953125
1.5146484375
1.4501953125
1.5380126953125
1.442138671875
1.4429443359374998
1.5138427734375
1.482421875
1.4928955078125
1.5001464843749999
1.5597656249999998
2.2236328125
1.5186767578125
1.37607421875
1.2028564453125
1.187548828125
1.268115234375
0.6574218749999999
0.894287109375
1.1214843749999999
1.37607421875
1.50498046875
1.5283447265624999
1.6346923828125
1.6483886718749998
1.6636962890625
1.6733642578124999
1.6508056640625
1.658056640625
1.6395263671875
1.635498046875
0.5148193359375
0.8193603515625
1.6330810546874999
1.703173828125
1.9754882812499999
2.4016845703125
2.230078125
3.05185546875
2.228466796875
1.799853515625
1.574267578125
1.4912841796874998
1.4864501953125
1.51787109375
1.50498046875
1.4759765624999999
1.4655029296875
1.445361328125
1.448583984375
1.464697265625
1.4791992187499998
1.482421875
2.7650390624999996
1.670947265625
1.3639892578125
1.30517578125
1.232666015625
1.24072265625
0.7734375
0.8048583984375
1.019970703125
1.361572265625
1.4542236328125
1.529150390625
1.5968261718749999
1.6532226562499999
1.6564453124999998
1.6773925781249999
1.6669189453125
1.6620849609375
1.6645019531249998
1.6363037109374998
1.5895751953125
0.252978515625
1.6137451171875
1.72734375
1.8739746093749998
1.8941162109374998
2.3517333984374997
2.7642333984375
2.647412109375
1.8264404296874999
1.606494140625
1.5194824218749998
1.482421875
1.5025634765625
1.493701171875
1.4703369140625
1.45341796875
1.4139404296875
1.4783935546875
1.4703369140625
1.4840332031249999
1.482421875
2.8077392578125
1.6975341796874999
1.42119140625
1.3784912109374998
1.300341796875
0.9192626953124999
0.476953125
0.816943359375
1.0239990234375
1.2987304687499999
1.432470703125
1.5380126953125
1.5621826171875
1.674169921875
1.6604736328124998
1.6483886718749998
1.6951171875
1.65966796875
1.662890625
1.6427490234375
1.6177734375
0.21591796875
1.368017578125
1.7370117187499998
1.8369140625
1.883642578125
1.51787109375
2.9422851562499996
2.5966552734375
1.9440673828125
1.638720703125
1.5073974609374998
1.46630859375
1.5315673828124998
1.4848388671875
1.4671142578124998
1.445361328125
1.45341796875
1.4767822265625
1.4622802734375
1.4880615234374999
1.4735595703125
2.6538574218749997
2.083447265625
1.4429443359374998
1.380908203125
1.21494140625
1.1674072265625
0.6308349609374999
0.7275146484374999
0.928125
1.255224609375
1.4236083984374999
1.5017578125
1.574267578125
1.6935058593749999
1.6717529296875
1.662890625
1.6822265625
1.64677734375
1.662890625
1.6371093749999999
1.6024658203125
0.2827880859375
1.0449462890624999
1.6854492187499999
1.7781005859374999
1.9835449218749999
1.4961181640624999
2.20107421875
3.0236572265625
1.989990234375
1.6781982421875
1.5766845703124999
1.5194824218749998
1.5267333984375
1.4590576171874998
1.5235107421874998
1.4598632812499999
1.4074951171874999
1.4711425781249998
1.4630859374999998
1.461474609375
1.456640625
1.7128417968749998
2.1301757812499997
1.5251220703125
1.3865478515624998
1.2028564453125
1.4139404296875
1.248779296875
0.8306396484374999
0.9152343749999999
1.1480712890625
1.3801025390625
1.5106201171875
1.5162597656249999
1.6266357421875
1.670947265625
1.6830322265625
1.6636962890625
1.6081054687499998
1.670947265625
1.654833984375
1.6314697265625
0.459228515625
0.8902587890625
1.6024658203125
1.7829345703125
1.9859619140625
2.34931640625
2.0173828124999997
3.0389648437499996
2.280029296875
1.812744140625
1.5509033203125
1.4953124999999998
1.5162597656249999
1.448583984375
1.5444580078124999
1.4671142578124998
1.4518066406249999
1.4816162109375
1.456640625
1.4703369140625
1.4671142578124998
1.5355957031249998
2.666748046875
1.525927734375
1.3857421875
1.2938964843749998
1.1013427734374999
1.2608642578125
0.6872314453124999
0.855615234375
1.132763671875
1.3833251953124999
1.4679199218749999
1.5412353515625
1.5984375
1.65
1.6572509765624999
1.662890625
1.67578125
1.6604736328124998
1.6314697265625
1.6169677734374999
1.546875
0.31904296875
1.6298583984375
1.7080078125
1.8925048828125
2.3694580078125
2.2026855468749997
2.9527587890625
2.2067138671874997
1.77568359375
1.5968261718749999
1.5009521484375
1.48564453125
1.4920898437499999
1.5017578125
1.4783935546875
1.4268310546874998
1.4518066406249999
1.4638916015624999
1.46953125
1.474365234375
1.4751708984374998
2.76181640625
1.6878662109375
1.448583984375
1.3172607421875
1.2455566406249998
0.7839111328124999
0.6598388671875
0.8282226562499999
1.029638671875
1.2882568359375
1.49853515625
1.5404296874999999
1.5726562499999999
1.6483886718749998
1.6564453124999998
1.6322753906249998
1.6878662109375
1.6645019531249998
1.6322753906249998
1.6161621093749998
1.6105224609375
0.23203125
1.40185546875
1.7007568359374998
1.851416015625
1.9223144531249998
1.670947265625
2.66513671875
2.6482177734374996
2.012548828125
1.63388671875
1.5235107421874998
1.4953124999999998
1.53076171875
1.4832275390624998
1.4550292968749998
1.474365234375
1.4042724609375
1.4606689453125
1.4606689453125
1.480810546875
1.464697265625
2.7183105468749997
1.7096191406249999
1.4518066406249999
1.4010498046875
1.2310546875
1.00224609375
0.4648681640625
0.8209716796875
1.0159423828125
1.276171875
1.4526123046875
1.525927734375
1.5251220703125
1.6733642578124999
1.6733642578124999
1.6878662109375
1.690283203125
1.6435546875
1.6524169921874998
1.6483886718749998
1.5960205078124998
0.21672363281249998
1.353515625
1.706396484375
1.786962890625
1.9078125
1.5033691406249998
2.3162841796875
2.6748046875
1.9746826171874998
1.6604736328124998
1.5428466796875
1.4767822265625
1.50498046875
1.4437499999999999
1.4945068359375
1.496923828125
1.4332763671875
1.4872558593749998
1.4791992187499998
1.4832275390624998
1.482421875
2.624853515625
2.1116455078125
1.5243164062499999
1.3825195312499998
1.2254150390625
1.5444580078124999
0.6098876953125
0.7541015624999999
0.928125
1.181103515625
1.4518066406249999
1.5082031249999999
1.5404296874999999
1.6653076171874999
1.6773925781249999
1.6379150390625
1.6798095703125
1.6483886718749998
1.658056640625
1.6314697265625
1.609716796875
0.32065429687499997
0.9949951171875
1.6878662109375
1.7635986328125
1.98515625
2.2518310546875
2.215576171875
3.0083496093749997
2.128564453125
1.6636962890625
1.546875
1.5218994140625
1.5275390624999998
1.464697265625
1.533984375
1.477587890625
1.4308593749999998
1.4920898437499999
1.4671142578124998
1.4759765624999999
1.47275390625
1.6669189453125
2.63291015625
1.5323730468749999
1.4058837890625
1.2947021484374999
1.368017578125
1.2584472656249999
0.8129150390625
0.897509765625
1.155322265625
1.3672119140624999
1.4711425781249998
1.5251220703125
1.6427490234375
1.6532226562499999
1.6524169921874998
1.674169921875
1.6081054687499998
1.6588623046875
1.64677734375
1.6298583984375
1.4115234374999999
0.9112060546874999
1.6540283203125
1.72734375
1.9787109374999998
2.3630126953125
2.0584716796875
2.8383544921875
2.2324951171875
1.783740234375
1.5863525390625
1.48564453125
1.48564453125
1.5275390624999998
1.542041015625
1.4800048828124999
1.4912841796874998
1.42119140625
1.461474609375
1.4920898437499999
1.4791992187499998
1.5202880859374999
2.663525390625
1.6250244140624999
1.3664062499999998
1.2906738281249999
1.152099609375
0.7395996093749999
0.84111328125
0.8258056640625
1.044140625
1.3817138671875
1.4791992187499998
1.5412353515625
1.546875
1.6435546875
1.658056640625
1.6395263671875
1.6588623046875
1.6645019531249998
1.6508056640625
1.64677734375
1.5702392578125
0.3150146484375
1.45341796875
1.7257324218749999
1.899755859375
1.8973388671875
2.238134765625
2.8609130859375
2.5330078124999997
1.9247314453125
1.5758789062499998
1.5033691406249998
1.4759765624999999
1.5009521484375
1.4800048828124999
1.46630859375
1.445361328125
1.4767822265625
1.490478515625
1.4711425781249998
1.4840332031249999
1.461474609375
2.7481201171875
1.683837890625
1.4445556640625
1.3873535156249999
1.2616699218749998
0.8056640625
0.6090820312499999
0.7984130859374999
1.045751953125
1.3108154296874999
1.432470703125
1.5235107421874998
1.5670166015625
1.66611328125
1.6588623046875
1.6411376953124999
1.6951171875
1.641943359375
1.635498046875
1.641943359375
1.6290527343749999
0.252978515625
1.4316650390624999
1.7088134765624998
1.7877685546875
1.8941162109374998
1.6000488281249998
2.5201171875
2.5885986328125
1.9424560546874998
1.6588623046875
1.5202880859374999
1.4840332031249999
1.53076171875
1.4759765624999999
1.461474609375
1.4800048828124999
1.4147460937499998
1.4671142578124998
1.4606689453125
1.4606689453125
1.47275390625
2.6788330078125
2.0310791015625
1.48564453125
1.3752685546874999
1.2374999999999998
1.6177734375
0.526904296875
0.8564208984374999
0.9466552734375
1.1964111328125
1.4244140625
1.4993408203124998
1.496923828125
1.6773925781249999
1.67900390625
1.6773925781249999
1.6532226562499999
1.6266357421875
1.6653076171874999
1.64677734375
1.6185791015625
0.3544921875
1.044140625
1.6886718749999998
1.7579589843749999
1.9811279296875
1.522705078125
2.263916015625
2.9688720703125
2.22041015625
1.699951171875
1.5750732421875
1.4953124999999998
1.522705078125
1.4655029296875
1.5202880859374999
1.4711425781249998
1.426025390625
1.4800048828124999
1.4493896484375
1.4687255859375
1.480810546875
1.783740234375
2.0923095703125
1.5057861328125
1.384130859375
1.2052734375
1.477587890625
1.2060791015624999
0.79921875
0.945849609375
1.1778808593749999
1.384130859375
1.50498046875
1.5106201171875
1.6242187499999998
1.6781982421875
1.6491943359374999
1.6967285156249998
1.6403320312499998
1.65
1.6395263671875
1.6314697265625
0.33757324218749996
0.9990234375
1.6483886718749998
1.73056640625
1.9625976562499998
2.286474609375
1.9311767578124999
3.0172119140625
2.131787109375
1.75634765625
1.5347900390625
1.4767822265625
1.46953125
1.4558349609374999
1.538818359375
1.4550292968749998
1.4373046875
1.5009521484375
1.480810546875
1.493701171875
1.4703369140625
1.606494140625
2.6280761718749996
1.6250244140624999
1.3817138671875
1.3067871093749999
1.0449462890624999
1.2745605468749999
0.694482421875
0.85400390625
1.061865234375
1.409912109375
1.4783935546875
1.55009765625
1.61455078125
1.6451660156249999
1.66611328125
1.6927001953124998
1.6491943359374999
1.65966796875
1.6435546875
1.6250244140624999
1.4800048828124999
0.38188476562499996
1.6475830078125
1.7080078125
1.8506103515624999
1.8949218749999999
2.1116455078125
2.9020019531249996
2.4419677734375
1.7635986328125
1.5791015625
1.522705078125
1.5025634765625
1.529150390625
1.4840332031249999
1.482421875
1.45341796875
1.4332763671875
1.474365234375
1.482421875
1.4735595703125
1.4759765624999999
2.6860839843749997
1.658056640625
1.4091064453125
1.4034667968749999
1.1883544921875
0.7806884765625
0.5551025390625
0.8096923828125
1.0336669921875
1.3011474609375
1.4268310546874998
1.52109375
1.5492919921875
1.6524169921874998
1.6532226562499999
1.6701416015625
1.662890625
1.654833984375
1.6314697265625
1.63388671875
1.6798095703125
0.30856933593749997
1.4590576171874998
1.7233154296875
1.8755859375
1.893310546875
1.7337890624999999
2.631298828125
2.6200195312499996
1.9674316406249999
1.674169921875
1.522705078125
1.4961181640624999
1.5082031249999999
1.490478515625
1.4735595703125
1.4840332031249999
1.4493896484375
1.4840332031249999
1.474365234375
1.4832275390624998
1.4840332031249999
2.7166992187499996
1.9674316406249999
1.4147460937499998
1.3897705078125
1.2608642578125
0.9031494140624999
0.5164306640624999
0.8499755859375
0.966796875
1.3180664062499998
1.448583984375
1.525927734375
1.5444580078124999
1.6572509765624999
1.6653076171874999
1.6612792968749999
1.706396484375
1.6459716796875
1.6427490234375
1.6403320312499998
1.6072998046875
0.223974609375
1.429248046875
1.7072021484375
1.7934082031249998
1.9907958984374998
1.5396240234374998
2.5491210937499997
2.8963623046875
1.9231201171874999
1.638720703125
1.5122314453124999
1.4848388671875
1.506591796875
1.4501953125
1.4920898437499999
1.4550292968749998
1.4518066406249999
1.490478515625
1.4759765624999999
1.4928955078125
1.4783935546875
2.6353271484375
2.0496093749999997
1.4751708984374998
1.3833251953124999
1.219775390625
1.5686279296874999
1.2189697265625
0.8032470703125
0.9547119140625
1.1964111328125
1.4010498046875
1.5218994140625
1.5299560546875
1.6395263671875
1.6645019531249998
1.6491943359374999
1.6927001953124998
1.6556396484375
1.6411376953124999
1.62744140625
1.625830078125
0.3021240234375
1.042529296875
1.654833984375
1.7813232421874998
1.972265625
2.18173828125
2.1986572265624997
3.005126953125
2.2002685546875
1.7958251953125
1.5678222656249998
1.477587890625
1.4832275390624998
1.4493896484375
1.533984375
1.47275390625
1.4115234374999999
1.4759765624999999
1.4558349609374999
1.4800048828124999
1.4816162109375
1.71123046875
2.5402587890625
1.4864501953125
1.3849365234375
1.271337890625
1.4066894531249998
1.22138671875
0.8846191406249999
0.8548095703124999
1.1593505859375
1.380908203125
1.496923828125
1.53720703125
1.61455078125
1.6798095703125
1.6830322265625
1.6773925781249999
1.603271484375
1.6363037109374998
1.6290527343749999
1.61455078125
1.3825195312499998
0.9514892578124999
1.6403320312499998
1.7104248046875
1.8522216796875
2.3211181640625
1.9706542968749998
2.8496337890624996
2.2373291015625
1.8111328125
1.6089111328124999
1.4977294921875
1.4848388671875
1.5186767578125
1.4800048828124999
1.4606689453125
1.4276367187499999
1.4115234374999999
1.4574462890625
1.461474609375
1.480810546875
1.5517089843749998
2.65869140625
1.63388671875
1.4373046875
1.3156494140625
1.0675048828125
0.7541015624999999
0.7081787109375
0.8660888671875
1.0578369140625
1.3341796874999998
1.4920898437499999
1.55009765625
1.5662109375
1.641943359375
1.6403320312499998
1.6451660156249999
1.6886718749999998
1.6701416015625
1.6435546875
1.6443603515624998
1.5106201171875
0.35771484374999996
1.48564453125
1.7208984374999998
1.883642578125
1.8755859375
2.131787109375
3.0099609375
2.4032958984375
1.8747802734374999
1.5645996093749999
1.5082031249999999
1.4735595703125
1.47275390625
1.4751708984374998
1.4493896484375
1.4284423828125
1.4477783203124999
1.4896728515625
1.4945068359375
1.4912841796874998
1.4920898437499999
2.776318359375
1.6508056640625
1.41796875
1.3575439453125
1.2318603515625
0.797607421875
0.5244873046874999
0.8604492187499999
1.061865234375
1.2987304687499999
1.477587890625
1.53720703125
1.574267578125
1.6669189453125
1.65
1.6693359374999999
1.6781982421875
1.6282470703124998
1.6427490234375
1.6435546875
1.606494140625
0.28842773437499997
1.4252197265625
1.7257324218749999
1.7845458984375
1.8941162109374998
1.703173828125
2.44599609375
2.6047119140625
1.9706542968749998
1.67578125
1.5299560546875
1.4993408203124998
1.5428466796875
1.4920898437499999
1.4888671875
1.4751708984374998
1.4115234374999999
1.4848388671875
1.4679199218749999
1.4703369140625
1.4606689453125
2.7005859374999996
2.0004638671875
1.4912841796874998
1.3849365234375
1.232666015625
1.654833984375
0.46567382812499997
0.8225830078124999
0.9490722656249999
1.2141357421874999
1.4437499999999999
1.53076171875
1.52109375
1.662890625
1.6717529296875
1.6371093749999999
1.6717529296875
1.62744140625
1.6266357421875
1.638720703125
1.6266357421875
0.2578125
1.0916748046875
1.735400390625
1.796630859375
1.9746826171874998
1.5436523437499998
2.3307861328125
2.9946533203124996
2.151123046875
1.6395263671875
1.55009765625
1.4912841796874998
1.5025634765625
1.4598632812499999
1.4977294921875
1.458251953125
1.4348876953124998
1.4896728515625
1.4687255859375
1.4912841796874998
1.4630859374999998
1.8304687499999999
2.0625
1.4840332031249999
1.3825195312499998
1.2189697265625
1.56943359375
1.203662109375
0.7065673828125
0.9482666015625
1.190771484375
1.41796875
1.5073974609374998
1.5009521484375
1.60166015625
1.6161621093749998
1.6346923828125
1.7007568359374998
1.651611328125
1.67900390625
1.6814208984374999
1.6524169921874998
0.2634521484375
1.003857421875
1.6201904296874998
1.7660156249999999
1.9940185546875
2.23330078125
1.8828369140624999
3.0075439453125
2.10439453125
1.7297607421874999
1.5766845703124999
1.4880615234374999
1.4735595703125
1.490478515625
1.509814453125
1.4791992187499998
1.4276367187499999
1.496923828125
1.4606689453125
1.4671142578124998
1.4880615234374999
1.6814208984374999
2.56845703125
1.590380859375
1.3623779296874998
1.2673095703125
0.9410156249999999
1.29228515625
0.8483642578124999
0.837890625
1.0739501953125
1.3849365234375
1.4961181640624999
1.5404296874999999
1.6234130859375
1.6322753906249998
1.641943359375
1.6588623046875
1.60166015625
1.638720703125
1.662890625
1.6540283203125
1.43408203125
0.404443359375
1.6556396484375
1.722509765625
1.8763916015625
2.3742919921875
2.03671875
2.771484375
2.518505859375
1.786962890625
1.5766845703124999
1.4671142578124998
1.4630859374999998
1.5017578125
1.5090087890625
1.5057861328125
1.4767822265625
1.4058837890625
1.464697265625
1.4590576171874998
1.4872558593749998
1.49853515625
2.6611083984375
1.5927978515624999
1.40830078125
1.2898681640624998
1.1206787109375
0.7549072265625
0.5204589843749999
0.8322509765624999
1.042529296875
1.3156494140625
1.474365234375
1.5267333984375
1.56298828125
1.6572509765624999
1.6564453124999998
1.6564453124999998
1.687060546875
1.6717529296875
1.66611328125
1.6371093749999999
1.5162597656249999
0.34482421874999997
1.5106201171875
1.7233154296875
1.8747802734374999
1.877197265625
1.8868652343749999
2.9511474609375
2.4758056640625
1.8876708984375
1.56298828125
1.5251220703125
1.4920898437499999
1.5323730468749999
1.4800048828124999
1.4630859374999998
1.4348876953124998
1.4437499999999999
1.48564453125
1.46953125
1.47275390625
1.490478515625
2.7964599609375
1.9384277343749998
1.4042724609375
1.364794921875
1.276171875
0.75732421875
0.572021484375
0.8306396484374999
0.9885498046875
1.319677734375
1.4469726562499998
1.5243164062499999
1.5702392578125
1.6733642578124999
1.6612792968749999
1.6363037109374998
1.6967285156249998
1.6201904296874998
1.635498046875
1.6209960937499999
1.63388671875
0.17885742187499998
1.426025390625
1.703173828125
1.8103271484374999
1.88525390625
1.658056640625
2.62646484375
2.9140869140624996
1.92392578125
1.6451660156249999
1.542041015625
1.4872558593749998
1.546875
1.4719482421874999
1.45341796875
1.4953124999999998
1.409912109375
1.4381103515625
1.4477783203124999
1.48564453125
1.4896728515625
2.731201171875
2.006103515625
1.4574462890625
1.3873535156249999
1.264892578125
1.6781982421875
1.0046630859374999
0.8403076171874999
0.9450439453124999
1.2060791015624999
1.4308593749999998
1.5162597656249999
1.5057861328125
1.6282470703124998
1.670947265625
1.6806152343749998
1.670947265625
1.6403320312499998
1.65
1.6346923828125
1.6153564453125
0.2441162109375
1.0755615234375
1.658056640625
1.7716552734375
1.9714599609374999
2.054443359375
2.37509765625
3.0099609375
2.1970458984375
1.6532226562499999
1.5323730468749999
1.5057861328125
1.4848388671875
1.46630859375
1.5275390624999998
1.4638916015624999
1.4123291015625
1.461474609375
1.46953125
1.496923828125
1.49853515625
1.8457763671874998
2.462109375
1.4961181640624999
1.3664062499999998
1.2576416015624998
1.546875
1.2109130859375
0.865283203125
0.8515869140625
1.1778808593749999
1.3623779296874998
1.4751708984374998
1.538818359375
1.6540283203125
1.6346923828125
1.6483886718749998
1.6806152343749998
1.6201904296874998
1.64677734375
1.65
1.6314697265625
1.1722412109375
1.0288330078124999
1.6451660156249999
1.7466796875
1.8860595703124998
2.2308837890624997
1.864306640625
3.018017578125
2.1060058593749997
1.7217041015624999
1.5678222656249998
1.50498046875
1.5025634765625
1.4945068359375
1.4800048828124999
1.442138671875
1.432470703125
1.3929931640625
1.4759765624999999
1.4800048828124999
1.480810546875
1.6653076171874999
2.5877929687499996
1.6072998046875
1.4203857421875
1.2890625
0.952294921875
0.8290283203125
0.710595703125
0.8830078124999999
1.0803955078125
1.3623779296874998
1.4816162109375
1.5106201171875
1.58232421875
1.6532226562499999
1.622607421875
1.6379150390625
1.6636962890625
1.6725585937499998
1.6427490234375
1.6153564453125
1.393798828125
0.41411132812499996
1.513037109375
1.7611816406249998
1.877197265625
1.880419921875
2.0294677734374997
2.8657470703124996
2.4435791015625
1.9279541015625
1.5662109375
1.5476806640624998
1.50498046875
1.525927734375
1.47275390625
1.47275390625
1.4598632812499999
1.4268310546874998
1.4920898437499999
1.4800048828124999
1.4864501953125
1.4461669921875
2.785986328125
1.635498046875
1.4332763671875
1.364794921875
1.1150390625
0.7710205078125
0.6002197265625
0.8523925781249999
1.03447265625
1.2826171874999999
1.4316650390624999
1.5299560546875
1.5597656249999998
1.65966796875
1.6612792968749999
1.65966796875
1.6532226562499999
1.609716796875
1.6346923828125
1.611328125
1.6314697265625
0.3424072265625
1.482421875
1.735400390625
1.7909912109375
1.8812255859375
1.8707519531249999
2.5152832031249996
2.6031005859375
1.9867675781249998
1.6693359374999999
1.5154541015624998
1.480810546875
1.4953124999999998
1.4348876953124998
1.464697265625
1.513037109375
1.4373046875
1.4671142578124998
1.4638916015624999
1.4767822265625
1.4703369140625
2.7561767578125
1.9408447265625
1.4671142578124998
1.3720458984375
1.2536132812499998
1.638720703125
0.49306640625
0.8757568359375
0.9917724609374999
1.2383056640624999
1.4574462890625
1.5186767578125
1.5202880859374999
1.6612792968749999
1.6693359374999999
1.6491943359374999
1.6967285156249998
1.654833984375
1.64677734375
1.6056884765625
1.6185791015625
0.21591796875
1.164990234375
1.7337890624999999
1.7853515624999998
1.9658203125
1.622607421875
2.6683593749999996
2.8593017578124997
2.0302734375
1.6137451171875
1.542041015625
1.5186767578125
1.5436523437499998
1.5243164062499999
1.5057861328125
1.4791992187499998
1.4469726562499998
1.4397216796874999
1.40830078125
1.4203857421875
1.4501953125
1.9916015624999999
2.0431640625
1.496923828125
1.405078125
1.2286376953125
1.6427490234375
1.14404296875
0.7968017578125
0.942626953125
1.1770751953125
1.4026611328124998
1.5243164062499999
1.5122314453124999
1.6177734375
1.6209960937499999
1.658056640625
1.7217041015624999
1.6346923828125
1.6564453124999998
1.651611328125
1.635498046875
0.26022949218749997
1.0731445312499999
1.6314697265625
1.7418457031249999
1.9762939453125
2.0584716796875
1.8570556640625
2.9672607421875
2.1454833984375
1.754736328125
1.5637939453124998
1.506591796875
1.4864501953125
1.4945068359375
1.51787109375
1.4711425781249998
1.4550292968749998
1.4606689453125
1.4510009765624998
1.46953125
1.4751708984374998
1.8312744140625
2.4991699218749996
1.5984375
1.37607421875
1.2673095703125
0.8725341796874999
1.1077880859375
0.8846191406249999
0.8483642578124999
1.1255126953124999
1.409912109375
1.5057861328125
1.5146484375
1.6346923828125
1.6435546875
1.651611328125
1.67578125
1.6177734375
1.6298583984375
1.6459716796875
1.6379150390625
1.2060791015624999
0.546240234375
1.674169921875
1.7507080078125
1.8949218749999999
1.9343994140624998
1.8763916015625
2.9527587890625
2.3823486328125
1.7466796875
1.5718505859374998
1.5122314453124999
1.4816162109375
1.4711425781249998
1.4832275390624998
1.46630859375
1.4195800781249999
1.3857421875
1.4928955078125
1.4791992187499998
1.4953124999999998
1.4751708984374998
2.5902099609375
1.6081054687499998
1.4236083984374999
1.3664062499999998
0.9990234375
0.7734375
0.543017578125
0.849169921875
1.0594482421875
1.3446533203125
1.4501953125
1.5251220703125
1.5678222656249998
1.6604736328124998
1.6572509765624999
1.6322753906249998
1.7289550781249998
1.6645019531249998
1.6379150390625
1.6379150390625
1.6242187499999998
0.4471435546875
1.5323730468749999
1.73056640625
1.87236328125
1.928759765625
2.102783203125
2.977734375
2.3436767578124997
1.8788085937499999
1.6056884765625
1.4703369140625
1.426025390625
1.4912841796874998
1.5444580078124999
1.5275390624999998
1.458251953125
1.405078125
1.46953125
1.4598632812499999
1.46630859375
1.4751708984374998
2.811767578125
1.9086181640625
1.41796875
1.3672119140624999
1.2890625
0.7500732421874999
0.526904296875
0.8572265625
0.9708251953125
1.3092041015625
1.432470703125
1.5106201171875
1.56943359375
1.6459716796875
1.6636962890625
1.6403320312499998
1.7120361328125
1.670947265625
1.654833984375
1.6266357421875
1.5718505859374998
0.149853515625
1.4598632812499999
1.716064453125
1.815966796875
1.9859619140625
1.85302734375
2.4943359375
2.8770263671875
1.9472900390624999
1.667724609375
1.5484863281249999
1.4872558593749998
1.5106201171875
1.46630859375
1.474365234375
1.46953125
1.416357421875
1.456640625
1.482421875
1.482421875
1.477587890625
2.7497314453125
1.9198974609375
1.4598632812499999
1.4268310546874998
1.2705322265624999
1.658056640625
0.8918701171875
0.8338623046875
0.9643798828125
1.2076904296875
1.4091064453125
1.525927734375
1.5033691406249998
1.6081054687499998
1.6491943359374999
1.6459716796875
1.7184814453125
1.6701416015625
1.6685302734374998
1.6443603515624998
1.6201904296874998
0.22236328125
1.11826171875
1.6153564453125
1.8232177734375
2.035107421875
1.8659179687499998
2.4677490234375
2.9277832031249997
2.064111328125
1.7072021484375
1.5605712890624999
1.4977294921875
1.506591796875
1.4574462890625
1.46630859375
1.4526123046875
1.46953125
1.480810546875
1.49853515625
1.482421875
1.4735595703125
1.9537353515625
2.383154296875
1.4840332031249999
1.413134765625
1.26005859375
0.88623046875
1.1142333984375
0.7404052734375
0.889453125
1.1819091796874999
1.4123291015625
1.4928955078125
1.522705078125
1.6306640625
1.6000488281249998
1.6403320312499998
1.6991455078125
1.6653076171874999
1.67578125
1.6330810546874999
1.6105224609375
1.0489746093749999
0.630029296875
1.67900390625
1.7531249999999998
1.88525390625
2.0665283203125
1.8498046874999998
2.9825683593749996
2.3243408203125
1.73056640625
1.5686279296874999
1.5106201171875
1.5090087890625
1.4928955078125
1.48564453125
1.4655029296875
1.409912109375
1.393798828125
1.458251953125
1.4816162109375
1.480810546875
1.46953125
2.4685546874999997
1.5807128906249999
1.4147460937499998
1.2745605468749999
0.881396484375
0.9369873046874999
0.6550048828124999
0.8531982421875
1.0739501953125
1.329345703125
1.5025634765625
1.5565429687499999
1.5726562499999999
1.6121337890624998
1.61455078125
1.6894775390624999
1.735400390625
1.6653076171874999
1.662890625
1.6346923828125
1.3156494140625
0.5035400390625
1.55009765625
1.7450683593749998
1.915869140625
1.93359375
2.3195068359374997
2.8069335937499997
2.45888671875
1.8659179687499998
1.5895751953125
1.506591796875
1.4896728515625
1.5170654296875
1.5025634765625
1.490478515625
1.482421875
1.3792968749999999
1.456640625
1.4816162109375
1.47275390625
1.4687255859375
2.8166015625
1.8369140625
1.4066894531249998
1.3607666015625
1.3083984375
0.8000244140624999
0.605859375
0.8403076171874999
0.9772705078124999
1.3390136718749999
1.4510009765624998
1.5138427734375
1.5444580078124999
1.65
1.65966796875
1.651611328125
1.7329833984374998
1.6508056640625
1.6443603515624998
1.625830078125
1.6161621093749998
0.185302734375
1.5315673828124998
1.740234375
1.8071044921875
1.8747802734374999
2.0439697265625
2.79404296875
2.776318359375
1.8731689453125
1.6008544921874999
1.4791992187499998
1.445361328125
1.5001464843749999
1.493701171875
1.4872558593749998
1.456640625
1.4477783203124999
1.4469726562499998
1.490478515625
1.4840332031249999
1.47275390625
2.7803466796875
1.8908935546874999
1.45341796875
1.364794921875
1.29228515625
1.62744140625
0.878173828125
0.8362792968749999
1.003857421875
1.248779296875
1.4759765624999999
1.5170654296875
1.509814453125
1.6314697265625
1.651611328125
1.6427490234375
1.67900390625
1.65966796875
1.6435546875
1.6604736328124998
1.6290527343749999
0.22316894531249998
1.22138671875
1.67900390625
1.796630859375
1.9472900390624999
1.6717529296875
2.63291015625
2.8206298828125
2.0310791015625
1.6556396484375
1.538818359375
1.4896728515625
1.4888671875
1.493701171875
1.4638916015624999
1.4590576171874998
1.413134765625
1.4469726562499998
1.4735595703125
1.490478515625
1.4896728515625
2.1301757812499997
2.2969482421875
1.4711425781249998
1.4107177734374998
1.24716796875
1.6435546875
0.9240966796875
0.90556640625
0.8934814453125
1.219775390625
1.4219970703125
1.4928955078125
1.4872558593749998
1.6218017578125
1.611328125
1.67578125
1.65966796875
1.6322753906249998
1.6427490234375
1.63388671875
1.6177734375
0.8564208984374999
1.1295410156249999
1.6532226562499999
1.7474853515625
1.912646484375
1.9231201171874999
1.8377197265624998
2.96162109375
2.1019775390624997
1.73056640625
1.5887695312499999
1.51787109375
1.5162597656249999
1.5025634765625
1.4888671875
1.4687255859375
1.4268310546874998
1.4219970703125
1.4655029296875
1.4630859374999998
1.4630859374999998
1.9352050781249999
2.392822265625
1.611328125
1.3994384765624999
1.2544189453124999
0.8443359374999999
1.042529296875
0.9490722656249999
0.833056640625
1.0771728515624999
1.3623779296874998
1.5154541015624998
1.5533203125
1.5492919921875
1.6395263671875
1.6604736328124998
1.6298583984375
1.6604736328124998
1.6524169921874998
1.6459716796875
1.6282470703124998
1.02802734375
0.6034423828125
1.5919921874999998
1.7466796875
1.9142578124999998
2.01416015625
2.047998046875
2.9390625
2.167236328125
1.7692382812499998
1.5492919921875
1.490478515625
1.474365234375
1.4920898437499999
1.480810546875
1.46953125
1.458251953125
1.40830078125
1.46953125
1.47275390625
1.47275390625
1.4751708984374998
2.8214355468749996
1.5960205078124998
1.4195800781249999
1.3462646484374998
0.9337646484375
0.90234375
0.7146240234375
0.8193603515625
1.0658935546875
1.3494873046875
1.4848388671875
1.5283447265624999
1.5847412109374999
1.6459716796875
1.641943359375
1.6475830078125
1.7579589843749999
1.6733642578124999
1.6435546875
1.64677734375
1.59521484375
0.526904296875
1.5654052734375
1.7217041015624999
1.8296630859374998
1.9182861328124998
2.280029296875
2.747314453125
2.3436767578124997
1.8409423828125
1.6234130859375
1.522705078125
1.48564453125
1.5082031249999999
1.4880615234374999
1.4832275390624998
1.4961181640624999
1.4123291015625
1.461474609375
1.4711425781249998
1.4783935546875
1.4687255859375
2.8190185546874997
1.843359375
1.4510009765624998
1.3583496093749998
1.2930908203125
1.5436523437499998
0.6413085937499999
0.825
0.9949951171875
1.2439453125
1.4389160156249998
1.5243164062499999
1.4961181640624999
1.67900390625
1.6612792968749999
1.687060546875
1.6886718749999998
1.635498046875
1.6491943359374999
1.635498046875
1.6306640625
0.2054443359375
1.232666015625
1.7507080078125
1.8087158203125
1.9650146484375
1.98837890625
2.5797363281249996
2.8456054687499996
2.0455810546874997
1.6403320312499998
1.533984375
1.4993408203124998
1.4945068359375
1.4767822265625
1.4687255859375
1.4816162109375
1.426025390625
1.445361328125
1.4800048828124999
1.4816162109375
1.4687255859375
2.2534423828125
1.9102294921874998
1.4679199218749999
1.3962158203125
1.26005859375
1.635498046875
0.9176513671875
0.825
0.9966064453125
1.2254150390625
1.4268310546874998
1.525927734375
1.5299560546875
1.6346923828125
1.6242187499999998
1.6435546875
1.690283203125
1.66611328125
1.658056640625
1.638720703125
1.6177734375
0.18046874999999998
1.229443359375
1.6685302734374998
1.7692382812499998
1.9859619140625
1.722509765625
1.9666259765624998
2.7932373046874996
1.9924072265625
1.6943115234375
1.5146484375
1.5001464843749999
1.4993408203124998
1.4832275390624998
1.477587890625
1.4461669921875
1.448583984375
1.4993408203124998
1.4687255859375
1.4655029296875
1.4751708984374998
2.051220703125
2.325146484375
1.545263671875
1.3994384765624999
1.24072265625
0.8999267578125
1.1021484375
0.8104980468749999
0.87333984375
1.1206787109375
1.384130859375
1.4920898437499999
1.5355957031249998
1.635498046875
1.61455078125
1.6403320312499998
1.6798095703125
1.6435546875
1.65966796875
1.6524169921874998
1.6282470703124998
0.961962890625
0.662255859375
1.6459716796875
1.7603759765625
1.9102294921874998
1.960986328125
1.8739746093749998
2.8697753906249996
2.341259765625
1.7684326171875
1.571044921875
1.5138427734375
1.50498046875
1.5138427734375
1.474365234375
1.4735595703125
1.4550292968749998
1.3913818359374999
1.4558349609374999
1.4800048828124999
1.4711425781249998
1.46953125
2.4242431640624997
1.56298828125
1.3873535156249999
1.24072265625
0.862060546875
1.00546875
0.72509765625
0.878173828125
1.1150390625
1.351904296875
1.5154541015624998
1.5315673828124998
1.5879638671874998
1.6669189453125
1.6620849609375
1.69833984375
1.7450683593749998
1.6636962890625
1.6371093749999999
1.62744140625
1.1496826171874999
0.5526855468749999
1.5839355468749998
1.7184814453125
1.8892822265625
1.998046875
2.3960449218749997
2.969677734375
2.3501220703125
1.85625
1.5726562499999999
1.4888671875
1.48564453125
1.474365234375
1.4832275390624998
1.4655029296875
1.4501953125
1.400244140625
1.4840332031249999
1.4872558593749998
1.4993408203124998
1.5138427734375
2.8512451171874997
1.8143554687499999
1.3962158203125
1.3212890625
1.3148437499999999
0.8338623046875
0.597802734375
0.8209716796875
1.0030517578125
1.3543212890624998
1.45341796875
1.5299560546875
1.58232421875
1.6725585937499998
1.670947265625
1.6379150390625
1.7450683593749998
1.6781982421875
1.641943359375
1.6532226562499999
1.61455078125
0.1780517578125
1.5436523437499998
1.7668212890625
1.8062988281249999
1.9062011718749998
2.2598876953125
2.8012939453124996
2.6933349609375
1.848193359375
1.59521484375
1.5154541015624998
1.4848388671875
1.5073974609374998
1.4848388671875
1.477587890625
1.4622802734375
1.4381103515625
1.432470703125
1.4598632812499999
1.4719482421874999
1.49853515625
2.8166015625
1.8570556640625
1.4518066406249999
1.3801025390625
1.329345703125
1.546875
0.7758544921874999
0.8451416015625
0.9869384765625
1.224609375
1.400244140625
1.5146484375
1.4993408203124998
1.64677734375
1.6564453124999998
1.6451660156249999
1.6862548828125
1.6443603515624998
1.65966796875
1.651611328125
1.6588623046875
0.2038330078125
1.2705322265624999
1.6822265625
1.76279296875
1.9360107421875
1.5380126953125
2.56201171875
2.8552734374999997
2.08505859375
1.7200927734375
1.546875
1.4848388671875
1.5114257812499998
1.5041748046874999
1.45341796875
1.4542236328125
1.4123291015625
1.43408203125
1.4630859374999998
1.4590576171874998
1.4864501953125
2.2751953124999997
2.263916015625
1.4791992187499998
1.4107177734374998
1.2286376953125
1.6572509765624999
0.8258056640625
0.849169921875
0.8934814453125
1.2109130859375
1.416357421875
1.50498046875
1.5017578125
1.6314697265625
1.6137451171875
1.635498046875
1.699951171875
1.658056640625
1.65966796875
1.6524169921874998
1.6056884765625
0.7726318359375
1.1867431640625
1.6564453124999998
1.7861572265624999
1.9360107421875
1.7442626953125
1.8699462890624998
2.995458984375
2.07216796875
1.7378173828124999
1.5887695312499999
1.5025634765625
1.4719482421874999
1.445361328125
1.4679199218749999
1.4638916015624999
1.4526123046875
1.4630859374999998
1.48564453125
1.4687255859375
1.47275390625
2.067333984375
2.3791259765625
1.5670166015625
1.4058837890625
1.2350830078125
0.8846191406249999
1.119873046875
0.6912597656249999
0.887841796875
1.1021484375
1.368017578125
1.4953124999999998
1.5396240234374998
1.603271484375
1.6379150390625
1.6701416015625
1.6564453124999998
1.658056640625
1.6749755859375
1.64677734375
1.625830078125
0.966796875
0.64453125
1.6089111328124999
1.7772949218749998
1.9231201171874999
2.1052001953125
1.8361083984375
2.953564453125
2.28486328125
1.835302734375
1.593603515625
1.4977294921875
1.464697265625
1.4735595703125
1.4783935546875
1.4848388671875
1.4115234374999999
1.400244140625
1.4606689453125
1.474365234375
1.4767822265625
1.477587890625
2.81015625
1.5662109375
1.377685546875
1.3188720703124999
0.8467529296874999
1.02158203125
0.700927734375
0.8572265625
1.110205078125
1.361572265625
1.4630859374999998
1.5315673828124998
1.5758789062499998
1.6395263671875
1.65966796875
1.6612792968749999
1.7200927734375
1.6588623046875
1.6508056640625
1.6201904296874998
1.6121337890624998
0.233642578125
1.603271484375
1.7337890624999999
1.8393310546875
1.993212890625
2.39765625
2.6047119140625
2.4121582031249997
1.867529296875
1.6242187499999998
1.538818359375
1.4719482421874999
1.5017578125
1.4719482421874999
1.4767822265625
1.493701171875
1.4348876953124998
1.4711425781249998
1.4598632812499999
1.4526123046875
1.4759765624999999
2.8319091796875
1.780517578125
1.4284423828125
1.3301513671874998
1.2987304687499999
1.3664062499999998
0.6195556640625
0.8572265625
0.994189453125
1.2374999999999998
1.4719482421874999
1.5380126953125
1.5396240234374998
1.6540283203125
1.641943359375
1.6435546875
1.7128417968749998
1.6886718749999998
1.6435546875
1.62744140625
1.5863525390625
0.191748046875
1.3229003906249999
1.740234375
1.8022705078124999
1.93681640625
1.4719482421874999
2.8012939453124996
2.70703125
1.9940185546875
1.6089111328124999
1.5364013671874999
1.445361328125
1.4783935546875
1.4719482421874999
1.4469726562499998
1.4244140625
1.46953125
1.474365234375
1.4888671875
1.4912841796874998
1.4993408203124998
2.4113525390625
2.2469970703124997
1.4493896484375
1.4300537109375
1.2205810546875
1.5533203125
0.775048828125
0.726708984375
0.9095947265625
1.21494140625
1.4091064453125
1.5114257812499998
1.5283447265624999
1.6346923828125
1.6411376953124999
1.6411376953124999
1.7015624999999999
1.654833984375
1.6459716796875
1.6290527343749999
1.6218017578125
0.5389892578125
1.271337890625
1.6846435546874998
1.7490966796874998
1.9521240234375
1.5670166015625
1.9827392578124998
3.0228515624999996
2.05283203125
1.69189453125
1.55009765625
1.482421875
1.5041748046874999
1.506591796875
1.5670166015625
1.4961181640624999
1.426025390625
1.464697265625
1.4598632812499999
1.4679199218749999
1.477587890625
2.2711669921874997
2.247802734375
1.529150390625
1.400244140625
1.22783203125
1.0626708984375
1.2399169921875
0.855615234375
0.913623046875
1.142431640625
1.361572265625
1.4816162109375
1.513037109375
1.6169677734374999
1.65
1.7015624999999999
1.6653076171874999
1.635498046875
1.5984375
1.587158203125
1.625830078125
0.8403076171874999
0.800830078125
1.641943359375
1.76279296875
1.9070068359374999
2.255859375
1.8457763671874998
2.9100585937499996
2.3799316406249997
1.85625
1.5678222656249998
1.5146484375
1.52109375
1.4671142578124998
1.458251953125
1.4791992187499998
1.4381103515625
1.458251953125
1.4558349609374999
1.45341796875
1.4598632812499999
1.46953125
2.7577880859375
1.56943359375
1.3954101562499999
1.31162109375
0.863671875
1.139208984375
0.7218749999999999
0.8854248046875
1.15693359375
1.4058837890625
1.4711425781249998
1.5170654296875
1.5718505859374998
1.6612792968749999
1.658056640625
1.6910888671875
1.754736328125
1.67578125
1.6395263671875
1.60166015625
1.5718505859374998
0.2457275390625
1.5927978515624999
1.7208984374999998
1.8441650390625
2.1221191406249997
2.3879882812499997
2.8955566406249997
2.2671386718749997
1.8014648437499998
1.5919921874999998
1.5073974609374998
1.4767822265625
1.5186767578125
1.4711425781249998
1.4832275390624998
1.4252197265625
1.4510009765624998
1.4993408203124998
1.4751708984374998
1.46953125
1.4638916015624999
2.8230468749999997
1.7684326171875
1.4679199218749999
1.3349853515624999
1.3092041015625
1.11181640625
0.6163330078125
0.8403076171874999
1.010302734375
1.2753662109375
1.4477783203124999
1.5138427734375
1.5460693359375
1.667724609375
1.6636962890625
1.6588623046875
1.6749755859375
1.6508056640625
1.65
1.6306640625
1.5992431640625
0.2199462890625
1.3430419921874999
1.7176757812499999
1.8014648437499998
1.9198974609375
1.542041015625
2.7328124999999996
2.6699707031249997
1.9795166015624999
1.6314697265625
1.5355957031249998
1.4848388671875
1.5106201171875
1.474365234375
1.4413330078125
1.4590576171874998
1.4276367187499999
1.456640625
1.4558349609374999
1.474365234375
1.4880615234374999
2.57490234375
1.8312744140625
1.4437499999999999
1.400244140625
1.2052734375
1.3591552734374999
0.501123046875
0.825
0.978076171875
1.2544189453124999
1.432470703125
1.529150390625
1.5396240234374998
1.6886718749999998
1.6967285156249998
1.7184814453125
1.6886718749999998
1.6435546875
1.6169677734374999
1.6209960937499999
1.6298583984375
0.3681884765625
1.3140380859374998
1.6959228515625
1.79501953125
1.948095703125
1.5138427734375
2.054443359375
2.7755126953125
2.0262451171875
1.6846435546874998
1.5444580078124999
1.496923828125
1.5275390624999998
1.4912841796874998
1.4558349609374999
1.4469726562499998
1.4115234374999999
1.4203857421875
1.46953125
1.4791992187499998
1.4816162109375
2.4161865234374997
2.1978515625
1.5396240234374998
1.377685546875
1.1915771484375
1.2254150390625
0.7710205078125
0.7661865234374999
0.936181640625
1.16337890625
1.4550292968749998
1.529150390625
1.5476806640624998
1.651611328125
1.6250244140624999
1.622607421875
1.6379150390625
1.674169921875
1.6645019531249998
1.6508056640625
1.6024658203125
0.514013671875
0.862060546875
1.6773925781249999
1.7692382812499998
1.9456787109375
2.350927734375
2.0085205078125
2.9986816406249996
2.1922119140625
1.6943115234375
1.5766845703124999
1.4888671875
1.5090087890625
1.46630859375
1.5041748046874999
1.4711425781249998
1.4413330078125
1.490478515625
1.4679199218749999
1.4598632812499999
1.4590576171874998
1.4638916015624999
2.263916015625
1.58232421875
1.413134765625
1.3382080078124998
1.039306640625
1.239111328125
0.7476562499999999
0.8926757812499999
1.1448486328125
1.368017578125
1.4493896484375
1.5492919921875
1.6008544921874999
1.651611328125
1.6330810546874999
1.6645019531249998
1.6588623046875
1.6749755859375
1.6403320312499998
1.625830078125
1.577490234375
0.768603515625
1.606494140625
1.73056640625
1.9360107421875
2.2711669921874997
2.296142578125
2.977734375
2.3066162109375
1.8473876953125
1.63388671875
1.5146484375
1.474365234375
1.5017578125
1.4977294921875
1.4800048828124999
1.4840332031249999
1.4429443359374998
1.4332763671875
1.4389160156249998
1.4703369140625
1.49853515625
2.7908203124999997
1.7208984374999998
1.3986328124999998
1.3301513671874998
1.264892578125
1.1150390625
0.7645751953125
0.8201660156249999
1.03125
1.340625
1.4655029296875
1.5251220703125
1.5831298828125
1.6322753906249998
1.638720703125
1.6564453124999998
1.7072021484375
1.71123046875
1.6773925781249999
1.6451660156249999
1.6282470703124998
0.2118896484375
1.571044921875
1.6991455078125
1.8183837890624999
1.9182861328124998
2.4041015624999997
2.7771240234374996
2.6627197265625
1.8417480468749998
1.60166015625
1.513037109375
1.4920898437499999
1.490478515625
1.4719482421874999
1.4751708984374998
1.426025390625
1.448583984375
1.509814453125
1.4864501953125
1.4783935546875
1.464697265625
2.8061279296875
1.7466796875
1.4501953125
1.405078125
1.2947021484374999
1.1674072265625
0.6582275390625
0.87333984375
1.0449462890624999
1.2584472656249999
1.4364990234375
1.5114257812499998
1.5170654296875
1.6451660156249999
1.6475830078125
1.6242187499999998
1.6943115234375
1.6781982421875
1.6435546875
1.6411376953124999
1.6282470703124998
0.233642578125
1.348681640625
1.687060546875
1.8006591796875
1.9303710937499998
1.480810546875
2.8141845703125
2.6232421875
1.9746826171874998
1.6717529296875
1.53076171875
1.4928955078125
1.5122314453124999
1.46953125
1.4469726562499998
1.474365234375
1.4501953125
1.4671142578124998
1.493701171875
1.4687255859375
1.4719482421874999
2.502392578125
2.1245361328125
1.4501953125
1.4268310546874998
1.2205810546875
1.4187744140624998
0.588134765625
0.8499755859375
0.9007324218749999
1.232666015625
1.4155517578124999
1.4832275390624998
1.5283447265624999
1.6773925781249999
1.67578125
1.6403320312499998
1.7023681640625
1.6749755859375
1.6371093749999999
1.6330810546874999
1.63388671875
0.459228515625
1.3059814453124998
1.6910888671875
1.7990478515625
1.9730712890625
1.513037109375
2.0334960937499997
2.9624267578124996
2.03994140625
1.6894775390624999
1.5718505859374998
1.509814453125
1.5170654296875
1.4816162109375
1.5396240234374998
1.4477783203124999
1.413134765625
1.482421875
1.4622802734375
1.4719482421874999
1.4703369140625
2.4000732421874997
2.199462890625
1.5243164062499999
1.3704345703124998
1.198828125
1.181103515625
1.2544189453124999
0.855615234375
0.88623046875
1.116650390625
1.3656005859375
1.5017578125
1.5170654296875
1.61455078125
1.6475830078125
1.654833984375
1.706396484375
1.66611328125
1.6524169921874998
1.658056640625
1.6483886718749998
0.581689453125
0.8660888671875
1.6395263671875
1.754736328125
1.9593749999999999
2.383154296875
1.944873046875
3.0349365234374996
2.1865722656249997
1.75634765625
1.574267578125
1.496923828125
1.4872558593749998
1.4558349609374999
1.5033691406249998
1.4928955078125
1.4767822265625
1.493701171875
1.4622802734375
1.4550292968749998
1.464697265625
1.4864501953125
2.705419921875
1.5484863281249999
1.3954101562499999
1.332568359375
1.0094970703125
1.2157470703125
0.6501708984375
0.8749511718749999
1.1134277343749999
1.3712402343749999
1.464697265625
1.56298828125
1.61455078125
1.6443603515624998
1.6564453124999998
1.6612792968749999
1.6975341796874999
1.6773925781249999
1.6427490234375
1.6371093749999999
1.5968261718749999
0.7661865234374999
1.6040771484374998
1.6975341796874999
1.8393310546875
2.2292724609375
2.30419921875
2.8915283203124997
2.2260498046875
1.8014648437499998
1.63388671875
1.5114257812499998
1.4896728515625
1.5347900390625
1.49853515625
1.4961181640624999
1.4526123046875
1.3986328124999998
1.4397216796874999
1.4711425781249998
1.47275390625
1.4655029296875
2.7424804687499997
1.674169921875
1.4356933593749999
1.3309570312499999
1.3067871093749999
1.0030517578125
0.7718261718749999
0.8274169921875
1.0465576171875
1.2834228515625
1.4719482421874999
1.5436523437499998
1.5218994140625
1.6653076171874999
1.65
1.6564453124999998
1.7047851562499998
1.6395263671875
1.6475830078125
1.6371093749999999
1.6153564453125
0.275537109375
1.3954101562499999
1.72412109375
1.8731689453125
1.9489013671875
2.4121582031249997
2.6103515625
2.6933349609375
2.0036865234375
1.6081054687499998
1.5243164062499999
1.4953124999999998
1.4945068359375
1.4751708984374998
1.4606689453125
1.4800048828124999
1.409912109375
1.4606689453125
1.477587890625
1.4953124999999998
1.4759765624999999
2.5716796874999996
1.7370117187499998
1.41796875
1.3921875
1.327734375
1.2536132812499998
0.5277099609375
0.84111328125
1.0223876953125
1.2914794921875
1.4429443359374998
1.5364013671874999
1.52109375
1.6564453124999998
1.6653076171874999
1.65966796875
1.6967285156249998
1.6572509765624999
1.6459716796875
1.6282470703124998
1.603271484375
0.207861328125
1.3470703124999999
1.699951171875
1.7692382812499998
1.9311767578124999
1.490478515625
2.2389404296874997
2.6466064453125
1.9916015624999999
1.6701416015625
1.5605712890624999
1.5001464843749999
1.509814453125
1.4469726562499998
1.4429443359374998
1.4348876953124998
1.4461669921875
1.456640625
1.47275390625
1.4719482421874999
1.4864501953125
2.43955078125
2.125341796875
1.5106201171875
1.3865478515624998
1.19560546875
1.3253173828125
0.7371826171875
0.7790771484375
0.9313476562499999
1.1496826171874999
1.4276367187499999
1.5033691406249998
1.5275390624999998
1.6604736328124998
1.6532226562499999
1.65
1.6935058593749999
1.6653076171874999
1.6564453124999998
1.638720703125
1.6290527343749999
0.4922607421875
0.9531005859374999
1.6991455078125
1.786962890625
1.9940185546875
1.546875
2.018994140625
2.989013671875
2.180126953125
1.67900390625
1.5436523437499998
1.4912841796874998
1.5194824218749998
1.4679199218749999
1.522705078125
1.464697265625
1.416357421875
1.4832275390624998
1.4751708984374998
1.4800048828124999
1.4687255859375
1.5138427734375
2.1857666015625
1.5090087890625
1.37607421875
1.2093017578125
1.1021484375
1.2777832031249998
0.878173828125
0.9071777343749999
1.1335693359374999
1.3607666015625
1.5041748046874999
1.52109375
1.59521484375
1.658056640625
1.7015624999999999
1.674169921875
1.6314697265625
1.654833984375
1.6266357421875
1.6024658203125
0.6823974609375
0.8193603515625
1.6443603515624998
1.751513671875
1.9472900390624999
2.30419921875
2.2373291015625
2.9575927734375
2.2856689453125
1.8087158203125
1.58232421875
1.496923828125
1.48564453125
1.4896728515625
1.5114257812499998
1.4953124999999998
1.4687255859375
1.4308593749999998
1.442138671875
1.474365234375
1.482421875
1.4945068359375
2.7328124999999996
1.6556396484375
1.3825195312499998
1.319677734375
1.276171875
1.1666015625
0.68642578125
0.8644775390624999
1.0481689453125
1.3720458984375
1.4590576171874998
1.5509033203125
1.5919921874999998
1.6556396484375
1.66611328125
1.641943359375
1.7072021484375
1.6725585937499998
1.651611328125
1.625830078125
1.60166015625
0.3117919921875
1.6169677734374999
1.735400390625
1.861083984375
1.8868652343749999
2.3597900390624997
2.898779296875
2.4846679687499997
1.815966796875
1.6218017578125
1.525927734375
1.4598632812499999
1.4880615234374999
1.4800048828124999
1.46630859375
1.448583984375
1.4501953125
1.4977294921875
1.4872558593749998
1.47275390625
1.4630859374999998
2.7577880859375
1.7015624999999999
1.4397216796874999
1.3833251953124999
1.329345703125
1.0836181640625
0.5768554687499999
0.8660888671875
1.010302734375
1.2737548828124998
1.4244140625
1.533984375
1.5734619140625
1.6798095703125
1.6443603515624998
1.63388671875
1.6781982421875
1.6524169921874998
1.6483886718749998
1.651611328125
1.625830078125
0.2715087890625
1.3599609375
1.7136474609374999
1.832080078125
1.9198974609375
1.5380126953125
2.1889892578125
2.67158203125
1.9787109374999998
1.6830322265625
1.558154296875
1.5315673828124998
1.5033691406249998
1.5025634765625
1.4630859374999998
1.4598632812499999
1.3664062499999998
1.4655029296875
1.48564453125
1.4872558593749998
1.4671142578124998
2.5434814453124996
2.060888671875
1.429248046875
1.3986328124999998
1.2399169921875
1.4928955078125
0.5341552734375
0.8685058593749999
0.9216796875
1.2592529296875
1.4219970703125
1.5170654296875
1.522705078125
1.6564453124999998
1.6556396484375
1.6685302734374998
1.6798095703125
1.6540283203125
1.651611328125
1.6137451171875
1.5927978515624999
0.42216796874999996
1.019970703125
1.7047851562499998
1.7692382812499998
1.9674316406249999
1.5017578125
2.0697509765624997
3.0236572265625
2.0020751953125
1.6733642578124999
1.5484863281249999
1.4961181640624999
1.4977294921875
1.477587890625
1.5517089843749998
1.4759765624999999
1.4381103515625
1.482421875
1.4735595703125
1.4759765624999999
1.4783935546875
1.587158203125
2.13662109375
1.522705078125
1.3873535156249999
1.2044677734375
1.2721435546875
1.2616699218749998
0.7951904296875
0.9216796875
1.1625732421875
1.3962158203125
1.4993408203124998
1.525927734375
1.6008544921874999
1.6330810546874999
1.6346923828125
1.67578125
1.6693359374999999
1.6685302734374998
1.6540283203125
1.625830078125
0.5293212890625
0.94423828125
1.6636962890625
1.7499023437499999
1.94970703125
2.338037109375
2.09150390625
2.96162109375
2.1422607421874997
1.7507080078125
1.5428466796875
1.5033691406249998
1.5033691406249998
1.490478515625
1.5460693359375
1.5170654296875
1.4816162109375
1.482421875
1.4308593749999998
1.44052734375
1.4630859374999998
1.4888671875
2.6482177734374996
1.5517089843749998
1.405078125
1.3124267578125
1.20849609375
1.2584472656249999
0.7339599609374999
0.8668945312499999
1.142431640625
1.380908203125
1.5033691406249998
1.5557373046874998
1.6121337890624998
1.6483886718749998
1.6540283203125
1.6701416015625
1.6532226562499999
1.6322753906249998
1.6169677734374999
1.6306640625
1.609716796875
0.359326171875
1.6371093749999999
1.7345947265625
1.87236328125
2.2751953124999997
2.2872802734374997
2.6401611328124996
2.2913085937499997
1.8216064453124998
1.6137451171875
1.545263671875
1.4872558593749998
1.5090087890625
1.5114257812499998
1.4920898437499999
1.4687255859375
1.4195800781249999
1.4501953125
1.4429443359374998
1.4848388671875
1.477587890625
2.7078369140625
1.6572509765624999
1.4026611328124998
1.3309570312499999
1.2769775390625
0.9369873046874999
0.7758544921874999
0.8507812499999999
1.0368896484374999
1.2955078125
1.4888671875
1.55009765625
1.561376953125
1.654833984375
1.635498046875
1.65966796875
1.667724609375
1.63388671875
1.65
1.6290527343749999
1.6081054687499998
0.270703125
1.42119140625
1.7217041015624999
1.8465820312499999
1.9086181640625
1.56298828125
2.727978515625
2.6337158203124997
1.9787109374999998
1.590380859375
1.522705078125
1.4848388671875
1.4896728515625
1.4840332031249999
1.4840332031249999
1.4558349609374999
1.4542236328125
1.4767822265625
1.4606689453125
1.4703369140625
1.4896728515625
2.5676513671874996
1.7466796875
1.4171630859375
1.384130859375
1.2262207031249999
1.2181640624999999
0.6574218749999999
0.8104980468749999
1.0167480468749999
1.2826171874999999
1.448583984375
1.5162597656249999
1.5380126953125
1.658056640625
1.6564453124999998
1.63388671875
1.7088134765624998
1.658056640625
1.6427490234375
1.6427490234375
1.62744140625
0.40283203125
1.353515625
1.6878662109375
1.8087158203125
1.9408447265625
1.4872558593749998
2.1680419921875
2.6353271484375
1.9698486328125
1.6717529296875
1.545263671875
1.5041748046874999
1.5114257812499998
1.4590576171874998
1.4735595703125
1.4864501953125
1.43408203125
1.4437499999999999
1.47275390625
1.4671142578124998
1.4703369140625
2.470166015625
2.11083984375
1.4993408203124998
1.40185546875
1.206884765625
1.3301513671874998
0.6815917968749999
0.8628662109374999
0.928125
1.16015625
1.4381103515625
1.49853515625
1.5073974609374998
1.6532226562499999
1.658056640625
1.6556396484375
1.6693359374999999
1.638720703125
1.6282470703124998
1.6540283203125
1.6282470703124998
0.588134765625
0.93779296875
1.6854492187499999
1.7781005859374999
1.9859619140625
2.370263671875
2.0173828124999997
2.9438964843749997
2.2598876953125
1.6854492187499999
1.5476806640624998
1.4816162109375
1.5090087890625
1.4872558593749998
1.5380126953125
1.482421875
1.4236083984374999
