0.8548095703124999
1.1529052734375
1.41796875
1.5186767578125
1.48564453125
1.65
1.6645019531249998
1.6298583984375
1.706396484375
1.6556396484375
1.6451660156249999
1.6298583984375
1.609716796875
0.0475341796875
1.1029541015625
1.6604736328124998
1.7128417968749998
1.8989501953124999
1.4622802734375
3.0317138671875
2.8617187499999996
2.0778076171874997
1.6773925781249999
1.5597656249999998
1.496923828125
1.5428466796875
1.5154541015624998
1.5186767578125
1.5041748046874999
1.448583984375
1.4816162109375
1.5122314453124999
1.506591796875
1.490478515625
2.6280761718749996
2.45888671875
1.5525146484374999
1.4816162109375
1.281005859375
1.6201904296874998
0.7259033203124999
0.7541015624999999
0.839501953125
1.147265625
1.3857421875
1.4574462890625
1.5114257812499998
1.6725585937499998
1.609716796875
1.6242187499999998
1.6612792968749999
1.6395263671875
1.63388671875
1.6379150390625
1.6169677734374999
0.2578125
1.058642578125
1.6185791015625
1.6886718749999998
2.0173828124999997
1.5396240234374998
1.899755859375
3.0526611328124997
2.1382324218749997
1.7595703125
1.6040771484374998
1.5194824218749998
1.5541259765625
1.4719482421874999
1.5315673828124998
1.5106201171875
1.416357421875
1.5170654296875
1.4896728515625
1.4912841796874998
1.4872558593749998
2.5483154296875
2.495947265625
1.6475830078125
1.5001464843749999
1.271337890625
1.074755859375
1.21171875
0.765380859375
0.7412109375
1.0175537109375
1.3204833984375
1.4606689453125
1.4953124999999998
1.56943359375
1.6048828124999999
1.6089111328124999
1.7047851562499998
1.66611328125
1.6524169921874998
1.6314697265625
1.6201904296874998
0.32468261718749997
0.5607421874999999
1.5146484375
1.66611328125
1.88525390625
2.4451904296875
2.238134765625
3.0591064453124996
2.360595703125
1.8731689453125
1.587158203125
1.53720703125
1.5122314453124999
1.4445556640625
1.5009521484375
1.49853515625
1.4791992187499998
1.4872558593749998
1.493701171875
1.496923828125
1.509814453125
1.4872558593749998
3.0244628906249997
1.6798095703125
1.4703369140625
1.393798828125
1.2350830078125
1.2028564453125
0.559130859375
0.7138183593749999
0.9732421874999999
1.31162109375
1.456640625
1.5073974609374998
1.5895751953125
1.6717529296875
1.6806152343749998
1.622607421875
1.7047851562499998
1.6749755859375
1.6491943359374999
1.6322753906249998
1.5637939453124998
0.0523681640625
1.51787109375
1.65966796875
1.7732666015624998
2.3871826171875
2.410546875
3.0550781249999996
2.65546875
1.85302734375
1.635498046875
1.5525146484374999
1.5170654296875
1.5235107421874998
1.5114257812499998
1.5251220703125
1.5041748046874999
1.4558349609374999
1.47275390625
1.4961181640624999
1.4872558593749998
1.4848388671875
3.050244140625
1.8578613281249998
1.5323730468749999
1.409912109375
1.303564453125
0.8032470703125
0.34079589843749997
0.6678955078125
0.871728515625
1.22138671875
1.4268310546874998
1.4816162109375
1.5057861328125
1.6927001953124998
1.6846435546874998
1.67578125
1.65966796875
1.6379150390625
1.6411376953124999
1.6185791015625
1.6000488281249998
0.049145507812499996
1.2286376953125
1.65966796875
1.7740722656249999
1.8659179687499998
1.619384765625
2.4693603515625
2.872998046875
2.080224609375
1.7184814453125
1.5557373046874998
1.5275390624999998
1.5605712890624999
1.4920898437499999
1.477587890625
1.4800048828124999
1.458251953125
1.4735595703125
1.4928955078125
1.506591796875
1.493701171875
3.0550781249999996
2.241357421875
1.5138427734375
1.4759765624999999
1.2898681640624998
1.0006347656249999
0.34079589843749997
0.733154296875
0.807275390625
1.2012451171875
1.4042724609375
1.4751708984374998
1.4759765624999999
1.670947265625
1.64677734375
1.6290527343749999
1.6943115234375
1.6717529296875
1.6379150390625
1.63388671875
1.6209960937499999
0.045117187499999996
1.2399169921875
1.6653076171874999
1.7023681640625
1.9521240234375
1.4961181640624999
2.4967529296874997
3.0550781249999996
2.047998046875
1.6943115234375
1.5839355468749998
1.5057861328125
1.5565429687499999
1.4928955078125
1.5355957031249998
1.4268310546874998
1.4630859374999998
1.5517089843749998
1.50498046875
1.5106201171875
1.5057861328125
1.8844482421875
2.292919921875
1.5799072265624998
1.4574462890625
1.2818115234374998
1.6290527343749999
1.2737548828124998
0.6533935546874999
0.813720703125
1.04736328125
1.351904296875
1.4759765624999999
1.4719482421874999
1.6209960937499999
1.6483886718749998
1.6322753906249998
1.6975341796874999
1.5799072265624998
1.6854492187499999
1.6524169921874998
1.6072998046875
0.049951171875
0.7758544921874999
1.5597656249999998
1.6129394531249999
1.92392578125
2.196240234375
1.91748046875
3.0542724609375
2.241357421875
1.7772949218749998
1.5863525390625
1.529150390625
1.5138427734375
1.5186767578125
1.538818359375
1.522705078125
1.4461669921875
1.542041015625
1.4751708984374998
1.4920898437499999
1.4848388671875
1.7958251953125
2.8069335937499997
1.73056640625
1.482421875
1.353515625
0.8201660156249999
1.197216796875
0.8523925781249999
0.7097900390624999
0.95068359375
1.3349853515624999
1.4373046875
1.4888671875
1.58232421875
1.654833984375
1.6564453124999998
1.651611328125
1.5686279296874999
1.64677734375
1.63388671875
1.6451660156249999
1.24716796875
0.20625
1.5243164062499999
1.670947265625
1.803076171875
1.9231201171874999
1.9658203125
3.05185546875
2.6764160156249996
1.8868652343749999
1.62744140625
1.5533203125
1.5194824218749998
1.533984375
1.4993408203124998
1.5033691406249998
1.4783935546875
1.33740234375
1.4945068359375
1.5017578125
1.4961181640624999
1.4928955078125
3.0558837890625
1.7450683593749998
1.482421875
1.4316650390624999
0.8902587890625
0.7226806640625
0.4568115234375
0.7395996093749999
0.9627685546875
1.2511962890625
1.4034667968749999
1.5194824218749998
1.542041015625
1.6540283203125
1.654833984375
1.6169677734374999
1.780517578125
1.658056640625
1.6483886718749998
1.62744140625
1.6056884765625
0.14421386718749998
1.37607421875
1.6524169921874998
1.732177734375
1.869140625
2.254248046875
2.98740234375
2.5330078124999997
1.9303710937499998
1.6395263671875
1.5605712890624999
1.5315673828124998
1.542041015625
1.513037109375
1.5146484375
1.464697265625
1.4920898437499999
1.5138427734375
1.5057861328125
1.4896728515625
1.4872558593749998
3.05830078125
2.03994140625
1.554931640625
1.4445556640625
1.3317626953125
1.6234130859375
0.45439453124999996
0.71865234375
0.8846191406249999
1.1512939453125
1.405078125
1.4848388671875
1.5033691406249998
1.6524169921874998
1.65966796875
1.638720703125
1.6773925781249999
1.6564453124999998
1.6773925781249999
1.6435546875
1.5927978515624999
0.04833984375
1.0417236328125
1.654833984375
1.7047851562499998
1.8884765625
1.506591796875
2.7328124999999996
3.0002929687499997
2.173681640625
1.690283203125
1.5799072265624998
1.5090087890625
1.5589599609375
1.5122314453124999
1.51787109375
1.5009521484375
1.4276367187499999
1.4977294921875
1.5090087890625
1.4912841796874998
1.4791992187499998
2.5225341796875
2.4943359375
1.5517089843749998
1.4864501953125
1.281005859375
1.6806152343749998
0.7307373046875
0.758935546875
0.7500732421874999
1.139208984375
1.3744628906249998
1.48564453125
1.4598632812499999
1.6137451171875
1.6403320312499998
1.6822265625
1.662890625
1.622607421875
1.6403320312499998
1.6403320312499998
1.6024658203125
0.476953125
0.9877441406249999
1.5645996093749999
1.67900390625
1.9343994140624998
1.6072998046875
1.84013671875
3.05830078125
2.2107421874999997
1.7982421874999999
1.6250244140624999
1.5396240234374998
1.5557373046874998
1.5017578125
1.509814453125
1.496923828125
1.4276367187499999
1.4655029296875
1.4864501953125
1.4993408203124998
1.4961181640624999
2.3501220703125
2.5579833984375
1.651611328125
1.4832275390624998
1.287451171875
0.9949951171875
1.18271484375
0.7001220703125
0.78310546875
1.013525390625
1.3301513671874998
1.464697265625
1.4977294921875
1.5992431640625
1.6483886718749998
1.6161621093749998
1.606494140625
1.7249267578124998
1.6524169921874998
1.6306640625
1.6177734375
0.510791015625
0.4962890625
1.506591796875
1.6991455078125
1.8280517578125
2.3614013671875
2.3718749999999997
3.0566894531249997
2.3211181640625
1.8570556640625
1.6161621093749998
1.5299560546875
1.5541259765625
1.5025634765625
1.5154541015624998
1.5082031249999999
1.464697265625
1.4236083984374999
1.482421875
1.4896728515625
1.4993408203124998
1.49853515625
3.0429931640624996
1.6765869140624998
1.5041748046874999
1.4091064453125
1.2930908203125
1.1657958984374999
0.623583984375
0.700927734375
0.8805908203124999
1.316455078125
1.4461669921875
1.490478515625
1.577490234375
1.6371093749999999
1.6604736328124998
1.6749755859375
1.714453125
1.6588623046875
1.662890625
1.635498046875
1.6185791015625
0.0475341796875
1.4896728515625
1.6483886718749998
1.77890625
2.2115478515625
2.46533203125
2.8834716796874997
2.8383544921875
1.920703125
1.641943359375
1.5758789062499998
1.5412353515625
1.5541259765625
1.5146484375
1.5041748046874999
1.5218994140625
1.4236083984374999
1.4590576171874998
1.4767822265625
1.493701171875
1.490478515625
3.0526611328124997
1.87236328125
1.533984375
1.3825195312499998
1.3349853515624999
1.04736328125
0.38510742187499997
0.704150390625
0.8983154296875
1.1996337890625
1.4268310546874998
1.522705078125
1.50498046875
1.658056640625
1.6290527343749999
1.6564453124999998
1.6773925781249999
1.6564453124999998
1.6524169921874998
1.6427490234375
1.5927978515624999
0.0515625
1.2093017578125
1.6177734375
1.7531249999999998
1.8683349609375
1.496923828125
2.9124755859375
2.85849609375
2.0778076171874997
1.7442626953125
1.5637939453124998
1.5283447265624999
1.546875
1.5283447265624999
1.4920898437499999
1.4848388671875
1.4671142578124998
1.4767822265625
1.4945068359375
1.5082031249999999
1.5057861328125
2.9575927734375
2.273583984375
1.5412353515625
1.5017578125
1.29228515625
1.187548828125
0.55751953125
0.6767578125
0.8177490234375
1.18271484375
1.400244140625
1.47275390625
1.5025634765625
1.6749755859375
1.64677734375
1.6250244140624999
1.6959228515625
1.67900390625
1.654833984375
1.6105224609375
1.6048828124999999
0.045117187499999996
1.1641845703125
1.641943359375
1.6951171875
1.9190917968749999
1.4461669921875
2.3533447265625
3.0550781249999996
2.0625
1.703173828125
1.5718505859374998
1.5412353515625
1.5726562499999999
1.4800048828124999
1.5218994140625
1.482421875
1.448583984375
1.554931640625
1.4912841796874998
1.509814453125
1.5251220703125
1.7466796875
2.3235351562499997
1.5831298828125
1.47275390625
1.2737548828124998
1.5267333984375
1.329345703125
0.7420166015624999
0.8282226562499999
1.0570312499999999
1.3599609375
1.4590576171874998
1.47275390625
1.5968261718749999
1.6121337890624998
1.6395263671875
1.658056640625
1.5758789062499998
1.6556396484375
1.63388671875
1.6379150390625
0.13857421875
0.7404052734375
1.5194824218749998
1.7047851562499998
1.928759765625
2.3017822265625
1.9754882812499999
3.0566894531249997
2.3468994140625
1.8280517578125
1.6008544921874999
1.53076171875
1.5283447265624999
1.4928955078125
1.5380126953125
1.5283447265624999
1.4945068359375
1.533984375
1.4703369140625
1.5025634765625
1.490478515625
1.683837890625
2.85849609375
1.7023681640625
1.4574462890625
1.3664062499999998
0.9095947265625
1.2060791015624999
0.8427246093749999
0.7299316406249999
0.9563232421875
1.3430419921874999
1.4373046875
1.5146484375
1.590380859375
1.654833984375
1.6556396484375
1.6250244140624999
1.5734619140625
1.683837890625
1.64677734375
1.6201904296874998
1.2705322265624999
0.1893310546875
1.53720703125
1.64677734375
1.7990478515625
1.8626953124999999
2.0455810546874997
3.053466796875
2.5160888671875
1.79501953125
1.6153564453125
1.546875
1.5082031249999999
1.5170654296875
1.5106201171875
1.4888671875
1.4590576171874998
1.442138671875
1.4920898437499999
1.5170654296875
1.4945068359375
1.49853515625
3.0550781249999996
1.767626953125
1.533984375
1.4348876953124998
1.0481689453125
0.6920654296875
0.4600341796875
0.7291259765625
0.9289306640624999
1.24716796875
1.4010498046875
1.5428466796875
1.546875
1.6645019531249998
1.6298583984375
1.5919921874999998
1.7265380859375
1.6314697265625
1.6330810546874999
1.619384765625
1.6040771484374998
0.13857421875
1.3478759765625
1.66611328125
1.7257324218749999
1.848193359375
2.08828125
2.8206298828125
2.59423828125
1.9593749999999999
1.7039794921875
1.5573486328125
1.5476806640624998
1.545263671875
1.51787109375
1.4880615234374999
1.4945068359375
1.4155517578124999
1.4993408203124998
1.48564453125
1.509814453125
1.5033691406249998
3.0558837890625
2.1148681640625
1.53076171875
1.4767822265625
1.3551269531249999
1.703173828125
0.42861328125
0.7049560546875
0.807275390625
1.116650390625
1.3784912109374998
1.4880615234374999
1.482421875
1.6822265625
1.64677734375
1.6943115234375
1.6572509765624999
1.638720703125
1.65
1.6137451171875
1.6137451171875
0.0459228515625
1.00546875
1.6371093749999999
1.7281494140625
1.9190917968749999
1.6137451171875
2.5394531249999996
3.0542724609375
2.23330078125
1.6959228515625
1.5944091796875
1.5557373046874998
1.5509033203125
1.506591796875
1.5275390624999998
1.5138427734375
1.426025390625
1.4896728515625
1.4832275390624998
1.5009521484375
1.4840332031249999
2.3501220703125
2.109228515625
1.5589599609375
1.4945068359375
1.2665039062499999
1.7394287109375
0.9031494140624999
0.784716796875
0.85400390625
1.1375976562499999
1.3801025390625
1.4783935546875
1.4461669921875
1.6048828124999999
1.6395263671875
1.6314697265625
1.6878662109375
1.6185791015625
1.6363037109374998
1.6371093749999999
1.622607421875
0.5446289062499999
0.9643798828125
1.5557373046874998
1.667724609375
1.9295654296875
1.719287109375
1.877197265625
3.05830078125
2.151123046875
1.7700439453124999
1.619384765625
1.5057861328125
1.545263671875
1.5025634765625
1.529150390625
1.4816162109375
1.4703369140625
1.4711425781249998
1.4977294921875
1.493701171875
1.4896728515625
2.1922119140625
2.6039062499999996
1.6846435546874998
1.4993408203124998
1.2987304687499999
0.8757568359375
1.135986328125
0.6550048828124999
0.7774658203125
0.992578125
1.3019531249999998
1.4703369140625
1.522705078125
1.574267578125
1.6306640625
1.5895751953125
1.6169677734374999
1.6024658203125
1.6395263671875
1.6322753906249998
1.6234130859375
0.6098876953125
0.4761474609375
1.4977294921875
1.7015624999999999
1.8538330078124998
2.2582763671875
2.4500244140625
3.0566894531249997
2.3597900390624997
1.8900878906249998
1.5927978515624999
1.5476806640624998
1.5243164062499999
1.542041015625
1.5057861328125
1.4993408203124998
1.5146484375
1.38896484375
1.4759765624999999
1.4832275390624998
1.4912841796874998
1.522705078125
3.053466796875
1.6935058593749999
1.4711425781249998
1.4276367187499999
1.3333740234375
1.029638671875
0.7259033203124999
0.6711181640624999
0.9821044921875
1.2890625
1.4381103515625
1.5106201171875
1.56943359375
1.662890625
1.6483886718749998
1.654833984375
1.7370117187499998
1.6411376953124999
1.6411376953124999
1.6298583984375
1.6040771484374998
0.049145507812499996
1.4655029296875
1.65966796875
1.7700439453124999
2.1382324218749997
2.4741943359375
2.8681640625
2.502392578125
1.9376220703125
1.6604736328124998
1.5605712890624999
1.5275390624999998
1.5541259765625
1.5331787109375
1.5122314453124999
1.5082031249999999
1.4542236328125
1.4977294921875
1.4783935546875
1.4767822265625
1.46953125
3.0558837890625
1.9086181640625
1.533984375
1.4139404296875
1.3559326171875
1.22138671875
0.6308349609374999
0.75732421875
0.9112060546874999
1.1931884765625
1.4147460937499998
1.482421875
1.464697265625
1.6250244140624999
1.6443603515624998
1.622607421875
1.7096191406249999
1.6443603515624998
1.6459716796875
1.6459716796875
1.6040771484374998
0.049145507812499996
1.2157470703125
1.5976318359375
1.7249267578124998
1.8586669921874999
1.4655029296875
3.05830078125
2.7642333984375
2.0568603515625
1.6459716796875
1.5605712890624999
1.5251220703125
1.5444580078124999
1.4977294921875
1.4759765624999999
1.4332763671875
1.4896728515625
1.482421875
1.5009521484375
1.4928955078125
1.4880615234374999
2.848828125
2.3203125
1.5460693359375
1.4783935546875
1.276171875
1.3382080078124998
0.6292236328124999
0.7242919921875
0.8056640625
1.2157470703125
1.3994384765624999
1.4735595703125
1.4977294921875
1.6645019531249998
1.6298583984375
1.6524169921874998
1.6604736328124998
1.6459716796875
1.622607421875
1.619384765625
1.62744140625
0.18449707031249998
1.1384033203125
1.6266357421875
1.714453125
1.9070068359374999
1.4711425781249998
2.038330078125
3.059912109375
2.14306640625
1.7490966796874998
1.5911865234375
1.6008544921874999
1.5895751953125
1.5106201171875
1.522705078125
1.493701171875
1.4219970703125
1.538818359375
1.47275390625
1.4872558593749998
1.482421875
1.6306640625
2.36220703125
1.5992431640625
1.5138427734375
1.3148437499999999
1.3897705078125
1.1770751953125
0.752490234375
0.7863281249999999
1.0481689453125
1.3422363281249998
1.4679199218749999
1.4590576171874998
1.5791015625
1.6290527343749999
1.6209960937499999
1.6830322265625
1.5734619140625
1.6443603515624998
1.6443603515624998
1.6451660156249999
0.21591796875
0.7057617187499999
1.51787109375
1.6822265625
1.912646484375
2.418603515625
2.0600830078125
3.0542724609375
2.2880859375
1.8175781249999998
1.5863525390625
1.5251220703125
1.5009521484375
1.46953125
1.533984375
1.58232421875
1.4719482421874999
1.5275390624999998
1.477587890625
1.493701171875
1.480810546875
1.554931640625
2.9253662109375
1.7128417968749998
1.4864501953125
1.3857421875
1.055419921875
1.2455566406249998
0.6437255859375
0.7549072265625
0.966796875
1.3317626953125
1.448583984375
1.5162597656249999
1.60166015625
1.667724609375
1.658056640625
1.6298583984375
1.609716796875
1.6379150390625
1.622607421875
1.5919921874999998
1.3817138671875
0.120849609375
1.5484863281249999
1.6693359374999999
1.796630859375
1.864306640625
2.147900390625
3.053466796875
2.553955078125
1.835302734375
1.6008544921874999
1.5331787109375
1.5033691406249998
1.5243164062499999
1.5154541015624998
1.545263671875
1.458251953125
1.4373046875
1.4840332031249999
1.5106201171875
1.513037109375
1.4977294921875
3.0566894531249997
1.78857421875
1.52109375
1.4638916015624999
1.1593505859375
0.72509765625
0.4809814453125
0.775048828125
0.9466552734375
1.2125244140625
1.3913818359374999
1.4679199218749999
1.5009521484375
1.638720703125
1.6306640625
1.6411376953124999
1.6725585937499998
1.6620849609375
1.6620849609375
1.6435546875
1.5976318359375
0.08217773437499999
1.2963134765625
1.63388671875
1.6830322265625
1.8441650390625
1.8900878906249998
2.544287109375
2.7247558593749996
2.0359130859375
1.7249267578124998
1.5686279296874999
1.5283447265624999
1.53720703125
1.529150390625
1.5283447265624999
1.525927734375
1.4735595703125
1.480810546875
1.49853515625
1.4800048828124999
1.464697265625
3.0566894531249997
2.0955322265625
1.5444580078124999
1.480810546875
1.340625
1.69833984375
0.40202636718749996
0.7379882812499999
0.8314453125
1.1279296875
1.3897705078125
1.4920898437499999
1.47275390625
1.6717529296875
1.6572509765624999
1.6717529296875
1.6862548828125
1.66611328125
1.6508056640625
1.6322753906249998
1.6072998046875
0.045117187499999996
0.9514892578124999
1.62744140625
1.6814208984374999
1.91748046875
1.7297607421874999
2.663525390625
3.0309082031249996
2.1551513671875
1.6814208984374999
1.5678222656249998
1.5170654296875
1.5299560546875
1.4912841796874998
1.5573486328125
1.5001464843749999
1.5170654296875
1.5355957031249998
1.4800048828124999
1.50498046875
1.4840332031249999
2.1454833984375
2.1825439453124997
1.571044921875
1.48564453125
1.30517578125
1.714453125
1.1150390625
0.7387939453125
0.8201660156249999
1.100537109375
1.3825195312499998
1.46953125
1.45341796875
1.611328125
1.641943359375
1.6209960937499999
1.6725585937499998
1.6129394531249999
1.654833984375
1.6371093749999999
1.6234130859375
0.61552734375
0.9232910156249999
1.5380126953125
1.6854492187499999
1.915869140625
1.8828369140624999
1.861083984375
3.050244140625
2.16884765625
1.764404296875
1.6024658203125
1.5525146484374999
1.5815185546875
1.49853515625
1.554931640625
1.5428466796875
1.4373046875
1.4348876953124998
1.4783935546875
1.4928955078125
1.4888671875
2.0625
2.6764160156249996
1.6781982421875
1.509814453125
1.3188720703124999
0.7822998046874999
1.0062744140625
0.781494140625
0.7315429687499999
0.9990234375
1.3873535156249999
1.477587890625
1.4864501953125
1.5726562499999999
1.6508056640625
1.6330810546874999
1.625830078125
1.5082031249999999
1.6395263671875
1.62744140625
1.6185791015625
0.9732421874999999
0.30051269531249997
1.4461669921875
1.658056640625
1.8328857421875
2.1333984375
1.8957275390625
3.0591064453124996
2.60712890625
1.973876953125
1.6314697265625
1.525927734375
1.4888671875
1.51787109375
1.5243164062499999
1.5138427734375
1.509814453125
1.3792968749999999
1.5009521484375
1.4880615234374999
1.46953125
1.490478515625
3.053466796875
1.719287109375
1.4848388671875
1.4058837890625
0.7637695312499999
0.881396484375
0.5736328125
0.6968994140625
0.9772705078124999
1.2987304687499999
1.4034667968749999
1.4791992187499998
1.5476806640624998
1.6765869140624998
1.6556396484375
1.6177734375
1.8022705078124999
1.6411376953124999
1.6411376953124999
1.6169677734374999
1.5831298828125
0.2634521484375
1.44052734375
1.6725585937499998
1.7668212890625
1.98515625
2.4556640625
3.0558837890625
2.431494140625
1.931982421875
1.6540283203125
1.545263671875
1.5557373046874998
1.5654052734375
1.5025634765625
1.477587890625
1.4912841796874998
1.513037109375
1.5235107421874998
1.4912841796874998
1.4711425781249998
1.47275390625
3.0591064453124996
1.96904296875
1.5686279296874999
1.4276367187499999
1.3801025390625
1.4026611328124998
0.4552001953125
0.69609375
0.8531982421875
1.1456542968749999
1.413134765625
1.5138427734375
1.4896728515625
1.6266357421875
1.64677734375
1.6322753906249998
1.8103271484374999
1.658056640625
1.6371093749999999
1.5984375
1.5919921874999998
0.049145507812499996
1.1303466796875
1.6846435546874998
1.7603759765625
1.8868652343749999
1.4389160156249998
2.9914306640625
2.9068359375
2.1076171875
1.6669189453125
1.5791015625
1.5218994140625
1.5476806640624998
1.525927734375
1.5025634765625
1.5017578125
1.4155517578124999
1.4300537109375
1.4558349609374999
1.4953124999999998
1.4977294921875
2.792431640625
2.0278564453125
1.5702392578125
1.5025634765625
1.2753662109375
1.5404296874999999
0.539794921875
0.75732421875
0.8306396484374999
1.148876953125
1.3599609375
1.4759765624999999
1.4574462890625
1.6733642578124999
1.6532226562499999
1.6927001953124998
1.670947265625
1.67900390625
1.63388671875
1.6105224609375
1.593603515625
0.2940673828125
1.023193359375
1.56298828125
1.67900390625
1.93359375
1.4928955078125
1.9674316406249999
3.0486328124999997
2.2260498046875
1.770849609375
1.5968261718749999
1.529150390625
1.5509033203125
1.4655029296875
1.4912841796874998
1.4912841796874998
1.4373046875
1.477587890625
1.4767822265625
1.4872558593749998
1.496923828125
2.616796875
2.4903076171875
1.6604736328124998
1.5025634765625
1.2930908203125
1.2125244140625
1.2439453125
0.7291259765625
0.760546875
1.0167480468749999
1.3873535156249999
1.46953125
1.490478515625
1.554931640625
1.6346923828125
1.6379150390625
1.6733642578124999
1.6540283203125
1.670947265625
1.6572509765624999
1.609716796875
0.2771484375
0.5696044921875
1.4880615234374999
1.7128417968749998
1.8892822265625
2.4645263671874997
2.0036865234375
3.0574951171875
2.2985595703125
1.8062988281249999
1.5758789062499998
1.5218994140625
1.5138427734375
1.490478515625
1.5243164062499999
1.506591796875
1.4590576171874998
1.5057861328125
1.4840332031249999
1.5009521484375
1.5355957031249998
1.5283447265624999
3.0309082031249996
1.6427490234375
1.4469726562499998
1.348681640625
1.0086914062499999
1.2479736328125
0.575244140625
0.7226806640625
0.984521484375
1.3180664062499998
1.4373046875
1.4872558593749998
1.5960205078124998
1.638720703125
1.6524169921874998
1.670947265625
1.66611328125
1.658056640625
1.658056640625
1.6218017578125
1.5436523437499998
0.475341796875
1.4864501953125
1.64677734375
1.8038818359375
2.4645263671874997
2.3654296875
3.0574951171875
2.4049072265625
1.8731689453125
1.641943359375
1.53076171875
1.5323730468749999
1.5525146484374999
1.522705078125
1.525927734375
1.5275390624999998
1.432470703125
1.4719482421874999
1.5041748046874999
1.5106201171875
1.4864501953125
3.0526611328124997
1.8457763671874998
1.5033691406249998
1.3994384765624999
1.2544189453124999
0.7210693359375
0.784716796875
0.6654785156249999
0.871728515625
1.1980224609374999
1.4655029296875
1.52109375
1.5170654296875
1.6636962890625
1.6314697265625
1.6572509765624999
1.654833984375
1.6556396484375
1.6371093749999999
1.625830078125
1.56943359375
0.053173828124999996
1.2665039062499999
1.6363037109374998
1.7660156249999999
1.85947265625
1.6435546875
3.053466796875
2.8230468749999997
2.07861328125
1.6266357421875
1.55009765625
1.5025634765625
1.5404296874999999
1.5597656249999998
1.5509033203125
1.53076171875
1.4219970703125
1.4373046875
1.4783935546875
1.4888671875
1.4767822265625
3.0566894531249997
2.230078125
1.5444580078124999
1.4953124999999998
1.319677734375
0.9079833984375
0.39396972656249996
0.6968994140625
0.8129150390625
1.190771484375
1.3728515625
1.4477783203124999
1.480810546875
1.6653076171874999
1.67900390625
1.65
1.6798095703125
1.6717529296875
1.6717529296875
1.6435546875
1.6137451171875
0.049145507812499996
1.2310546875
1.6653076171874999
1.7200927734375
1.9432617187499999
1.5283447265624999
2.7303955078124997
3.0550781249999996
2.00771484375
1.6878662109375
1.5517089843749998
1.5138427734375
1.5347900390625
1.4961181640624999
1.5444580078124999
1.4074951171874999
1.4719482421874999
1.5750732421875
1.51787109375
1.4872558593749998
1.4880615234374999
3.05830078125
2.2921142578125
1.590380859375
1.496923828125
1.3100097656249998
1.6765869140624998
1.2528076171875
0.7114013671874999
0.7951904296875
1.0578369140625
1.368017578125
1.4864501953125
1.4719482421874999
1.63388671875
1.6451660156249999
1.62744140625
1.6725585937499998
1.5992431640625
1.6427490234375
1.658056640625
1.6250244140624999
0.0443115234375
0.7412109375
1.5106201171875
1.6862548828125
1.9472900390624999
2.2002685546875
1.8949218749999999
3.0566894531249997
2.358984375
1.8417480468749998
1.6040771484374998
1.5509033203125
1.53720703125
1.5243164062499999
1.571044921875
1.5162597656249999
1.493701171875
1.5428466796875
1.4735595703125
1.525927734375
1.49853515625
1.82080078125
2.8012939453124996
1.56943359375
1.4630859374999998
1.3422363281249998
0.7500732421874999
1.174658203125
0.871728515625
0.6985107421875
0.926513671875
1.3212890625
1.429248046875
1.5218994140625
1.5879638671874998
1.65
1.6169677734374999
1.69189453125
1.558154296875
1.6636962890625
1.6443603515624998
1.6322753906249998
1.1690185546875
0.19094238281249998
1.4832275390624998
1.641943359375
1.8167724609375
2.29453125
1.944873046875
3.0574951171875
2.6047119140625
1.8296630859374998
1.59521484375
1.5146484375
1.5186767578125
1.5170654296875
1.5114257812499998
1.5138427734375
1.4413330078125
1.3897705078125
1.5235107421874998
1.49853515625
1.493701171875
1.5090087890625
2.88427734375
1.7410400390624998
1.5009521484375
1.3502929687499998
0.8967041015624999
0.6920654296875
0.439892578125
0.7532958984375
0.95390625
1.2721435546875
1.4316650390624999
1.5082031249999999
1.5428466796875
1.6669189453125
1.6483886718749998
1.6218017578125
1.7571533203124998
1.6443603515624998
1.6459716796875
1.635498046875
1.609716796875
0.13212890624999998
1.3905761718749998
1.6725585937499998
1.7877685546875
1.8900878906249998
2.257470703125
3.0542724609375
2.5160888671875
1.9505126953124998
1.66611328125
1.5484863281249999
1.525927734375
1.5605712890624999
1.538818359375
1.5323730468749999
1.52109375
1.3736572265625
1.4526123046875
1.4671142578124998
1.4993408203124998
1.5057861328125
3.0574951171875
2.0359130859375
1.4928955078125
1.4268310546874998
1.351904296875
1.6564453124999998
0.4358642578125
0.717041015625
0.8580322265625
1.2665039062499999
1.397021484375
1.46953125
1.461474609375
1.654833984375
1.6330810546874999
1.670947265625
1.7152587890625
1.6403320312499998
1.6395263671875
1.6572509765624999
1.6266357421875
0.045117187499999996
1.02802734375
1.6298583984375
1.7531249999999998
1.9352050781249999
2.09150390625
2.6498291015624997
3.053466796875
2.2107421874999997
1.6781982421875
1.571044921875
1.5331787109375
1.5565429687499999
1.5186767578125
1.50498046875
1.5275390624999998
1.4268310546874998
1.4711425781249998
1.4767822265625
1.5025634765625
1.4759765624999999
2.5322021484375
2.086669921875
1.5678222656249998
1.5114257812499998
1.3317626953125
1.7007568359374998
0.760546875
0.7484619140625
0.8201660156249999
1.10859375
1.3527099609375
1.5082031249999999
1.4687255859375
1.6218017578125
1.6298583984375
1.6483886718749998
1.7072021484375
1.6330810546874999
1.6314697265625
1.6153564453125
1.6266357421875
0.049145507812499996
0.9853271484374999
1.5412353515625
1.690283203125
1.9376220703125
1.654833984375
1.8417480468749998
3.0357421875
2.160791015625
1.7507080078125
1.5404296874999999
1.5186767578125
1.5541259765625
1.5073974609374998
1.522705078125
1.496923828125
1.4953124999999998
1.5033691406249998
1.5106201171875
1.4920898437499999
1.5090087890625
2.3315917968749997
2.6127685546875
1.6822265625
1.5073974609374998
1.27294921875
0.9345703125
0.994189453125
0.5921630859375
0.7581298828124999
0.974853515625
1.3639892578125
1.474365234375
1.5001464843749999
1.6322753906249998
1.6306640625
1.6000488281249998
1.6129394531249999
1.6427490234375
1.6806152343749998
1.6508056640625
1.6056884765625
0.533349609375
0.436669921875
1.546875
1.7184814453125
1.89169921875
2.4226318359375
1.8860595703124998
3.0566894531249997
2.3759033203124997
1.767626953125
1.5919921874999998
1.5001464843749999
1.554931640625
1.546875
1.5525146484374999
1.51787109375
1.458251953125
1.368017578125
1.4638916015624999
1.4791992187499998
1.4864501953125
1.4953124999999998
3.059912109375
1.714453125
1.5001464843749999
1.4171630859375
0.7935791015625
1.119873046875
0.662255859375
0.6670898437499999
0.945849609375
1.268115234375
1.4066894531249998
1.4896728515625
1.5807128906249999
1.65
1.667724609375
1.6604736328124998
1.7394287109375
1.6459716796875
1.6612792968749999
1.6459716796875
1.6048828124999999
0.34965820312499996
1.4493896484375
1.6636962890625
1.7692382812499998
2.2429687499999997
2.550732421875
2.882666015625
2.5716796874999996
1.9875732421874999
1.6588623046875
1.5645996093749999
1.5073974609374998
1.5186767578125
1.482421875
1.4888671875
1.529150390625
1.4501953125
1.5017578125
1.4961181640624999
1.4783935546875
1.5082031249999999
3.0574951171875
1.9118408203125
1.5436523437499998
1.3712402343749999
1.3180664062499998
1.0352783203125
0.5478515625
0.6791748046874999
0.8564208984374999
1.19560546875
1.4397216796874999
1.5412353515625
1.493701171875
1.6483886718749998
1.6411376953124999
1.6314697265625
1.7047851562499998
1.6403320312499998
1.6411376953124999
1.6266357421875
1.593603515625
0.053173828124999996
1.2189697265625
1.687060546875
1.7748779296875
1.864306640625
1.4719482421874999
3.0574951171875
2.7916259765625
2.0334960937499997
1.6371093749999999
1.5565429687499999
1.5202880859374999
1.6000488281249998
1.4880615234374999
1.47275390625
1.4800048828124999
1.5041748046874999
1.4953124999999998
1.493701171875
1.5218994140625
1.513037109375
3.0446044921874997
2.3654296875
1.5509033203125
1.4630859374999998
1.2536132812499998
1.1923828125
0.5204589843749999
0.6179443359375
0.7782714843749999
1.184326171875
1.4066894531249998
1.4880615234374999
1.5364013671874999
1.6733642578124999
1.6411376953124999
1.6540283203125
1.7128417968749998
1.67578125
1.64677734375
1.603271484375
1.6024658203125
0.049951171875
1.1271240234375
1.5911865234375
1.7080078125
1.93359375
1.445361328125
2.255859375
3.0566894531249997
2.0987548828125
1.7345947265625
1.5960205078124998
1.5170654296875
1.5637939453124998
1.509814453125
1.5428466796875
1.4920898437499999
1.409912109375
1.5444580078124999
1.4767822265625
1.4953124999999998
1.4703369140625
2.937451171875
2.3912109375
1.6298583984375
1.4493896484375
1.2665039062499999
1.5033691406249998
1.2721435546875
0.7307373046875
0.75087890625
1.042529296875
1.3736572265625
1.445361328125
1.4550292968749998
1.5919921874999998
1.6072998046875
1.6749755859375
1.683837890625
1.662890625
1.6435546875
1.6411376953124999
1.6379150390625
0.08056640625
0.6695068359374999
1.5082031249999999
1.67900390625
1.9215087890625
2.3904052734375
2.028662109375
3.059912109375
2.410546875
1.8626953124999999
1.5766845703124999
1.5186767578125
1.529150390625
1.5073974609374998
1.5726562499999999
1.50498046875
1.4501953125
1.5476806640624998
1.4767822265625
1.5001464843749999
1.4783935546875
1.5976318359375
2.9269775390625
1.6371093749999999
1.4848388671875
1.3470703124999999
0.9579345703125
1.26328125
0.752490234375
0.7130126953125
0.9837158203124999
1.3156494140625
1.4711425781249998
1.5589599609375
1.571044921875
1.662890625
1.6475830078125
1.6540283203125
1.611328125
1.6612792968749999
1.6532226562499999
1.6250244140624999
1.276171875
0.1490478515625
1.5299560546875
1.64677734375
1.796630859375
2.473388671875
2.0955322265625
3.0574951171875
2.2268554687499997
1.803076171875
1.6008544921874999
1.5299560546875
1.545263671875
1.5573486328125
1.5114257812499998
1.5017578125
1.4735595703125
1.46630859375
1.4872558593749998
1.50498046875
1.4953124999999998
1.5041748046874999
2.9849853515625
1.791796875
1.5186767578125
1.3728515625
1.074755859375
0.6010253906249999
0.572021484375
0.7130126953125
0.9063720703125
1.2318603515625
1.4171630859375
1.5009521484375
1.5726562499999999
1.6564453124999998
1.6508056640625
1.6290527343749999
1.699951171875
1.66611328125
1.6894775390624999
1.6636962890625
1.5251220703125
0.0604248046875
1.3140380859374998
1.6346923828125
1.780517578125
1.8312744140625
2.028662109375
2.9559814453124997
2.771484375
2.054443359375
1.6363037109374998
1.5645996093749999
1.5412353515625
1.5396240234374998
1.5082031249999999
1.4993408203124998
1.50498046875
1.4268310546874998
1.4767822265625
1.480810546875
1.5082031249999999
1.5162597656249999
3.0550781249999996
2.1116455078125
1.5106201171875
1.445361328125
1.3309570312499999
0.6912597656249999
0.42136230468749997
0.6856201171874999
0.80888671875
1.216552734375
1.37607421875
1.493701171875
1.533984375
1.6604736328124998
1.6411376953124999
1.687060546875
1.6814208984374999
1.6427490234375
1.6266357421875
1.65
1.6201904296874998
0.049145507812499996
1.2592529296875
1.635498046875
1.7176757812499999
1.8457763671874998
1.7732666015624998
2.57490234375
3.0550781249999996
2.0616943359374997
1.69189453125
1.5573486328125
1.5267333984375
1.5283447265624999
1.4945068359375
1.5267333984375
1.5275390624999998
1.4751708984374998
1.52109375
1.4574462890625
1.47275390625
1.4953124999999998
3.0558837890625
2.180126953125
1.546875
1.4550292968749998
1.3333740234375
1.7337890624999999
1.1239013671875
0.6823974609375
0.8209716796875
1.0884521484375
1.3744628906249998
1.5186767578125
1.4888671875
1.6218017578125
1.6371093749999999
1.611328125
1.6854492187499999
1.6765869140624998
1.6451660156249999
1.6363037109374998
1.63388671875
0.0523681640625
0.91201171875
1.5283447265624999
1.7120361328125
1.9029785156249999
1.8248291015625
1.8546386718749999
3.027685546875
2.1543457031249997
1.7635986328125
1.5734619140625
1.5146484375
1.5517089843749998
1.4993408203124998
1.56298828125
1.5170654296875
1.4558349609374999
1.5436523437499998
1.4920898437499999
1.5001464843749999
1.4864501953125
2.101171875
2.6860839843749997
1.593603515625
1.4953124999999998
1.30517578125
0.797607421875
1.1722412109375
0.7114013671874999
0.7283203125
1.0916748046875
1.3639892578125
1.4671142578124998
1.490478515625
1.606494140625
1.63388671875
1.6250244140624999
1.683837890625
1.5919921874999998
1.6491943359374999
1.6443603515624998
1.6298583984375
0.8572265625
0.3053466796875
1.53720703125
1.67900390625
1.851416015625
1.98837890625
1.8498046874999998
3.0566894531249997
2.5821533203125
1.8336914062499998
1.6081054687499998
1.529150390625
1.5275390624999998
1.533984375
1.509814453125
1.51787109375
1.4864501953125
1.3599609375
1.4783935546875
1.5017578125
1.4961181640624999
1.4993408203124998
2.747314453125
1.6975341796874999
1.5009521484375
1.3261230468749998
0.7621582031249999
0.9345703125
0.5865234375
0.7395996093749999
0.9547119140625
1.2955078125
1.4630859374999998
1.5106201171875
1.5484863281249999
1.6604736328124998
1.6209960937499999
1.674169921875
1.783740234375
1.6685302734374998
1.6395263671875
1.6218017578125
1.6081054687499998
0.26748046875
1.416357421875
1.6612792968749999
1.8498046874999998
2.05283203125
2.505615234375
3.0542724609375
2.5160888671875
1.941650390625
1.641943359375
1.5082031249999999
1.522705078125
1.542041015625
1.5186767578125
1.482421875
1.4413330078125
1.3752685546874999
1.5114257812499998
1.5243164062499999
1.5057861328125
1.5009521484375
3.0607177734374997
1.9529296875
1.506591796875
1.4284423828125
1.3599609375
0.816943359375
0.443115234375
0.717041015625
0.8677001953125
1.2721435546875
1.4397216796874999
1.496923828125
1.5533203125
1.6403320312499998
1.6451660156249999
1.6540283203125
1.8038818359375
1.6508056640625
1.6475830078125
1.6250244140624999
1.5758789062499998
0.049145507812499996
1.1303466796875
1.6943115234375
1.748291015625
1.9150634765624999
2.437939453125
3.0325195312499997
2.8874999999999997
1.9352050781249999
1.6572509765624999
1.571044921875
1.545263671875
1.5299560546875
1.5162597656249999
1.5025634765625
1.5017578125
1.4791992187499998
1.477587890625
1.4848388671875
1.4791992187499998
1.5033691406249998
2.8141845703125
2.0093261718749997
1.5662109375
1.4864501953125
1.35673828125
1.52109375
0.5132080078125
0.6775634765624999
0.8322509765624999
1.1408203125
1.3607666015625
1.4953124999999998
1.490478515625
1.6604736328124998
1.6556396484375
1.6878662109375
1.6524169921874998
1.6411376953124999
1.619384765625
1.6306640625
1.6379150390625
0.049951171875
1.071533203125
1.577490234375
1.6846435546874998
1.9118408203125
1.4655029296875
2.0044921875
3.0317138671875
2.204296875
1.77890625
1.5589599609375
1.5243164062499999
1.5396240234374998
1.4751708984374998
1.5154541015624998
1.5041748046874999
1.426025390625
1.456640625
1.4961181640624999
1.4945068359375
1.4800048828124999
2.6925292968749996
2.4685546874999997
1.6620849609375
1.4896728515625
1.2584472656249999
1.2568359375
0.5969970703124999
0.7387939453125
0.7637695312499999
1.007080078125
1.361572265625
1.4759765624999999
1.4800048828124999
1.638720703125
1.5992431640625
1.65
1.7152587890625
1.658056640625
1.638720703125
1.6379150390625
1.6177734375
0.2578125
0.5736328125
1.5718505859374998
1.706396484375
1.9102294921874998
1.5162597656249999
1.9940185546875
3.0591064453124996
2.29775390625
1.7313720703125
1.5984375
1.5251220703125
1.5444580078124999
1.4510009765624998
1.4977294921875
1.448583984375
1.4671142578124998
1.5436523437499998
1.48564453125
1.4920898437499999
1.496923828125
1.5162597656249999
2.553955078125
1.6653076171874999
1.4896728515625
1.3881591796875
1.095703125
1.2415283203124998
0.58974609375
0.7452392578125
0.990966796875
1.3269287109374999
1.4622802734375
1.477587890625
1.58232421875
1.6483886718749998
1.651611328125
1.67578125
1.6411376953124999
1.6451660156249999
1.6379150390625
1.6403320312499998
1.5243164062499999
0.5341552734375
1.538818359375
1.6564453124999998
1.8949218749999999
2.4484130859374997
2.2969482421875
3.05830078125
2.36865234375
1.85302734375
1.625830078125
1.525927734375
1.5355957031249998
1.5299560546875
1.4953124999999998
1.5001464843749999
1.4888671875
1.4832275390624998
1.4953124999999998
1.4896728515625
1.4848388671875
1.4920898437499999
3.0188232421874996
1.8296630859374998
1.46630859375
1.3954101562499999
1.2366943359375
1.2181640624999999
0.7822998046874999
0.6807861328125
0.8628662109374999
1.3180664062499998
1.4195800781249999
1.4993408203124998
1.5766845703124999
1.641943359375
1.654833984375
1.6822265625
1.6379150390625
1.6524169921874998
1.6483886718749998
1.6201904296874998
1.5678222656249998
0.0515625
1.2399169921875
1.6524169921874998
1.8022705078124999
1.861083984375
2.4339111328125
2.937451171875
2.81982421875
1.9198974609375
1.6572509765624999
1.5484863281249999
1.5122314453124999
1.5041748046874999
1.5396240234374998
1.4953124999999998
1.48564453125
1.4187744140624998
1.4735595703125
1.5017578125
1.4977294921875
1.5138427734375
3.0607177734374997
1.8570556640625
1.5275390624999998
1.4373046875
1.2938964843749998
0.7984130859374999
0.3794677734375
0.7395996093749999
0.871728515625
1.2076904296875
1.4034667968749999
1.5251220703125
1.5106201171875
1.6363037109374998
1.65
1.6435546875
1.6878662109375
1.654833984375
1.6379150390625
1.6282470703124998
1.6282470703124998
0.0459228515625
1.2286376953125
1.6081054687499998
1.706396484375
1.8554443359375
1.6443603515624998
2.7303955078124997
2.715087890625
2.006103515625
1.67900390625
1.5484863281249999
1.5404296874999999
1.5299560546875
1.47275390625
1.5218994140625
1.461474609375
1.4840332031249999
1.490478515625
1.4800048828124999
1.509814453125
1.4945068359375
3.053466796875
2.2389404296874997
1.603271484375
1.4759765624999999
1.297119140625
1.69189453125
0.502734375
0.7033447265624999
0.8201660156249999
1.069921875
1.4228027343749998
1.4912841796874998
1.47275390625
1.690283203125
1.641943359375
1.6403320312499998
1.6653076171874999
1.6572509765624999
1.6411376953124999
1.6306640625
1.6105224609375
0.04833984375
0.8274169921875
1.5275390624999998
1.6943115234375
1.9545410156249998
2.0109375
2.392822265625
3.053466796875
2.2566650390625
1.7265380859375
1.6129394531249999
1.6056884765625
1.5879638671874998
1.490478515625
1.5323730468749999
1.50498046875
1.4373046875
1.5331787109375
1.4630859374999998
1.482421875
1.4848388671875
1.9779052734375
2.7432861328125
1.5984375
1.49853515625
1.335791015625
1.6298583984375
1.123095703125
0.8201660156249999
0.768603515625
1.100537109375
1.3801025390625
1.4832275390624998
1.4703369140625
1.5887695312499999
1.6306640625
1.670947265625
1.6403320312499998
1.5718505859374998
1.6435546875
1.6282470703124998
1.6089111328124999
0.8958984375
0.781494140625
1.5807128906249999
1.6822265625
1.8441650390625
2.1245361328125
1.8361083984375
3.0550781249999996
2.3323974609375
1.8151611328125
1.593603515625
1.5017578125
1.5235107421874998
1.52109375
1.4558349609374999
1.5396240234374998
1.4711425781249998
1.3857421875
1.4928955078125
1.4848388671875
1.4872558593749998
1.8071044921875
2.85205078125
1.7603759765625
1.5017578125
1.2802001953125
0.7283203125
0.8056640625
0.6453369140624999
0.71865234375
0.9128173828124999
1.24716796875
1.477587890625
1.5267333984375
1.5412353515625
1.67900390625
1.6532226562499999
1.6298583984375
1.8006591796875
1.6588623046875
1.6604736328124998
1.6201904296874998
1.1029541015625
0.24331054687499998
1.4759765624999999
1.6685302734374998
1.8344970703124999
1.9658203125
2.4613037109375
3.05830078125
2.4226318359375
1.877197265625
1.587158203125
1.5001464843749999
1.5122314453124999
1.522705078125
1.509814453125
1.5122314453124999
1.5090087890625
1.3784912109374998
1.5017578125
1.4912841796874998
1.5146484375
1.5033691406249998
3.0566894531249997
1.9907958984374998
1.5251220703125
1.458251953125
1.3527099609375
0.7146240234375
0.38591308593749996
0.6590332031249999
0.8129150390625
1.2640869140625
1.4187744140624998
1.4961181640624999
1.5831298828125
1.6524169921874998
1.65966796875
1.6451660156249999
1.815966796875
1.651611328125
1.6604736328124998
1.6322753906249998
1.6048828124999999
0.053173828124999996
1.3591552734374999
1.6403320312499998
1.7313720703125
1.8868652343749999
2.37509765625
2.7400634765625
3.0164062499999997
2.0197998046875
1.6886718749999998
1.5919921874999998
1.5645996093749999
1.546875
1.513037109375
1.4719482421874999
1.4872558593749998
1.4091064453125
1.4308593749999998
1.4832275390624998
1.5033691406249998
1.4977294921875
2.7529541015624996
2.0197998046875
1.5492919921875
1.4751708984374998
1.3253173828125
1.62744140625
0.546240234375
0.684814453125
0.8515869140625
1.1722412109375
1.3881591796875
1.4888671875
1.4598632812499999
1.6379150390625
1.6491943359374999
1.66611328125
1.6604736328124998
1.6620849609375
1.6572509765624999
1.6177734375
1.6008544921874999
0.0515625
1.0409179687499999
1.5702392578125
1.6935058593749999
1.9674316406249999
1.5404296874999999
1.8957275390625
3.011572265625
2.1535400390625
1.7748779296875
1.5662109375
1.5283447265624999
1.5944091796875
1.4888671875
1.5146484375
1.4848388671875
1.4348876953124998
1.5025634765625
1.5041748046874999
1.5251220703125
1.4961181640624999
2.52978515625
2.4435791015625
1.6169677734374999
1.4928955078125
1.281005859375
1.1537109374999999
0.8322509765624999
0.652587890625
0.7943847656249999
1.007080078125
1.3607666015625
1.445361328125
1.480810546875
1.6346923828125
1.6201904296874998
1.6161621093749998
1.6234130859375
1.67900390625
1.6556396484375
1.63388671875
1.6040771484374998
0.359326171875
0.5518798828125
1.5686279296874999
1.687060546875
1.8844482421875
2.4886962890624997
1.9569580078125
3.0566894531249997
2.2832519531249997
1.722509765625
1.585546875
1.513037109375
1.5355957031249998
1.47275390625
1.5073974609374998
1.51787109375
1.4397216796874999
1.4896728515625
1.46630859375
1.5202880859374999
1.5218994140625
1.5138427734375
3.0123779296874997
1.662890625
1.47275390625
1.3905761718749998
1.03125
1.2238037109375
0.6952880859374999
0.6485595703125
0.9877441406249999
1.3212890625
1.4348876953124998
1.4928955078125
1.593603515625
1.6645019531249998
1.6459716796875
1.6701416015625
1.662890625
1.6524169921874998
1.625830078125
1.6129394531249999
1.5605712890624999
0.46647949218749996
1.4928955078125
1.6379150390625
1.8796142578125
2.4121582031249997
2.3984619140625
2.9358398437499997
2.4983642578125
1.8900878906249998
1.6475830078125
1.5436523437499998
1.5323730468749999
1.545263671875
1.5194824218749998
1.5412353515625
1.5412353515625
1.4518066406249999
1.509814453125
1.5162597656249999
1.47275390625
1.47275390625
3.0204345703124997
1.812744140625
1.5033691406249998
1.3801025390625
1.2802001953125
0.78310546875
0.7162353515625
0.7218749999999999
0.9015380859375
1.2060791015624999
1.3929931640625
1.506591796875
1.490478515625
1.6218017578125
1.6250244140624999
1.6459716796875
1.72734375
1.6572509765624999
1.6322753906249998
1.638720703125
1.6282470703124998
0.0523681640625
1.300341796875
1.65966796875
1.767626953125
1.8062988281249999
2.4387451171875
3.059912109375
2.719921875
2.02705078125
1.6346923828125
1.5404296874999999
1.5090087890625
1.5154541015624998
1.506591796875
1.506591796875
1.4767822265625
1.50498046875
1.4719482421874999
1.4791992187499998
1.4735595703125
1.4711425781249998
3.0574951171875
1.8635009765625
1.5533203125
1.513037109375
1.3559326171875
0.91201171875
0.4729248046875
0.6912597656249999
0.8548095703124999
1.1964111328125
1.4066894531249998
1.529150390625
1.5331787109375
1.7015624999999999
1.6645019531249998
1.6218017578125
1.687060546875
1.6645019531249998
1.6314697265625
1.6250244140624999
1.6234130859375
0.0443115234375
1.21494140625
1.6435546875
1.7128417968749998
1.8546386718749999
1.5355957031249998
2.4967529296874997
3.0558837890625
2.0496093749999997
1.714453125
1.577490234375
1.533984375
1.5444580078124999
1.4912841796874998
1.480810546875
1.4872558593749998
1.4373046875
1.4993408203124998
1.4759765624999999
1.5041748046874999
1.50498046875
3.0550781249999996
2.2494140625
1.585546875
1.4751708984374998
1.2890625
1.6363037109374998
1.147265625
0.7557128906249999
0.8000244140624999
1.0981201171875
1.3784912109374998
1.4816162109375
1.4679199218749999
1.619384765625
1.6298583984375
1.6935058593749999
1.6886718749999998
1.6451660156249999
1.6403320312499998
1.6330810546874999
1.5879638671874998
0.049951171875
0.7951904296875
1.554931640625
1.7394287109375
1.9464843749999998
2.1487060546875
2.2107421874999997
3.0526611328124997
2.34287109375
1.8256347656249998
1.6048828124999999
1.5001464843749999
1.5355957031249998
1.5299560546875
1.6024658203125
1.5404296874999999
1.4026611328124998
1.51787109375
1.4816162109375
1.490478515625
1.4880615234374999
1.8361083984375
2.7755126953125
1.593603515625
1.4920898437499999
1.351904296875
1.577490234375
1.1931884765625
0.7959960937499999
0.7532958984375
1.042529296875
1.3349853515624999
1.4461669921875
1.47275390625
1.5976318359375
1.6483886718749998
1.6209960937499999
1.72412109375
1.5605712890624999
1.6411376953124999
1.638720703125
1.619384765625
1.1174560546874999
0.23525390624999998
1.5122314453124999
1.6508056640625
1.8256347656249998
2.2566650390625
1.9166748046875
3.05830078125
2.2429687499999997
1.7901855468749999
1.619384765625
1.5355957031249998
1.5299560546875
1.5275390624999998
1.5162597656249999
1.477587890625
1.474365234375
1.3817138671875
1.458251953125
1.474365234375
1.5146484375
1.5331787109375
2.8657470703124996
1.76279296875
1.5162597656249999
1.348681640625
0.8306396484374999
0.7855224609375
0.48017578125
0.7516845703124999
0.9168457031249999
1.26005859375
1.4638916015624999
1.5251220703125
1.5315673828124998
1.64677734375
1.6411376953124999
1.6040771484374998
1.8006591796875
1.6604736328124998
1.6242187499999998
1.6129394531249999
1.2101074218749999
0.1957763671875
1.42119140625
1.7047851562499998
1.8369140625
1.9352050781249999
2.357373046875
3.0550781249999996
2.53623046875
1.9521240234375
1.6781982421875
1.53720703125
1.4896728515625
1.53076171875
1.4864501953125
1.4945068359375
1.5364013671874999
1.3551269531249999
1.4888671875
1.4953124999999998
1.5073974609374998
1.5082031249999999
3.05830078125
2.0036865234375
1.4848388671875
1.44052734375
1.3672119140624999
0.704150390625
0.48259277343749996
0.6985107421875
0.833056640625
1.2455566406249998
1.38896484375
1.4920898437499999
1.5186767578125
1.6427490234375
1.625830078125
1.6927001953124998
1.7603759765625
1.667724609375
1.6822265625
1.6701416015625
1.6298583984375
0.049145507812499996
1.0570312499999999
1.64677734375
1.72734375
1.9223144531249998
2.2276611328125
2.6546630859375
3.0462158203125
2.0326904296875
1.6894775390624999
1.6008544921874999
1.5404296874999999
1.5436523437499998
1.5114257812499998
1.4880615234374999
1.509814453125
1.4397216796874999
1.4518066406249999
1.4687255859375
1.490478515625
1.4888671875
2.6176025390624997
2.0504150390625
1.53720703125
1.5025634765625
1.3083984375
1.5847412109374999
0.7073730468749999
0.7710205078125
0.8934814453125
1.1899658203124999
1.4026611328124998
1.4888671875
1.4832275390624998
1.62744140625
1.6588623046875
1.6765869140624998
1.7039794921875
1.6951171875
1.6653076171874999
1.6532226562499999
1.5984375
0.0459228515625
1.00224609375
1.5799072265624998
1.6371093749999999
1.9247314453125
1.5637939453124998
1.9327880859375
2.9753173828125
2.1205078125
1.7426513671875
1.5718505859374998
1.513037109375
1.5533203125
1.46953125
1.5138427734375
1.4735595703125
1.477587890625
1.482421875
1.4993408203124998
1.5033691406249998
1.5017578125
2.4484130859374997
2.5491210937499997
1.6798095703125
1.50498046875
1.2399169921875
1.026416015625
0.9740478515625
0.6590332031249999
0.7694091796875
0.9998291015624999
1.3857421875
1.4759765624999999
1.4816162109375
1.6306640625
1.6056884765625
1.61455078125
1.6322753906249998
1.6612792968749999
1.654833984375
1.6250244140624999
1.6048828124999999
0.50595703125
0.49387207031249997
1.5726562499999999
1.6822265625
1.851416015625
2.4451904296875
1.8763916015625
3.05830078125
2.415380859375
1.764404296875
1.5984375
1.56298828125
1.4655029296875
1.5194824218749998
1.4961181640624999
1.493701171875
1.4203857421875
1.4767822265625
1.5082031249999999
1.513037109375
1.4961181640624999
1.4896728515625
3.0566894531249997
1.6588623046875
1.477587890625
1.3704345703124998
0.9047607421874999
1.1698242187499999
0.765380859375
0.7661865234374999
1.003857421875
1.2995361328125
1.4791992187499998
1.5194824218749998
1.5637939453124998
1.6604736328124998
1.6451660156249999
1.6781982421875
1.6282470703124998
1.6298583984375
1.6161621093749998
1.61455078125
1.5992431640625
0.427001953125
1.456640625
1.6435546875
1.8489990234375
2.3178955078125
2.4202148437499997
2.947119140625
2.4854736328125
1.9190917968749999
1.6218017578125
1.545263671875
1.5041748046874999
1.5243164062499999
1.4550292968749998
1.5218994140625
1.5364013671874999
1.4461669921875
1.4953124999999998
1.4832275390624998
1.480810546875
1.46953125
3.043798828125
1.8344970703124999
1.5347900390625
1.3986328124999998
1.3092041015625
0.84755859375
0.507568359375
0.74443359375
0.9353759765624999
1.24072265625
1.45341796875
1.53076171875
1.5436523437499998
1.65
1.6121337890624998
1.5791015625
1.690283203125
1.635498046875
1.619384765625
1.6242187499999998
1.6048828124999999
0.0475341796875
1.26005859375
1.67900390625
1.7523193359375
1.832080078125
1.5597656249999998
3.0574951171875
2.6844726562499996
2.0310791015625
1.638720703125
1.56298828125
1.5090087890625
1.5887695312499999
1.4783935546875
1.4493896484375
1.442138671875
1.496923828125
1.5146484375
1.5122314453124999
1.5194824218749998
1.5194824218749998
3.0510498046874996
2.241357421875
1.545263671875
1.4759765624999999
1.2705322265624999
0.9949951171875
0.47050781249999996
0.6993164062499999
0.8338623046875
1.1819091796874999
1.4034667968749999
1.4953124999999998
1.522705078125
1.6604736328124998
1.6669189453125
1.6459716796875
1.670947265625
1.6363037109374998
1.635498046875
1.6169677734374999
1.6048828124999999
0.0555908203125
1.229443359375
1.6572509765624999
1.72734375
1.9698486328125
1.4840332031249999
2.3718749999999997
3.0591064453124996
2.0423583984375
1.690283203125
1.5895751953125
1.5299560546875
1.5621826171875
1.4977294921875
1.5654052734375
1.5090087890625
1.442138671875
1.546875
1.4896728515625
1.5275390624999998
1.51787109375
1.9263427734374998
2.2614990234375
1.5895751953125
1.45341796875
1.2882568359375
1.6314697265625
1.0634765625
0.720263671875
0.816943359375
1.0763671875
1.3656005859375
1.4791992187499998
1.456640625
1.5750732421875
1.6459716796875
1.6403320312499998
1.65
1.5557373046874998
1.6725585937499998
1.662890625
1.622607421875
0.050756835937499994
0.8209716796875
1.5557373046874998
1.67578125
1.9360107421875
2.1849609375
1.8900878906249998
3.0566894531249997
2.2115478515625
1.7926025390625
1.6000488281249998
1.546875
1.5637939453124998
1.496923828125
1.525927734375
1.5146484375
1.445361328125
1.58232421875
1.5404296874999999
1.5283447265624999
1.477587890625
1.740234375
2.792431640625
1.7184814453125
1.48564453125
1.3478759765625
0.813720703125
1.26328125
0.8145263671874999
0.749267578125
0.97646484375
1.3639892578125
1.4437499999999999
1.5009521484375
1.5911865234375
1.63388671875
1.6532226562499999
1.6266357421875
1.5750732421875
1.6371093749999999
1.635498046875
1.6048828124999999
1.1819091796874999
0.20625
1.5396240234374998
1.6773925781249999
1.796630859375
1.92392578125
2.0149658203125
3.0558837890625
2.473388671875
1.8151611328125
1.609716796875
1.5299560546875
1.5082031249999999
1.506591796875
1.5073974609374998
1.4912841796874998
1.4348876953124998
1.3664062499999998
1.50498046875
1.4888671875
1.48564453125
1.4848388671875
2.8874999999999997
1.7926025390625
1.5444580078124999
1.4469726562499998
0.90234375
0.7154296874999999
0.459228515625
0.7130126953125
0.9289306640624999
1.2777832031249998
1.4066894531249998
1.513037109375
1.5605712890624999
1.67578125
1.62744140625
1.6508056640625
1.738623046875
1.6427490234375
1.6459716796875
1.62744140625
1.6040771484374998
0.136962890625
1.3607666015625
1.6556396484375
1.7208984374999998
1.8755859375
2.27841796875
2.7126708984374996
2.673193359375
2.006103515625
1.687060546875
1.5621826171875
1.5057861328125
1.5275390624999998
1.5428466796875
1.5017578125
1.5154541015624998
1.4244140625
1.4880615234374999
1.5396240234374998
1.4872558593749998
1.48564453125
3.0558837890625
2.035107421875
1.5347900390625
1.445361328125
1.3430419921874999
1.6282470703124998
0.543017578125
0.67998046875
0.84755859375
1.16015625
1.413134765625
1.4783935546875
1.4679199218749999
1.65966796875
1.6604736328124998
1.6443603515624998
1.716064453125
1.6330810546874999
1.6427490234375
1.6330810546874999
1.6008544921874999
0.0459228515625
1.0658935546875
1.683837890625
1.7313720703125
1.9223144531249998
2.0778076171874997
3.053466796875
2.908447265625
2.0737792968749997
1.6524169921874998
1.5718505859374998
1.542041015625
1.5396240234374998
1.496923828125
1.4993408203124998
1.4622802734375
1.48564453125
1.47275390625
1.480810546875
1.4880615234374999
1.4896728515625
2.486279296875
2.1084228515625
1.6242187499999998
1.5355957031249998
1.2624755859374999
1.6910888671875
0.8999267578125
0.66064453125
0.825
1.1158447265625
1.3543212890624998
1.4759765624999999
1.4542236328125
1.619384765625
1.622607421875
1.6314697265625
1.7015624999999999
1.670947265625
1.641943359375
1.635498046875
1.6250244140624999
0.348046875
1.0094970703125
1.6000488281249998
1.7104248046875
1.8925048828125
1.6371093749999999
1.9948242187499998
2.940673828125
2.0890869140625
1.72734375
1.590380859375
1.522705078125
1.5404296874999999
1.5082031249999999
1.5444580078124999
1.4912841796874998
1.4373046875
1.477587890625
1.5017578125
1.5299560546875
1.5082031249999999
2.389599609375
2.54267578125
1.6508056640625
1.513037109375
1.2503906249999999
0.9353759765624999
1.2101074218749999
0.825
0.7774658203125
1.013525390625
1.3583496093749998
1.4518066406249999
1.4945068359375
1.5758789062499998
1.6451660156249999
1.651611328125
1.683837890625
1.6072998046875
1.65
1.6282470703124998
1.6072998046875
0.47775878906249997
0.48178710937499997
1.5082031249999999
1.7072021484375
1.8747802734374999
2.38154296875
1.8707519531249999
3.0550781249999996
2.3791259765625
1.843359375
1.5782958984375
1.5355957031249998
1.496923828125
1.5138427734375
1.513037109375
1.48564453125
1.4711425781249998
1.4848388671875
1.480810546875
1.458251953125
1.4848388671875
1.4840332031249999
3.0413818359375
1.6781982421875
1.482421875
1.3905761718749998
0.8830078124999999
1.119873046875
0.8000244140624999
0.6743408203125
0.9595458984374999
1.2858398437499998
1.4316650390624999
1.4896728515625
1.5621826171875
1.6540283203125
1.6395263671875
1.6636962890625
1.7378173828124999
1.6443603515624998
1.6411376953124999
1.6201904296874998
1.593603515625
0.40283203125
1.4816162109375
1.6806152343749998
1.75634765625
2.2671386718749997
2.4548583984375
3.0558837890625
2.40732421875
1.87236328125
1.6072998046875
1.53720703125
1.5057861328125
1.546875
1.5299560546875
1.5033691406249998
1.4872558593749998
1.4759765624999999
1.4840332031249999
1.4800048828124999
1.5170654296875
1.5186767578125
3.0591064453124996
1.88525390625
1.5299560546875
1.3897705078125
1.351904296875
1.0167480468749999
0.51884765625
0.7412109375
0.90556640625
1.206884765625
1.4518066406249999
1.5025634765625
1.5202880859374999
1.6266357421875
1.6540283203125
1.6234130859375
1.7096191406249999
1.6403320312499998
1.6314697265625
1.6322753906249998
1.5960205078124998
0.049951171875
1.2254150390625
1.65
1.7692382812499998
1.8506103515624999
1.4888671875
2.95517578125
2.7972656249999996
2.0729736328125
1.6612792968749999
1.554931640625
1.5057861328125
1.5484863281249999
1.5122314453124999
1.5202880859374999
1.5017578125
1.4493896484375
1.4671142578124998
1.4880615234374999
1.4864501953125
1.46953125
2.9978759765625
2.254248046875
1.53720703125
1.4791992187499998
1.2705322265624999
1.1754638671875
0.43344726562499997
0.758935546875
0.797607421875
1.2423339843749999
1.3768798828125
1.4526123046875
1.4791992187499998
1.670947265625
1.6475830078125
1.6693359374999999
1.6451660156249999
1.6395263671875
1.6451660156249999
1.619384765625
1.6072998046875
0.049951171875
1.1996337890625
1.61455078125
1.722509765625
1.9666259765624998
1.456640625
2.125341796875
3.05830078125
2.09150390625
1.7217041015624999
1.606494140625
1.545263671875
1.5347900390625
1.4840332031249999
1.5146484375
1.5162597656249999
1.448583984375
1.5444580078124999
1.48564453125
1.4888671875
1.4735595703125
1.754736328125
2.3243408203125
1.5984375
1.4711425781249998
1.27939453125
1.4864501953125
1.271337890625
0.7677978515624999
0.8121093749999999
1.0481689453125
1.3502929687499998
1.4783935546875
1.4840332031249999
1.6306640625
1.6451660156249999
1.6250244140624999
1.6725585937499998
1.5678222656249998
1.6508056640625
1.6379150390625
1.6177734375
0.072509765625
0.749267578125
1.5525146484374999
1.6306640625
1.8973388671875
2.34287109375
1.96904296875
3.0574951171875
2.2365234375
1.7901855468749999
1.5782958984375
1.513037109375
1.5033691406249998
1.5194824218749998
1.5235107421874998
1.4848388671875
1.4759765624999999
1.5911865234375
1.4872558593749998
1.50498046875
1.4791992187499998
1.6588623046875
2.8697753906249996
1.7507080078125
1.4751708984374998
1.3599609375
0.9450439453124999
1.3140380859374998
0.720263671875
0.7460449218749999
0.9394042968749999
1.340625
1.4622802734375
1.5122314453124999
1.6056884765625
1.6556396484375
1.63388671875
1.6693359374999999
1.5758789062499998
1.66611328125
1.6379150390625
1.609716796875
1.3237060546875
0.16677246093749998
1.5017578125
1.6483886718749998
1.8183837890624999
1.8618896484374998
2.0955322265625
3.0574951171875
2.560400390625
1.82080078125
1.6008544921874999
1.5484863281249999
1.522705078125
1.5525146484374999
1.5347900390625
1.477587890625
1.5347900390625
1.4058837890625
1.477587890625
1.474365234375
1.5073974609374998
1.4880615234374999
2.8866943359375
1.7531249999999998
1.4872558593749998
1.458251953125
1.042529296875
0.688037109375
0.604248046875
0.7097900390624999
0.945849609375
1.268115234375
1.397021484375
1.4993408203124998
1.5275390624999998
1.667724609375
1.667724609375
1.674169921875
1.6717529296875
1.6491943359374999
1.6475830078125
1.619384765625
1.6024658203125
0.11843261718749999
1.3688232421875
1.7015624999999999
1.8143554687499999
1.815966796875
2.0657226562499997
2.7102539062499997
2.6594970703125
1.9424560546874998
1.6346923828125
1.5541259765625
1.5218994140625
1.5251220703125
1.5138427734375
1.525927734375
1.5315673828124998
1.4622802734375
1.5323730468749999
1.496923828125
1.4638916015624999
1.4880615234374999
3.0574951171875
2.0681396484375
1.50498046875
1.45341796875
1.353515625
1.670947265625
0.39799804687499996
0.765380859375
0.871728515625
1.1617675781249999
1.4236083984374999
1.4993408203124998
1.464697265625
1.6371093749999999
1.6540283203125
1.6395263671875
1.719287109375
1.6443603515624998
1.63388671875
1.6218017578125
1.6008544921874999
0.04833984375
1.044140625
1.67900390625
1.7466796875
1.9279541015625
1.6089111328124999
2.91328125
2.9334228515625
2.096337890625
1.6854492187499999
1.554931640625
1.522705078125
1.55009765625
1.5146484375
1.5090087890625
1.52109375
1.48564453125
1.5436523437499998
1.5033691406249998
1.4880615234374999
1.4679199218749999
2.3082275390625
2.1148681640625
1.5533203125
1.496923828125
1.3027587890624999
1.7378173828124999
1.0707275390625
0.71220703125
0.8201660156249999
1.148876953125
1.384130859375
1.47275390625
1.458251953125
1.6556396484375
1.5976318359375
1.641943359375
1.6725585937499998
1.6048828124999999
1.6242187499999998
1.625830078125
1.61455078125
0.694482421875
0.95068359375
1.5509033203125
1.66611328125
1.9166748046875
1.7571533203124998
1.8377197265624998
3.0566894531249997
2.2518310546875
1.7942138671874999
1.6177734375
1.542041015625
1.5444580078124999
1.5347900390625
1.545263671875
1.5162597656249999
1.442138671875
1.3986328124999998
1.482421875
1.5041748046874999
1.4961181640624999
2.1720703125
2.6039062499999996
1.66611328125
1.4888671875
1.29228515625
0.823388671875
1.1045654296875
0.8104980468749999
0.7645751953125
0.9990234375
1.353515625
1.4437499999999999
1.5017578125
1.6048828124999999
1.6314697265625
1.6322753906249998
1.6862548828125
1.6105224609375
1.6564453124999998
1.6153564453125
1.6910888671875
0.797607421875
0.41411132812499996
1.4961181640624999
1.6822265625
1.8312744140625
2.1825439453124997
1.8087158203125
3.0591064453124996
2.4210205078125
1.8900878906249998
1.611328125
1.5484863281249999
1.5323730468749999
1.5162597656249999
1.5138427734375
1.5194824218749998
1.4429443359374998
1.4195800781249999
1.51787109375
1.493701171875
1.5146484375
1.5235107421874998
3.0526611328124997
1.6886718749999998
1.4783935546875
1.3801025390625
0.8040527343749999
0.9966064453125
0.539794921875
0.7621582031249999
1.00546875
1.2938964843749998
1.4284423828125
1.52109375
1.561376953125
1.65
1.6346923828125
1.6322753906249998
1.77568359375
1.6540283203125
1.6266357421875
1.6089111328124999
1.5887695312499999
0.3794677734375
1.4783935546875
1.6781982421875
1.7571533203124998
2.0874755859375
2.4758056640625
3.0510498046874996
2.3952392578125
1.8715576171875
1.6322753906249998
1.545263671875
1.522705078125
1.5557373046874998
1.533984375
1.4977294921875
1.4912841796874998
1.4590576171874998
1.5114257812499998
1.49853515625
1.4993408203124998
1.48564453125
3.0510498046874996
1.91748046875
1.538818359375
1.4066894531249998
1.3510986328124999
1.2656982421874998
0.6171386718749999
0.7387939453125
0.90234375
1.2141357421874999
1.4228027343749998
1.48564453125
1.4880615234374999
1.6540283203125
1.6177734375
1.6588623046875
1.6508056640625
1.619384765625
1.6363037109374998
1.6330810546874999
1.6169677734374999
0.0459228515625
1.1674072265625
1.6806152343749998
1.7523193359375
1.8755859375
1.4711425781249998
2.682861328125
2.9181152343749996
2.1309814453125
1.6935058593749999
1.5847412109374999
1.5517089843749998
1.5364013671874999
1.5122314453124999
1.5009521484375
1.4961181640624999
1.43408203125
1.4469726562499998
1.4912841796874998
1.513037109375
1.4848388671875
2.79404296875
2.318701171875
1.533984375
1.4872558593749998
1.2898681640624998
1.4074951171874999
0.48662109374999996
0.7774658203125
0.8854248046875
1.1786865234375
1.3752685546874999
1.493701171875
1.509814453125
1.6572509765624999
1.6218017578125
1.638720703125
1.6685302734374998
1.6854492187499999
1.65
1.622607421875
1.6056884765625
0.2102783203125
1.1512939453125
1.6153564453125
1.7023681640625
1.8925048828125
1.4445556640625
2.077001953125
3.0558837890625
2.080224609375
1.716064453125
1.5831298828125
1.5057861328125
1.5565429687499999
1.4864501953125
1.5911865234375
1.4751708984374998
1.45341796875
1.5444580078124999
1.4888671875
1.5090087890625
1.5057861328125
2.6603027343749996
2.3807373046875
1.662890625
1.4840332031249999
1.2584472656249999
1.34384765625
1.2689208984375
0.7081787109375
0.8193603515625
1.0739501953125
1.3720458984375
1.4888671875
1.464697265625
1.5847412109374999
1.5984375
1.6177734375
1.674169921875
1.71123046875
1.654833984375
1.6218017578125
1.6081054687499998
0.2553955078125
0.6735351562499999
1.5364013671874999
1.703173828125
1.9053955078125
2.4298828125
2.126953125
3.0558837890625
2.2510253906249997
1.7990478515625
1.5815185546875
1.5428466796875
1.5347900390625
1.4679199218749999
1.5138427734375
1.5009521484375
1.5082031249999999
1.5186767578125
1.5170654296875
1.5001464843749999
1.496923828125
1.5509033203125
2.89716796875
1.6234130859375
1.4679199218749999
1.3986328124999998
1.090869140625
1.2528076171875
0.8314453125
0.760546875
1.077978515625
1.36962890625
1.4574462890625
1.4928955078125
1.5815185546875
1.6435546875
1.62744140625
1.6564453124999998
1.6395263671875
1.6483886718749998
1.6234130859375
1.6089111328124999
1.4912841796874998
0.10554199218749999
1.5017578125
1.6475830078125
1.8046875
2.42666015625
2.2566650390625
3.0357421875
2.6627197265625
1.835302734375
1.6153564453125
1.5484863281249999
1.5283447265624999
1.5444580078124999
1.5251220703125
1.4977294921875
1.5154541015624998
1.47275390625
1.509814453125
1.4920898437499999
1.4864501953125
1.496923828125
2.9600097656249997
1.7990478515625
1.5106201171875
1.3744628906249998
1.22138671875
0.742822265625
0.42941894531249997
0.7404052734375
0.9410156249999999
1.2511962890625
1.445361328125
1.4993408203124998
