2.1454833984375
1.920703125
1.67578125
1.5662109375
1.5090087890625
1.5082031249999999
1.4896728515625
2.7062255859374997
3.029296875
2.8609130859375
2.8657470703124996
2.5330078124999997
2.12373046875
0.08620605468749999
0.02900390625
0.0217529296875
0.026586914062499998
0.0298095703125
0.20302734374999998
0.330322265625
0.6332519531249999
0.7557128906249999
1.0546142578125
1.42119140625
1.348681640625
1.6572509765624999
1.7716552734375
1.7015624999999999
0.5196533203125
0.02578125
0.2892333984375
0.443115234375
0.8918701171875
1.6773925781249999
2.487890625
3.0333251953125
3.0309082031249996
3.0252685546875
2.650634765625
2.3726806640625
2.1438720703125
2.0471923828125
1.9569580078125
1.9134521484375
1.780517578125
1.3220947265624998
1.63388671875
1.6588623046875
1.5766845703124999
1.5001464843749999
3.0317138671875
3.034130859375
2.8915283203124997
2.586181640625
2.457275390625
1.264892578125
0.022558593749999998
0.026586914062499998
0.02578125
0.02578125
0.2038330078125
0.33837890625
0.4648681640625
0.7581298828124999
1.0650878906249999
1.319677734375
1.864306640625
1.77890625
1.6854492187499999
1.7055908203124999
0.752490234375
0.022558593749999998
0.0249755859375
0.588134765625
0.936181640625
0.9450439453124999
1.7692382812499998
3.0309082031249996
3.034130859375
3.0349365234374996
2.7674560546875
2.437939453125
2.2469970703124997
2.1865722656249997
2.028662109375
2.07861328125
1.9617919921875
1.538818359375
1.6733642578124999
1.5807128906249999
1.5678222656249998
1.50498046875
3.0301025390625
3.0333251953125
2.9479248046874997
2.7988769531249997
2.40732421875
1.4518066406249999
0.024169921875
0.0281982421875
0.020947265625
0.02578125
0.1426025390625
0.30454101562499997
0.43828124999999996
0.66064453125
0.8588378906249999
1.1859374999999999
1.4703369140625
1.3801025390625
1.67900390625
1.7055908203124999
1.6234130859375
0.027392578124999997
0.02900390625
0.5357666015625
0.5438232421875
1.1835205078125
1.6089111328124999
3.0325195312499997
3.0349365234374996
3.0317138671875
2.8037109375
2.6055175781249997
2.3114501953124997
2.2389404296874997
2.1245361328125
2.044775390625
2.08505859375
1.6483886718749998
1.3075927734375
1.464697265625
1.4187744140624998
1.4437499999999999
3.0309082031249996
3.0309082031249996
2.7593994140625
2.8496337890624996
2.318701171875
1.8683349609375
0.149853515625
0.024169921875
0.026586914062499998
0.023364257812499997
0.046728515624999994
0.020947265625
0.1571044921875
0.6888427734375
0.710595703125
1.1214843749999999
1.4091064453125
1.6564453124999998
1.6959228515625
1.7490966796874998
1.719287109375
0.02578125
0.026586914062499998
0.36577148437499996
0.684814453125
1.3148437499999999
1.7587646484375
2.682861328125
3.0333251953125
3.0325195312499997
2.969677734375
2.6627197265625
2.3082275390625
2.193017578125
2.0737792968749997
1.9182861328124998
1.78857421875
1.7410400390624998
1.5960205078124998
1.6185791015625
1.6137451171875
1.6040771484374998
3.0317138671875
3.0309082031249996
3.034130859375
2.8560791015625
2.5805419921875
2.1277587890625
1.148876953125
0.0217529296875
0.024169921875
0.026586914062499998
0.09023437499999999
0.1957763671875
0.233642578125
0.4954833984375
0.4439208984375
1.0167480468749999
1.268115234375
1.5791015625
1.6653076171874999
1.7531249999999998
1.7208984374999998
0.02578125
0.02578125
0.0281982421875
0.4648681640625
0.82177734375
0.9216796875
2.5434814453124996
3.0333251953125
3.0309082031249996
3.0333251953125
2.7706787109374997
2.505615234375
2.3162841796875
2.183349609375
2.0745849609375
2.0737792968749997
1.7265380859375
1.222998046875
1.5017578125
1.5009521484375
1.5057861328125
1.4767822265625
3.0381591796875
3.0301025390625
2.86494140625
2.7263671874999997
2.2631103515624997
1.2270263671875
0.02578125
0.02578125
0.027392578124999997
0.023364257812499997
0.1087646484375
0.2263916015625
0.4189453125
0.7629638671875
0.8765624999999999
1.32451171875
1.8369140625
1.5162597656249999
1.5879638671874998
1.6129394531249999
1.635498046875
0.02900390625
0.026586914062499998
0.41008300781249996
0.49790039062499997
0.8032470703125
1.738623046875
3.0325195312499997
3.0349365234374996
3.0333251953125
2.7972656249999996
2.6047119140625
2.36220703125
2.2872802734374997
2.16884765625
2.1946289062499997
1.9513183593749999
1.6725585937499998
1.5251220703125
1.5347900390625
1.571044921875
1.4638916015624999
3.0301025390625
3.0325195312499997
2.8190185546874997
2.779541015625
2.6208251953125
1.85947265625
0.023364257812499997
0.022558593749999998
0.027392578124999997
0.0249755859375
0.08942871093749999
0.21672363281249998
0.21108398437499998
0.6654785156249999
0.8967041015624999
1.0094970703125
1.4759765624999999
1.545263671875
1.7474853515625
1.7684326171875
1.7007568359374998
0.023364257812499997
0.027392578124999997
0.3714111328125
0.4954833984375
1.2262207031249999
1.5202880859374999
2.9398681640624997
3.0333251953125
3.0309082031249996
2.8496337890624996
2.615185546875
2.3501220703125
2.2760009765625
2.1462890624999997
1.7942138671874999
1.867529296875
1.7466796875
1.4332763671875
1.6564453124999998
1.5976318359375
1.53076171875
3.0301025390625
3.0317138671875
2.8609130859375
2.9326171875
2.4919189453125
1.8860595703124998
0.36577148437499996
0.0281982421875
0.022558593749999998
0.027392578124999997
0.061230468749999996
0.153076171875
0.1571044921875
0.575244140625
0.7476562499999999
1.0650878906249999
1.3865478515624998
1.843359375
1.6266357421875
1.7168701171874998
1.7362060546875
0.023364257812499997
0.023364257812499997
0.2586181640625
0.5422119140625
0.9063720703125
1.2374999999999998
2.7521484375
3.034130859375
3.0268798828124996
3.0252685546875
2.7497314453125
2.4709716796875
2.321923828125
2.1793212890625
2.21396484375
2.1116455078125
1.7200927734375
1.7015624999999999
1.4791992187499998
1.5170654296875
1.5299560546875
1.5202880859374999
3.0309082031249996
2.9712890625
2.8133789062499996
2.6103515625
1.9166748046875
1.018359375
0.0281982421875
0.02578125
0.0249755859375
0.0249755859375
0.1474365234375
0.2811767578125
0.5373779296875
0.8290283203125
1.1190673828125
1.3865478515624998
1.4961181640624999
1.5484863281249999
1.6669189453125
1.6854492187499999
1.6209960937499999
0.026586914062499998
0.1780517578125
0.2989013671875
0.928125
1.0481689453125
2.012548828125
3.0309082031249996
3.029296875
3.0325195312499997
2.7916259765625
2.5152832031249996
2.3074218749999997
2.2244384765625
2.1889892578125
2.1390380859375
1.9215087890625
1.6604736328124998
1.546875
1.6282470703124998
1.474365234375
1.5799072265624998
3.0325195312499997
3.0325195312499997
2.9302001953124996
2.7344238281249997
2.8190185546874997
1.7926025390625
0.023364257812499997
0.022558593749999998
0.024169921875
0.024169921875
0.1393798828125
0.285205078125
0.2876220703125
0.74443359375
0.889453125
1.1021484375
1.7877685546875
1.667724609375
1.6588623046875
1.670947265625
1.6435546875
0.022558593749999998
0.02578125
0.38510742187499997
0.6413085937499999
1.0191650390625
1.869140625
3.0309082031249996
3.0333251953125
3.0309082031249996
2.7948486328124997
2.5966552734375
2.40087890625
2.2913085937499997
2.1978515625
2.0681396484375
1.815966796875
1.7539306640624999
1.751513671875
1.6072998046875
1.55009765625
1.4912841796874998
3.029296875
3.0357421875
2.8866943359375
2.9865966796874996
2.69736328125
1.9569580078125
0.024169921875
0.0281982421875
0.024169921875
0.026586914062499998
0.0249755859375
0.17724609375
0.25620117187499997
0.8467529296874999
1.1174560546874999
1.069921875
1.405078125
1.6024658203125
1.5662109375
1.5944091796875
1.6024658203125
0.0249755859375
0.0298095703125
0.48662109374999996
0.6308349609374999
1.2109130859375
1.7007568359374998
2.9946533203124996
3.0309082031249996
3.0325195312499997
2.889111328125
2.7223388671874997
2.3742919921875
2.3436767578124997
1.9787109374999998
1.9625976562499998
2.0109375
1.7088134765624998
2.0923095703125
1.53720703125
1.5162597656249999
1.5138427734375
3.0357421875
3.0325195312499997
2.9656494140625
2.9753173828125
2.3178955078125
1.8280517578125
0.8419189453125
0.024169921875
0.02578125
0.02578125
0.0394775390625
0.1740234375
0.1635498046875
0.43344726562499997
0.8386962890624999
0.6920654296875
1.24716796875
1.714453125
1.6177734375
1.690283203125
1.687060546875
0.024169921875
0.026586914062499998
0.3746337890625
0.613916015625
1.0006347656249999
1.3583496093749998
2.2751953124999997
3.0365478515624997
3.0381591796875
3.034130859375
2.7191162109375
2.4846679687499997
2.3001708984375
2.11728515625
2.3275634765624997
1.973876953125
1.7974365234374998
2.1954345703125
1.5887695312499999
1.6346923828125
1.5895751953125
1.558154296875
3.0317138671875
3.02607421875
2.9769287109375
2.7650390624999996
2.7569824218749996
0.9804931640625
0.030615234374999998
0.0249755859375
0.02578125
0.022558593749999998
0.08217773437499999
0.2038330078125
0.44553222656249997
0.7371826171875
0.961962890625
1.1303466796875
1.1819091796874999
1.7233154296875
1.703173828125
1.7120361328125
1.6693359374999999
0.02578125
0.18691406249999998
0.15146484375
0.700927734375
0.800830078125
2.047998046875
3.0309082031249996
3.0325195312499997
3.0309082031249996
2.7779296875
2.56201171875
2.3807373046875
2.2880859375
2.0971435546875
2.1793212890625
1.7523193359375
1.6910888671875
1.7926025390625
1.6081054687499998
1.6129394531249999
1.5807128906249999
3.0357421875
3.034130859375
2.856884765625
2.8456054687499996
2.7336181640625
1.7265380859375
0.0281982421875
0.024169921875
0.026586914062499998
0.0314208984375
0.095068359375
0.21672363281249998
0.28681640625
0.807275390625
0.9756591796874999
1.2584472656249999
1.4316650390624999
1.4381103515625
1.6371093749999999
1.6943115234375
1.6975341796874999
0.02578125
0.023364257812499997
0.630029296875
0.559130859375
1.0046630859374999
1.5355957031249998
3.027685546875
3.0325195312499997
3.0309082031249996
2.850439453125
2.6522460937499996
2.4194091796875
2.418603515625
2.1978515625
2.2518310546875
2.1060058593749997
1.786962890625
1.754736328125
1.5001464843749999
1.4920898437499999
1.4920898437499999
3.029296875
3.0317138671875
2.9124755859375
3.0075439453125
2.3549560546875
1.9424560546874998
0.026586914062499998
0.027392578124999997
0.02578125
0.02900390625
0.11762695312499999
0.21591796875
0.1893310546875
0.7557128906249999
1.0707275390625
1.0368896484374999
1.313232421875
1.5186767578125
1.585546875
1.6524169921874998
1.6395263671875
0.027392578124999997
0.026586914062499998
0.16274414062499998
0.4439208984375
1.0626708984375
1.5517089843749998
2.9205322265625
3.0317138671875
3.0301025390625
2.9769287109375
2.67158203125
2.5015869140625
2.3718749999999997
2.060888671875
2.3678466796874997
2.0246337890625
1.7233154296875
1.877197265625
1.6306640625
1.587158203125
1.529150390625
1.980322265625
3.0365478515624997
2.9608154296875
2.9277832031249997
2.65546875
1.9295654296875
0.8580322265625
0.026586914062499998
0.027392578124999997
0.023364257812499997
0.03544921875
0.088623046875
0.16274414062499998
0.4793701171875
0.7065673828125
0.9257080078125
1.4356933593749999
1.1754638671875
1.6427490234375
1.754736328125
1.7096191406249999
1.405078125
0.027392578124999997
0.36416015625
0.21269531249999998
0.688037109375
1.380908203125
2.34287109375
3.0333251953125
3.0333251953125
3.0284912109374997
2.818212890625
2.6047119140625
2.36220703125
2.3315917968749997
2.212353515625
2.11083984375
1.7668212890625
1.5541259765625
1.5194824218749998
1.55009765625
1.558154296875
1.5138427734375
3.0317138671875
3.034130859375
2.9600097656249997
2.7134765625
2.6103515625
1.561376953125
0.0249755859375
0.0217529296875
0.023364257812499997
0.02900390625
0.08540039062499999
0.16032714843749998
0.3472412109375
0.75087890625
0.9611572265624999
1.2044677734375
1.4276367187499999
1.6604736328124998
1.5992431640625
1.6910888671875
1.5396240234374998
0.02578125
0.024169921875
0.4004150390625
0.6807861328125
0.781494140625
1.4630859374999998
3.034130859375
3.029296875
3.0325195312499997
2.8544677734375
2.5966552734375
2.36220703125
2.376708984375
2.2357177734375
2.2727783203125
2.1180908203124997
1.6572509765624999
1.7974365234374998
1.5114257812499998
1.55009765625
1.50498046875
3.0333251953125
3.0325195312499997
2.9986816406249996
2.9326171875
2.4790283203124996
1.63388671875
0.02578125
0.0217529296875
0.02578125
0.024169921875
0.111181640625
0.24895019531249998
0.3673828125
0.6759521484375
0.8709228515624999
1.0046630859374999
1.4606689453125
1.3994384765624999
1.6943115234375
1.7208984374999998
1.6636962890625
0.02578125
0.027392578124999997
0.5132080078125
0.3440185546875
1.1384033203125
1.3801025390625
3.0309082031249996
3.034130859375
3.0325195312499997
2.860107421875
2.6385498046875
2.4685546874999997
2.4032958984375
2.25263671875
2.0343017578125
1.9505126953124998
1.7418457031249999
1.5509033203125
1.6862548828125
1.52109375
1.5476806640624998
3.0284912109374997
3.0333251953125
2.9358398437499997
2.9600097656249997
2.4943359375
1.9746826171874998
0.6856201171874999
0.026586914062499998
0.02900390625
0.027392578124999997
0.0281982421875
0.08056640625
0.11359863281249999
0.530126953125
0.4842041015625
1.0707275390625
1.340625
1.3768798828125
1.6878662109375
1.674169921875
1.6781982421875
0.0281982421875
0.024169921875
0.08540039062499999
0.3053466796875
1.02158203125
1.5702392578125
2.53623046875
3.0309082031249996
3.0317138671875
3.0349365234374996
2.7755126953125
2.49755859375
2.4121582031249997
2.3396484374999997
2.410546875
2.1664306640624997
1.767626953125
1.3921875
1.611328125
1.5662109375
1.5396240234374998
2.495947265625
3.0309082031249996
3.0349365234374996
3.021240234375
2.7078369140625
2.4041015624999997
1.368017578125
0.0217529296875
0.02578125
0.02578125
0.02578125
0.1490478515625
0.198193359375
0.3585205078125
0.5567138671874999
0.8854248046875
1.20849609375
1.1931884765625
1.5057861328125
1.5799072265624998
1.593603515625
1.0707275390625
0.026586914062499998
0.0314208984375
0.1353515625
0.662255859375
0.6654785156249999
1.6475830078125
3.0309082031249996
3.0333251953125
3.0309082031249996
2.8254638671874996
2.6748046875
2.45888671875
2.360595703125
2.247802734375
2.196240234375
2.0584716796875
1.445361328125
1.63388671875
1.5734619140625
1.5678222656249998
1.51787109375
3.0333251953125
3.034130859375
3.0301025390625
3.0099609375
2.840771484375
1.48564453125
0.02578125
0.027392578124999997
0.026586914062499998
0.026586914062499998
0.0281982421875
0.15791015625
0.25217285156249997
0.47775878906249997
0.646142578125
1.0320556640625
1.593603515625
1.4445556640625
1.6556396484375
1.7531249999999998
1.7128417968749998
0.0281982421875
0.026586914062499998
0.31259765624999997
0.269091796875
0.9861328125
1.5251220703125
3.0309082031249996
3.034130859375
3.0325195312499997
2.9156982421874997
2.7175048828125
2.45888671875
2.437939453125
2.3227294921875
1.8167724609375
1.9279541015625
1.7772949218749998
1.4373046875
1.6451660156249999
1.662890625
1.6056884765625
3.029296875
3.0333251953125
2.9382568359374996
3.029296875
2.634521484375
2.0407470703125
0.5309326171875
0.024169921875
0.026586914062499998
0.02578125
0.02578125
0.13212890624999998
0.11923828125
0.5003173828124999
0.7404052734375
0.9772705078124999
1.29228515625
1.7635986328125
1.6266357421875
1.7023681640625
1.67900390625
0.0298095703125
0.02578125
0.023364257812499997
0.33676757812499997
0.966796875
1.4783935546875
2.6522460937499996
3.0325195312499997
3.0301025390625
3.0309082031249996
2.7811523437499996
2.5628173828125
2.5837646484374996
2.44599609375
2.11083984375
2.1712646484375
1.8369140625
1.33740234375
1.6234130859375
1.5460693359375
1.542041015625
3.0268798828124996
3.0325195312499997
2.98095703125
3.0325195312499997
2.7545654296874997
2.2228271484374997
0.507568359375
0.023364257812499997
0.026586914062499998
0.026586914062499998
0.026586914062499998
0.049951171875
0.0749267578125
0.43344726562499997
0.32871093749999997
0.8201660156249999
1.1794921875
1.5944091796875
1.5001464843749999
1.6177734375
1.6524169921874998
0.0249755859375
0.0249755859375
0.022558593749999998
0.301318359375
0.6856201171874999
0.7871337890625
2.334814453125
3.0325195312499997
3.0325195312499997
3.0325195312499997
2.8270751953124997
2.6232421875
2.450830078125
2.31064453125
2.3227294921875
2.18818359375
1.9247314453125
1.7039794921875
1.5919921874999998
1.6854492187499999
1.5919921874999998
1.5750732421875
3.0357421875
3.0349365234374996
3.0325195312499997
2.88427734375
2.3372314453125
1.2262207031249999
0.0249755859375
0.02578125
0.0298095703125
0.033032226562499996
0.02578125
0.175634765625
0.249755859375
0.5309326171875
0.7162353515625
1.0417236328125
1.7772949218749998
1.6435546875
1.6701416015625
1.722509765625
1.6773925781249999
0.02578125
0.0249755859375
0.0926513671875
0.35126953125
0.6638671875
1.65966796875
3.0309082031249996
3.0317138671875
3.0325195312499997
2.9575927734375
2.7465087890624997
2.5418701171875
2.528173828125
2.4161865234374997
2.23330078125
2.0181884765625
1.8304687499999999
1.6242187499999998
1.667724609375
1.609716796875
1.546875
3.0325195312499997
3.0325195312499997
3.027685546875
3.0284912109374997
2.8947509765625
2.0681396484375
0.026586914062499998
0.024169921875
0.023364257812499997
0.026586914062499998
0.02578125
0.15468749999999998
0.1893310546875
0.6332519531249999
0.6840087890625
0.9571289062499999
1.316455078125
1.4550292968749998
1.5492919921875
1.6371093749999999
1.6250244140624999
0.024169921875
0.02900390625
0.1200439453125
0.2578125
0.8870361328124999
1.3494873046875
3.0301025390625
3.0349365234374996
3.037353515625
3.0309082031249996
2.7980712890625
2.6103515625
2.6119628906249996
2.4685546874999997
2.0971435546875
2.1696533203125
1.796630859375
1.4147460937499998
1.635498046875
1.6024658203125
1.5364013671874999
3.0317138671875
3.0301025390625
3.0156005859375
3.034130859375
2.487890625
2.1197021484375
0.024169921875
0.026586914062499998
0.026586914062499998
0.026586914062499998
0.0281982421875
0.136962890625
0.02900390625
0.41813964843749996
0.6703125
0.8725341796874999
1.3494873046875
1.7700439453124999
1.593603515625
1.6636962890625
1.658056640625
0.024169921875
0.023364257812499997
0.02578125
0.40927734374999997
0.69609375
1.41796875
2.647412109375
3.0317138671875
3.029296875
3.034130859375
2.7972656249999996
2.6119628906249996
2.5354248046874996
2.2365234375
2.544287109375
2.0987548828125
1.8651123046875
2.1342041015624997
1.6250244140624999
1.61455078125
1.5702392578125
1.51787109375
3.0301025390625
3.0333251953125
3.027685546875
2.6538574218749997
2.0625
1.0239990234375
0.026586914062499998
0.02900390625
0.0249755859375
0.02578125
0.09748535156249999
0.0668701171875
0.3585205078125
0.62197265625
0.91201171875
1.1754638671875
1.2656982421874998
1.5815185546875
1.7184814453125
1.6886718749999998
1.6081054687499998
0.026586914062499998
0.022558593749999998
0.03544921875
0.646142578125
1.0916748046875
2.0600830078125
3.0325195312499997
3.0357421875
3.0309082031249996
2.8770263671875
2.624853515625
2.4500244140625
2.386376953125
2.3533447265625
2.1543457031249997
1.8240234375
1.7571533203124998
1.5782958984375
1.65
1.6395263671875
1.61455078125
3.034130859375
3.0325195312499997
3.005126953125
2.827880859375
2.9269775390625
1.8739746093749998
0.0249755859375
0.024169921875
0.02578125
0.0249755859375
0.0298095703125
0.12568359375
0.1554931640625
0.5953857421875
0.7702148437499999
1.0892578124999999
1.4308593749999998
1.6209960937499999
1.5863525390625
1.6749755859375
1.6371093749999999
0.02578125
0.024169921875
0.0878173828125
0.46647949218749996
0.8040527343749999
1.416357421875
3.0365478515624997
3.0317138671875
3.0325195312499997
2.8705810546875
2.7884033203125
2.616796875
2.4870849609374996
2.3396484374999997
2.3162841796875
2.1865722656249997
1.735400390625
1.7571533203124998
1.5645996093749999
1.5436523437499998
1.50498046875
3.0317138671875
3.0309082031249996
2.9519531249999997
3.0357421875
2.44921875
2.0504150390625
0.0217529296875
0.024169921875
0.02578125
0.0249755859375
0.0459228515625
0.1200439453125
0.1474365234375
0.6308349609374999
0.93779296875
0.91845703125
1.3494873046875
1.4977294921875
1.5476806640624998
1.6363037109374998
1.6000488281249998
0.027392578124999997
0.0249755859375
0.31259765624999997
0.322265625
0.7871337890625
1.327734375
2.8786376953125
3.0333251953125
3.0333251953125
3.0284912109374997
2.7513427734375
2.4468017578125
2.4911132812499996
2.1060058593749997
2.5402587890625
1.993212890625
1.8667236328124999
1.980322265625
1.6636962890625
1.6532226562499999
1.5734619140625
3.0333251953125
3.0309082031249996
3.02607421875
3.029296875
2.4790283203124996
1.977099609375
0.90556640625
0.02578125
0.02578125
0.026586914062499998
0.02578125
0.08137207031249999
0.027392578124999997
0.40524902343749997
0.8709228515624999
0.9990234375
1.3067871093749999
1.0626708984375
1.611328125
1.6056884765625
1.6201904296874998
0.026586914062499998
0.0249755859375
0.027392578124999997
0.1393798828125
0.791162109375
1.2979248046874998
2.2002685546875
3.0325195312499997
3.029296875
3.0284912109374997
2.8351318359374997
2.63291015625
2.46533203125
2.434716796875
2.6876953125
2.260693359375
1.9134521484375
2.1567626953125
1.611328125
1.6048828124999999
1.5186767578125
1.4800048828124999
3.0357421875
3.0309082031249996
3.0099609375
2.7980712890625
2.776318359375
1.12470703125
0.02578125
0.0217529296875
0.0249755859375
0.024169921875
0.091845703125
0.1490478515625
0.3311279296875
0.57041015625
0.8177490234375
1.16015625
0.9168457031249999
1.5517089843749998
1.5670166015625
1.5799072265624998
1.5541259765625
0.0249755859375
0.02578125
0.0298095703125
0.5164306640624999
0.5937744140625
2.0012695312499997
3.0309082031249996
3.0325195312499997
3.0325195312499997
2.8899169921874996
2.715087890625
2.5636230468749996
2.4556640625
2.34287109375
2.4041015624999997
2.0359130859375
1.767626953125
1.8989501953124999
1.6290527343749999
1.545263671875
1.5017578125
3.0325195312499997
3.037353515625
3.0301025390625
3.0268798828124996
2.8133789062499996
1.719287109375
0.0281982421875
0.02578125
0.022558593749999998
0.030615234374999998
0.027392578124999997
0.1699951171875
0.2666748046875
0.5470458984375
0.8040527343749999
0.9796874999999999
1.351904296875
1.2737548828124998
1.6185791015625
1.716064453125
1.6121337890624998
0.027392578124999997
0.026586914062499998
0.436669921875
0.230419921875
0.6815917968749999
1.36962890625
3.0325195312499997
3.0309082031249996
3.0349365234374996
3.029296875
2.7988769531249997
2.544287109375
2.6304931640625
2.3388427734375
2.38154296875
2.064111328125
1.8393310546875
1.960986328125
1.6153564453125
1.5992431640625
1.51787109375
3.0309082031249996
3.0309082031249996
3.029296875
3.0317138671875
2.486279296875
1.989990234375
0.0298095703125
0.0217529296875
0.0249755859375
0.026586914062499998
0.0249755859375
0.09829101562499999
0.0281982421875
0.491455078125
0.9998291015624999
0.966796875
1.3059814453124998
1.4598632812499999
1.6564453124999998
1.6653076171874999
1.5976318359375
0.022558593749999998
0.0322265625
0.02578125
0.2022216796875
0.8362792968749999
1.405078125
2.9447021484375
3.0309082031249996
3.034130859375
3.0333251953125
2.8995849609374997
2.6603027343749996
2.5209228515624997
2.3203125
2.5475097656249996
2.2212158203125
1.8409423828125
1.73056640625
1.654833984375
1.574267578125
1.4767822265625
2.5563720703125
3.0301025390625
3.0333251953125
3.029296875
2.76826171875
2.0044921875
0.8701171875
0.0217529296875
0.022558593749999998
0.0281982421875
0.024169921875
0.041088867187499996
0.0249755859375
0.3424072265625
0.42619628906249996
0.8241943359374999
1.2254150390625
1.16015625
1.506591796875
1.6346923828125
1.625830078125
0.9571289062499999
0.02578125
0.023364257812499997
0.0539794921875
0.597802734375
1.2737548828124998
2.205908203125
3.0309082031249996
3.0317138671875
3.0317138671875
2.889111328125
2.70380859375
2.55234375
2.4749999999999996
2.3807373046875
2.2308837890624997
2.0302734375
1.5041748046874999
1.7128417968749998
1.5984375
1.5533203125
1.5106201171875
3.0309082031249996
3.0309082031249996
3.029296875
2.80048828125
2.698974609375
1.5364013671874999
0.022558593749999998
0.02578125
0.026586914062499998
0.024169921875
0.0281982421875
0.0958740234375
0.21591796875
0.45358886718749997
0.8080810546874999
0.9917724609374999
1.4864501953125
1.5412353515625
1.5887695312499999
1.64677734375
1.6314697265625
0.022558593749999998
0.024169921875
0.3053466796875
0.5518798828125
0.526904296875
1.4550292968749998
3.0333251953125
3.0317138671875
3.029296875
2.9825683593749996
2.6739990234374997
2.441162109375
2.5249511718749997
2.296142578125
2.4427734375
2.1164794921875
1.8844482421875
1.8957275390625
1.6653076171874999
1.635498046875
1.5057861328125
3.0301025390625
3.0309082031249996
3.0317138671875
3.0301025390625
2.6047119140625
2.1076171875
0.0249755859375
0.02578125
0.02578125
0.027392578124999997
0.02900390625
0.0829833984375
0.0281982421875
0.439892578125
0.646142578125
0.8854248046875
1.3237060546875
1.2374999999999998
1.5702392578125
1.6282470703124998
1.590380859375
0.0322265625
0.030615234374999998
0.2618408203125
0.153076171875
0.9595458984374999
1.4115234374999999
3.0309082031249996
3.0301025390625
3.0349365234374996
3.0317138671875
2.898779296875
2.6917236328125
2.6216308593749997
2.5563720703125
2.1205078125
2.2469970703124997
1.9271484374999999
1.4800048828124999
1.7168701171874998
1.6121337890624998
1.558154296875
3.0325195312499997
3.034130859375
3.0284912109374997
3.0325195312499997
2.7336181640625
2.2324951171875
0.43505859375
0.02578125
0.023364257812499997
0.0281982421875
0.024169921875
0.050756835937499994
0.0298095703125
0.41572265625
0.2900390625
1.007080078125
1.2415283203124998
1.619384765625
1.464697265625
1.585546875
1.6105224609375
0.022558593749999998
0.0314208984375
0.0281982421875
0.14824218749999998
0.575244140625
1.4107177734374998
2.2953369140624997
3.0357421875
3.0284912109374997
3.0317138671875
2.9173095703125
2.6611083984375
2.6111572265625
2.4758056640625
2.4282714843749997
2.2582763671875
2.0302734375
1.8135498046874998
1.7410400390624998
1.662890625
1.593603515625
3.0309082031249996
3.0333251953125
3.0309082031249996
3.0325195312499997
2.784375
2.4202148437499997
1.353515625
0.026586914062499998
0.024169921875
0.02900390625
0.0281982421875
0.0298095703125
0.033837890625
0.22316894531249998
0.27231445312499997
0.7001220703125
0.9804931640625
1.667724609375
1.4719482421874999
1.622607421875
1.6532226562499999
0.026586914062499998
0.026586914062499998
0.02578125
0.02578125
0.51884765625
0.5115966796875
1.529150390625
3.0309082031249996
3.034130859375
3.034130859375
2.9076416015624997
2.81015625
2.6578857421874997
2.6208251953125
2.5064208984375
2.4282714843749997
2.060888671875
1.4638916015624999
1.6685302734374998
1.62744140625
1.5992431640625
1.5557373046874998
3.0317138671875
3.029296875
3.034130859375
3.0309082031249996
2.9930419921875
1.6306640625
0.026586914062499998
0.027392578124999997
0.02578125
0.02578125
0.026586914062499998
0.07412109374999999
0.22236328125
0.3681884765625
0.49467773437499996
0.833056640625
1.5517089843749998
1.3212890625
1.4864501953125
1.5686279296874999
1.55009765625
0.023364257812499997
0.027392578124999997
0.0910400390625
0.143408203125
0.825
1.43408203125
3.0317138671875
3.0317138671875
3.034130859375
3.0309082031249996
2.9140869140624996
2.8093505859374996
2.745703125
2.6901123046874997
2.3549560546875
2.4258544921875
2.00771484375
1.6395263671875
1.7176757812499999
1.6508056640625
1.5444580078124999
3.0325195312499997
3.034130859375
3.0333251953125
3.0389648437499996
2.96484375
2.3162841796875
0.024169921875
0.027392578124999997
0.0249755859375
0.027392578124999997
0.0298095703125
0.08942871093749999
0.030615234374999998
0.314208984375
0.5406005859374999
0.6872314453124999
1.095703125
1.5251220703125
1.4034667968749999
1.5082031249999999
1.5484863281249999
0.02578125
0.026586914062499998
0.0249755859375
0.02900390625
0.849169921875
1.0836181640625
2.321923828125
3.027685546875
3.0357421875
3.0284912109374997
2.95517578125
2.8174072265624996
2.8254638671874996
2.5950439453125
2.1301757812499997
2.333203125
2.1785156249999997
1.5637939453124998
1.8280517578125
1.786962890625
1.6653076171874999
3.0325195312499997
3.0309082031249996
3.029296875
3.0309082031249996
2.763427734375
2.2937255859375
0.6243896484375
0.026586914062499998
0.023364257812499997
0.0217529296875
0.022558593749999998
0.02578125
0.0249755859375
0.169189453125
0.2360595703125
0.6147216796875
0.8709228515624999
1.6218017578125
1.3575439453125
1.5106201171875
1.5573486328125
0.023364257812499997
0.02900390625
0.024169921875
0.064453125
0.2956787109375
0.688037109375
2.3646240234375
3.0309082031249996
3.0357421875
3.0309082031249996
2.9825683593749996
2.824658203125
2.8093505859374996
2.72314453125
2.769873046875
2.5974609374999997
2.273583984375
2.27197265625
1.77568359375
1.7861572265624999
1.6612792968749999
1.5976318359375
3.0309082031249996
3.0317138671875
3.0309082031249996
3.027685546875
2.4049072265625
1.4671142578124998
0.026586914062499998
0.0249755859375
0.0281982421875
0.024169921875
0.02578125
0.02578125
0.14421386718749998
0.41411132812499996
0.5551025390625
0.9635742187499999
1.0691162109374999
1.3559326171875
1.4687255859375
1.4711425781249998
1.4703369140625
0.02578125
0.0217529296875
0.02578125
0.21672363281249998
0.427001953125
1.43408203125
3.029296875
3.0325195312499997
3.029296875
3.029296875
3.021240234375
2.80048828125
2.8754150390624997
2.7005859374999996
2.570068359375
2.4049072265625
2.0633056640625
2.08828125
1.8361083984375
1.7684326171875
1.6822265625
3.0284912109374997
3.0357421875
3.0317138671875
3.029296875
3.0325195312499997
2.29453125
0.023364257812499997
0.02578125
0.027392578124999997
0.02578125
0.024169921875
0.026586914062499998
0.022558593749999998
0.40605468749999996
0.42861328125
0.6968994140625
1.0981201171875
1.3502929687499998
1.3744628906249998
1.4598632812499999
1.482421875
0.0249755859375
0.0249755859375
0.0249755859375
0.0966796875
0.5921630859375
0.9603515625
3.037353515625
3.0333251953125
3.037353515625
3.0325195312499997
2.9334228515625
2.8093505859374996
2.8399658203125
2.6675537109375
2.5458984375
2.3597900390624997
2.199462890625
2.1076171875
1.8739746093749998
1.76279296875
1.6475830078125
3.0357421875
3.0333251953125
3.0309082031249996
3.0301025390625
2.582958984375
2.2421630859375
0.43505859375
0.020947265625
0.0281982421875
0.0249755859375
0.0217529296875
0.0281982421875
0.0249755859375
0.3391845703125
0.7065673828125
0.6566162109375
1.0062744140625
1.327734375
1.3317626953125
1.4429443359374998
1.5025634765625
0.02578125
0.027392578124999997
0.0249755859375
0.022558593749999998
0.39638671875
1.0030517578125
2.4758056640625
3.034130859375
3.0301025390625
3.0309082031249996
3.0123779296874997
2.889111328125
2.9334228515625
2.6296874999999997
3.0365478515624997
2.6594970703125
2.20751953125
2.5241455078125
1.819189453125
1.6612792968749999
1.6040771484374998
1.5782958984375
3.0333251953125
3.0284912109374997
3.0357421875
2.9761230468749997
2.2389404296874997
1.3220947265624998
0.026586914062499998
0.02578125
0.02578125
0.017724609375
0.022558593749999998
0.026586914062499998
0.2183349609375
0.43425292968749996
0.7476562499999999
0.8958984375
0.5220703125
1.198828125
1.3140380859374998
1.3382080078124998
1.31162109375
0.0281982421875
0.022558593749999998
0.02578125
0.27392578125
0.7371826171875
1.6935058593749999
3.0309082031249996
3.0309082031249996
3.034130859375
3.0333251953125
2.9068359375
2.8133789062499996
2.8125732421875
2.7585937499999997
2.6192138671875
2.3968505859375
2.0197998046875
1.84013671875
1.79501953125
1.687060546875
1.5960205078124998
3.0333251953125
3.034130859375
3.0317138671875
3.0156005859375
3.0317138671875
1.9698486328125
0.027392578124999997
0.027392578124999997
0.026586914062499998
0.02578125
0.02578125
0.0298095703125
0.026586914062499998
0.34482421874999997
0.48581542968749997
0.6437255859375
1.036083984375
1.393798828125
1.3986328124999998
1.4848388671875
1.44052734375
0.0249755859375
0.0281982421875
0.02578125
0.20625
0.26103515625
0.894287109375
3.0268798828124996
3.034130859375
3.029296875
3.0333251953125
2.947119140625
2.8633300781249997
2.8472167968749997
2.5966552734375
2.731201171875
2.3259521484375
2.023828125
2.2147705078124997
1.7845458984375
1.770849609375
1.7072021484375
3.0317138671875
3.0309082031249996
3.0317138671875
3.0317138671875
2.771484375
2.2510253906249997
0.02900390625
0.0281982421875
0.02578125
0.02900390625
0.0249755859375
0.023364257812499997
0.026586914062499998
0.40605468749999996
0.6791748046874999
0.6815917968749999
1.0449462890624999
0.97001953125
1.3269287109374999
1.4526123046875
1.46630859375
0.0281982421875
0.02578125
0.0298095703125
0.026586914062499998
0.620361328125
1.0892578124999999
2.86494140625
3.0333251953125
3.0317138671875
3.0317138671875
3.0043212890624997
2.88427734375
2.969677734375
2.7585937499999997
2.848828125
2.591015625
2.2631103515624997
2.164013671875
1.915869140625
1.7281494140625
1.6588623046875
3.0325195312499997
3.0309082031249996
3.0357421875
3.0333251953125
2.6216308593749997
2.373486328125
1.11181640625
0.02578125
0.026586914062499998
0.023364257812499997
0.0217529296875
0.022558593749999998
0.02578125
0.2650634765625
0.1651611328125
0.78310546875
0.9385986328125
0.8580322265625
1.2826171874999999
1.3736572265625
1.4026611328124998
0.1200439453125
0.026586914062499998
0.02578125
0.023364257812499997
0.48581542968749997
1.077978515625
1.877197265625
3.0301025390625
3.0309082031249996
3.0325195312499997
3.0317138671875
2.8552734374999997
2.795654296875
2.795654296875
3.0091552734375
2.5797363281249996
2.244580078125
1.79501953125
1.9384277343749998
1.8224121093749999
1.735400390625
2.0600830078125
3.0317138671875
3.0309082031249996
3.0349365234374996
2.9737060546875
2.8697753906249996
1.6403320312499998
0.02578125
0.026586914062499998
0.026586914062499998
0.0298095703125
0.027392578124999997
0.024169921875
0.02578125
0.3391845703125
0.5124023437499999
0.708984375
0.554296875
1.252001953125
1.409912109375
1.5355957031249998
1.052197265625
0.023364257812499997
0.024169921875
0.024169921875
0.2344482421875
0.15146484375
1.05380859375
3.0325195312499997
3.0333251953125
3.0309082031249996
3.0349365234374996
3.0010986328125
2.8794433593749997
2.8560791015625
2.7158935546875
2.7336181640625
2.3887939453125
1.973876953125
2.0657226562499997
1.84013671875
1.72734375
1.5895751953125
3.0301025390625
3.029296875
3.0268798828124996
3.0317138671875
2.872998046875
1.95615234375
0.02578125
0.0281982421875
0.02578125
0.0217529296875
0.022558593749999998
0.026586914062499998
0.06606445312499999
0.24814453125
0.35368652343749996
0.7863281249999999
1.069921875
1.0143310546875
1.3285400390625
1.4767822265625
1.46953125
0.02578125
0.024169921875
0.0249755859375
0.022558593749999998
0.760546875
1.0820068359375
3.034130859375
3.02607421875
3.027685546875
3.0284912109374997
3.029296875
2.8576904296874996
2.9390625
2.8641357421875
2.373486328125
2.5797363281249996
2.2228271484374997
1.667724609375
1.85302734375
1.7684326171875
1.6556396484375
3.0325195312499997
3.0325195312499997
3.0325195312499997
3.0325195312499997
2.7658447265625
2.410546875
0.26103515625
0.022558593749999998
0.022558593749999998
0.0249755859375
0.030615234374999998
0.02578125
0.0249755859375
0.198193359375
0.4278076171875
0.5502685546875
0.91845703125
1.397021484375
1.2906738281249999
1.3978271484375
1.45341796875
0.0217529296875
0.02900390625
0.02578125
0.024169921875
0.7065673828125
1.0634765625
2.135009765625
3.0309082031249996
3.0333251953125
3.0317138671875
2.9664550781249996
2.8874999999999997
2.8391601562499997
2.6562744140624996
2.4766113281249997
2.5885986328125
2.328369140625
1.780517578125
2.012548828125
1.9352050781249999
1.7692382812499998
3.0301025390625
3.0421875
3.0333251953125
3.0325195312499997
2.876220703125
2.59423828125
0.9257080078125
0.02578125
0.027392578124999997
0.02578125
0.023364257812499997
0.026586914062499998
0.0322265625
0.2344482421875
0.050756835937499994
0.48984374999999997
0.6872314453124999
1.219775390625
1.24072265625
1.3929931640625
1.4767822265625
0.027392578124999997
0.027392578124999997
0.022558593749999998
0.024169921875
0.2570068359375
0.44150390624999997
1.9505126953124998
3.0309082031249996
3.0317138671875
3.0381591796875
3.0317138671875
2.9583984374999996
2.79404296875
2.7392578125
2.771484375
2.695751953125
2.4032958984375
1.8296630859374998
1.87236328125
1.8304687499999999
1.7281494140625
1.6201904296874998
3.0357421875
3.0309082031249996
3.0309082031249996
3.034130859375
2.7779296875
1.6733642578124999
0.0281982421875
0.0281982421875
0.026586914062499998
0.0322265625
0.0281982421875
0.023364257812499997
0.026586914062499998
0.193359375
0.33193359375
0.813720703125
1.448583984375
1.1738525390624999
1.2640869140625
1.3494873046875
1.3921875
0.026586914062499998
0.026586914062499998
0.026586914062499998
0.02578125
0.207861328125
1.26328125
3.0317138671875
3.0309082031249996
3.0309082031249996
3.0349365234374996
3.0284912109374997
2.9044189453125
2.96484375
2.9841796874999997
2.7730957031249996
2.5732910156249997
2.2163818359375
1.9601806640625
1.8925048828125
1.7748779296875
1.6886718749999998
3.0301025390625
3.0309082031249996
3.0349365234374996
3.0325195312499997
3.0333251953125
2.4363281249999997
0.02578125
0.02578125
0.023364257812499997
0.019335937499999997
0.023364257812499997
0.02578125
0.02578125
0.23928222656249998
0.2263916015625
0.49306640625
0.9015380859375
1.0417236328125
1.2479736328125
1.3720458984375
1.3817138671875
0.02578125
0.026586914062499998
0.0249755859375
0.0298095703125
0.631640625
0.889453125
3.0252685546875
3.0309082031249996
3.0325195312499997
3.0301025390625
2.9318115234374997
2.8617187499999996
2.9592041015625
2.85849609375
2.36220703125
2.370263671875
2.18173828125
1.8167724609375
1.9650146484375
1.8586669921874999
1.706396484375
3.0268798828124996
3.0284912109374997
3.0357421875
3.0309082031249996
2.682861328125
2.3436767578124997
0.6268066406249999
0.0249755859375
0.0249755859375
0.026586914062499998
0.0281982421875
0.02578125
0.0249755859375
0.2118896484375
0.249755859375
0.5067626953125
0.897509765625
1.4840332031249999
1.26328125
1.3865478515624998
1.40185546875
0.0314208984375
0.024169921875
0.026586914062499998
0.02578125
0.2860107421875
0.9990234375
2.2502197265625
3.0309082031249996
3.0317138671875
3.0301025390625
3.0309082031249996
2.940673828125
2.9358398437499997
2.8536621093749996
3.021240234375
2.6441894531249996
2.325146484375
2.5112548828124996
1.8651123046875
1.812744140625
1.7426513671875
1.6814208984374999
3.029296875
3.0317138671875
3.0309082031249996
2.8206298828125
2.373486328125
1.4920898437499999
0.0249755859375
0.026586914062499998
0.027392578124999997
0.0249755859375
0.023364257812499997
0.026586914062499998
0.08620605468749999
0.32548828124999996
0.5631591796875
0.8000244140624999
0.7661865234374999
1.1480712890625
1.3092041015625
1.368017578125
1.3833251953124999
0.0281982421875
0.0201416015625
0.022558593749999998
0.3101806640625
0.43747558593749997
1.47275390625
3.029296875
3.0325195312499997
3.0309082031249996
3.0317138671875
2.95517578125
2.900390625
2.89072265625
2.8995849609374997
2.731201171875
2.5676513671874996
2.2067138671874997
1.864306640625
1.899755859375
1.79501953125
1.667724609375
3.0309082031249996
3.0325195312499997
3.0252685546875
3.0317138671875
3.029296875
2.1873779296875
0.024169921875
0.020947265625
0.023364257812499997
0.026586914062499998
0.0249755859375
0.0249755859375
0.0249755859375
0.28359375
0.42619628906249996
0.6405029296875
1.3752685546874999
1.3543212890624998
1.3390136718749999
1.4091064453125
1.4058837890625
0.026586914062499998
0.0217529296875
0.026586914062499998
0.0281982421875
0.399609375
0.8870361328124999
3.0309082031249996
3.0317138671875
3.034130859375
3.0317138671875
2.9737060546875
2.860107421875
2.8528564453125
2.6441894531249996
2.6868896484375
2.4234375
2.17529296875
2.1865722656249997
1.9545410156249998
1.8667236328124999
1.8328857421875
3.0325195312499997
3.0325195312499997
3.0333251953125
3.0325195312499997
2.5902099609375
2.34931640625
0.378662109375
0.026586914062499998
0.0249755859375
0.02578125
0.024169921875
0.024169921875
0.0249755859375
0.4552001953125
0.700927734375
0.555908203125
0.9418212890625
1.1939941406249999
1.2818115234374998
1.44052734375
1.409912109375
0.027392578124999997
0.0249755859375
0.02578125
0.027392578124999997
0.372216796875
0.8241943359374999
2.4741943359375
3.0317138671875
3.0325195312499997
3.0357421875
3.029296875
2.905224609375
2.9608154296875
2.6538574218749997
3.0309082031249996
2.6055175781249997
2.3211181640625
2.6143798828125
1.9553466796874999
1.835302734375
1.7507080078125
3.0301025390625
3.0325195312499997
3.0284912109374997
3.029296875
2.6538574218749997
2.292919921875
1.2777832031249998
0.02900390625
0.02578125
0.02578125
0.027392578124999997
0.027392578124999997
0.0249755859375
0.1796630859375
0.4310302734375
0.708984375
0.84111328125
0.47373046874999997
1.2189697265625
1.384130859375
1.41796875
0.02578125
0.022558593749999998
0.026586914062499998
0.022558593749999998
0.3069580078125
0.6332519531249999
1.7345947265625
3.0325195312499997
3.0301025390625
3.0349365234374996
3.029296875
2.985791015625
2.9390625
2.860107421875
3.0301025390625
2.753759765625
2.5289794921874997
2.650634765625
1.9787109374999998
1.9013671875
1.7249267578124998
1.6403320312499998
3.034130859375
3.0325195312499997
3.0301025390625
2.969677734375
3.0309082031249996
1.34384765625
0.026586914062499998
0.0298095703125
0.0281982421875
0.0281982421875
0.0217529296875
0.02578125
0.033032226562499996
0.28681640625
0.41733398437499997
0.57041015625
0.6211669921874999
1.26005859375
1.22138671875
1.335791015625
1.3349853515624999
0.022558593749999998
0.023364257812499997
0.02900390625
0.0580078125
0.20705566406249998
1.55009765625
3.0301025390625
3.0317138671875
3.0309082031249996
3.034130859375
2.9865966796874996
2.91328125
2.874609375
2.7263671874999997
2.83271484375
2.32998046875
2.1744873046874997
2.3404541015625
1.9706542968749998
1.8715576171875
1.751513671875
3.027685546875
3.0325195312499997
3.0325195312499997
3.0325195312499997
3.0325195312499997
2.1632080078125
0.024169921875
0.0217529296875
0.030615234374999998
0.0249755859375
0.023364257812499997
0.02578125
0.020947265625
0.30454101562499997
0.5325439453124999
0.6018310546875
0.9531005859374999
0.8531982421875
1.2528076171875
1.3897705078125
1.380908203125
0.027392578124999997
0.0249755859375
0.0314208984375
0.0217529296875
0.2384765625
0.8580322265625
2.705419921875
3.0309082031249996
3.0357421875
3.0357421875
3.0244628906249997
2.874609375
3.0139892578125
2.7908203124999997
2.9672607421875
2.7835693359375
2.3630126953125
2.3050048828125
1.8554443359375
1.7958251953125
1.69833984375
3.0309082031249996
3.0325195312499997
3.0309082031249996
3.034130859375
2.6611083984375
2.3783203125
0.0281982421875
0.0298095703125
0.0249755859375
0.02578125
0.026586914062499998
0.027392578124999997
0.024169921875
0.1409912109375
0.613916015625
0.726708984375
0.8290283203125
0.95390625
1.2101074218749999
1.3212890625
1.400244140625
0.026586914062499998
0.0298095703125
0.0249755859375
0.024169921875
0.46245117187499996
1.0078857421875
2.518505859375
3.0325195312499997
3.0317138671875
3.0325195312499997
3.0333251953125
2.9326171875
2.8673583984374997
2.6522460937499996
3.02607421875
2.6433837890625
2.2623046875
2.189794921875
2.0689453125
1.8908935546874999
1.7313720703125
2.2969482421875
3.0317138671875
3.027685546875
3.027685546875
2.9994873046875
2.3178955078125
1.19560546875
0.0249755859375
0.02578125
0.027392578124999997
0.03544921875
0.026586914062499998
0.030615234374999998
0.149853515625
0.26103515625
0.4552001953125
0.8765624999999999
0.588134765625
1.1690185546875
1.3784912109374998
1.4308593749999998
0.7097900390624999
0.02900390625
0.026586914062499998
0.0249755859375
0.29326171875
0.8805908203124999
1.72734375
3.0325195312499997
3.034130859375
3.0325195312499997
3.0325195312499997
2.963232421875
2.8866943359375
2.9189208984375
2.8447998046875
2.7328124999999996
2.392822265625
2.0149658203125
2.144677734375
1.957763671875
1.8183837890624999
1.6604736328124998
3.034130859375
3.0309082031249996
3.0325195312499997
3.0284912109374997
3.029296875
2.0052978515624997
0.026586914062499998
0.022558593749999998
0.024169921875
0.02578125
0.027392578124999997
0.02578125
0.0281982421875
0.18449707031249998
0.4954833984375
0.768603515625
0.9982177734375
1.1126220703125
1.2125244140625
1.33740234375
1.3656005859375
0.033032226562499996
0.02578125
0.02578125
0.1474365234375
0.0958740234375
0.945849609375
3.0333251953125
3.0309082031249996
3.0301025390625
3.0325195312499997
3.0284912109374997
2.940673828125
3.0027099609374996
2.8754150390624997
2.9463134765624996
2.7505371093749997
2.3267578125
2.3033935546874997
1.9327880859375
1.869140625
1.706396484375
3.0325195312499997
3.0284912109374997
3.0333251953125
3.029296875
2.9140869140624996
2.54267578125
0.026586914062499998
0.026586914062499998
0.0249755859375
0.027392578124999997
0.026586914062499998
0.02578125
0.023364257812499997
0.2384765625
0.34079589843749997
0.47373046874999997
0.8765624999999999
0.8048583984375
1.2350830078125
1.2528076171875
1.340625
0.023364257812499997
0.0201416015625
0.027392578124999997
0.02578125
0.6453369140624999
0.958740234375
3.0317138671875
3.0301025390625
3.0317138671875
3.0349365234374996
3.0325195312499997
2.98740234375
3.0325195312499997
2.96484375
2.6627197265625
2.6659423828124997
2.321923828125
1.84013671875
2.0858642578124997
1.8586669921874999
1.748291015625
3.0284912109374997
3.0325195312499997
3.0301025390625
3.027685546875
2.9390625
2.399267578125
0.968408203125
0.026586914062499998
0.024169921875
0.02578125
0.02578125
0.0249755859375
0.02578125
0.15227050781249998
0.022558593749999998
0.49306640625
0.8209716796875
1.0546142578125
1.068310546875
1.2737548828124998
1.335791015625
0.0314208984375
0.0322265625
0.0249755859375
0.023364257812499997
0.28842773437499997
0.8604492187499999
1.925537109375
3.029296875
3.0365478515624997
3.0309082031249996
3.034130859375
3.0075439453125
3.0002929687499997
2.931005859375
2.9076416015624997
2.745703125
2.4387451171875
1.8973388671875
2.11083984375
1.9666259765624998
1.8248291015625
2.9624267578124996
3.0309082031249996
3.0325195312499997
3.0309082031249996
3.0301025390625
2.900390625
1.796630859375
0.02578125
0.024169921875
0.0281982421875
0.027392578124999997
0.023364257812499997
0.02578125
0.02578125
0.107958984375
0.3343505859375
0.668701171875
1.2447509765625
0.928125
1.1206787109375
1.2262207031249999
0.32871093749999997
0.023364257812499997
0.027392578124999997
0.02578125
0.2747314453125
0.10634765624999999
1.1126220703125
3.0309082031249996
3.0325195312499997
3.027685546875
3.0317138671875
3.034130859375
2.9455078125
3.0268798828124996
2.9519531249999997
2.8641357421875
2.721533203125
1.9585693359374998
2.07861328125
1.972265625
1.8256347656249998
1.7096191406249999
3.0301025390625
3.0325195312499997
3.0309082031249996
3.0309082031249996
3.0301025390625
1.9070068359374999
0.022558593749999998
0.02578125
0.027392578124999997
0.02900390625
0.022558593749999998
0.0249755859375
0.027392578124999997
0.07412109374999999
0.12165527343749999
0.37302246093749997
1.0014404296875
0.9369873046874999
1.17626953125
1.2769775390625
1.3067871093749999
0.0281982421875
0.0249755859375
0.0298095703125
0.027392578124999997
0.517236328125
0.7879394531249999
3.0325195312499997
3.0309082031249996
3.0317138671875
3.0325195312499997
3.0349365234374996
2.9664550781249996
3.0301025390625
3.0123779296874997
2.6111572265625
2.6200195312499996
2.383154296875
1.9231201171874999
2.0214111328124997
1.9392333984374999
1.8240234375
3.0325195312499997
3.0325195312499997
3.0301025390625
3.0333251953125
2.969677734375
2.4685546874999997
0.75732421875
0.02578125
0.0249755859375
0.026586914062499998
0.027392578124999997
0.0298095703125
0.02900390625
0.124072265625
0.08217773437499999
0.47775878906249997
0.7694091796875
1.3140380859374998
1.1464599609375
1.2270263671875
1.27939453125
0.0249755859375
0.024169921875
0.0249755859375
0.02578125
0.5446289062499999
0.9160400390625
2.2341064453125
3.0309082031249996
3.0325195312499997
3.027685546875
3.0333251953125
2.969677734375
3.011572265625
2.9447021484375
2.6901123046874997
2.7432861328125
2.513671875
1.85302734375
2.1140624999999997
1.972265625
1.851416015625
3.0325195312499997
3.0325195312499997
3.0349365234374996
3.0325195312499997
2.96162109375
2.534619140625
0.6429199218749999
0.02900390625
0.02578125
0.023364257812499997
0.02578125
0.017724609375
0.0249755859375
0.16435546874999998
0.02578125
0.501123046875
0.6807861328125
1.1674072265625
1.0272216796875
1.1625732421875
1.2568359375
0.026586914062499998
0.027392578124999997
0.02578125
0.02900390625
0.2900390625
0.3359619140625
2.018994140625
3.0309082031249996
3.0309082031249996
3.0325195312499997
3.0325195312499997
3.0301025390625
3.0204345703124997
2.972900390625
3.0043212890624997
2.840771484375
2.462109375
2.2067138671874997
1.977099609375
2.015771484375
1.8304687499999999
1.7595703125
3.0309082031249996
3.0357421875
3.0301025390625
3.034130859375
2.66513671875
1.5654052734375
0.024169921875
0.027392578124999997
0.02578125
0.024169921875
0.018530273437499998
0.027392578124999997
0.0249755859375
0.15468749999999998
0.25620117187499997
0.55107421875
1.3108154296874999
1.184326171875
1.2705322265624999
1.3672119140624999
1.3446533203125
0.02900390625
0.02578125
0.026586914062499998
0.0281982421875
0.23203125
1.1980224609374999
3.0381591796875
3.027685546875
3.0365478515624997
3.0317138671875
3.0357421875
2.931005859375
2.96162109375
2.8915283203124997
2.715087890625
2.421826171875
2.273583984375
1.98837890625
1.9650146484375
1.8465820312499999
1.732177734375
3.0325195312499997
3.0325195312499997
3.0309082031249996
3.0301025390625
3.0325195312499997
2.3952392578125
0.0249755859375
0.0249755859375
0.026586914062499998
0.022558593749999998
0.02578125
0.030615234374999998
0.026586914062499998
0.40202636718749996
0.1998046875
0.45842285156249996
0.7951904296875
1.0256103515625
1.2221923828124999
1.3744628906249998
1.429248046875
0.0249755859375
0.02578125
0.0281982421875
0.0249755859375
0.5728271484374999
0.8677001953125
3.0317138671875
3.0325195312499997
3.0301025390625
3.0357421875
3.029296875
2.9261718749999996
3.0067382812499996
2.9608154296875
2.5233398437499996
2.6691650390625
2.215576171875
1.8377197265624998
1.9400390625
1.8417480468749998
1.71123046875
3.0309082031249996
3.027685546875
3.0317138671875
3.0317138671875
2.6691650390625
2.4830566406249996
0.02578125
0.026586914062499998
0.024169921875
0.02578125
0.026586914062499998
0.026586914062499998
0.023364257812499997
0.21511230468749998
0.346435546875
0.6260009765625
0.862060546875
1.3261230468749998
1.1545166015625
1.2963134765625
1.335791015625
0.0249755859375
0.027392578124999997
0.0281982421875
0.02578125
0.2731201171875
1.036083984375
2.321923828125
3.0309082031249996
3.0317138671875
3.0349365234374996
3.0301025390625
2.9060302734374996
2.8802490234375
2.8512451171874997
3.0147949218749996
2.6304931640625
2.36865234375
2.6377441406249997
1.9658203125
1.8747802734374999
1.8014648437499998
1.7152587890625
3.0317138671875
3.0325195312499997
3.0309082031249996
2.8254638671874996
2.4121582031249997
1.432470703125
0.02578125
0.0249755859375
0.022558593749999998
0.0249755859375
0.02578125
0.024169921875
0.02900390625
0.29970703125
0.4600341796875
0.623583984375
0.8314453125
1.1867431640625
1.3333740234375
1.41796875
1.40185546875
0.026586914062499998
0.022558593749999998
0.0249755859375
0.32468261718749997
0.575244140625
1.5492919921875
3.0365478515624997
3.029296875
3.0309082031249996
3.0333251953125
2.9817626953125
2.876220703125
2.8874999999999997
2.7730957031249996
2.62646484375
2.36865234375
2.2888916015625
1.880419921875
1.883642578125
1.7313720703125
1.67578125
3.0309082031249996
3.0333251953125
3.0349365234374996
3.0301025390625
3.0309082031249996
1.5887695312499999
0.026586914062499998
0.026586914062499998
0.02578125
0.0249755859375
0.02578125
0.02578125
0.06767578125
0.201416015625
0.3544921875
0.5164306640624999
1.1375976562499999
1.20849609375
1.219775390625
1.3672119140624999
1.3704345703124998
0.024169921875
0.026586914062499998
0.02578125
0.033032226562499996
0.26022949218749997
1.4469726562499998
3.0333251953125
3.029296875
3.0325195312499997
3.0309082031249996
3.0317138671875
2.9600097656249997
3.0317138671875
2.92939453125
2.9124755859375
2.6224365234375
2.2212158203125
2.23330078125
1.9400390625
1.7926025390625
1.7072021484375
3.0301025390625
3.027685546875
3.0333251953125
3.0365478515624997
3.0317138671875
2.341259765625
0.0249755859375
0.026586914062499998
0.02578125
0.022558593749999998
0.02578125
0.0249755859375
0.02578125
0.40283203125
0.6711181640624999
0.652587890625
0.8749511718749999
0.97001953125
1.1609619140625
1.3067871093749999
1.3237060546875
0.02578125
0.030615234374999998
0.02578125
0.0217529296875
0.420556640625
0.9152343749999999
2.405712890625
3.0333251953125
3.0333251953125
3.0349365234374996
3.034130859375
2.9044189453125
3.0325195312499997
2.7577880859375
3.0325195312499997
2.73603515625
2.38154296875
2.6699707031249997
1.9585693359374998
1.8707519531249999
1.7764892578125
3.0301025390625
3.0325195312499997
3.0309082031249996
3.0317138671875
2.6603027343749996
2.305810546875
1.1657958984374999
0.024169921875
0.0298095703125
0.027392578124999997
0.02578125
0.02578125
0.0281982421875
0.143408203125
0.5583251953125
0.4954833984375
0.8024414062499999
0.47050781249999996
1.2399169921875
1.3414306640625
1.41796875
0.026586914062499998
0.0249755859375
0.0249755859375
0.027392578124999997
0.33515625
0.8991210937499999
1.6951171875
3.0325195312499997
3.029296875
3.0309082031249996
3.034130859375
2.9664550781249996
2.9237548828124997
2.9261718749999996
3.0317138671875
2.7577880859375
2.3694580078125
2.6876953125
1.9924072265625
1.88525390625
1.7233154296875
1.6121337890624998
3.034130859375
3.0309082031249996
3.0309082031249996
3.0317138671875
3.0309082031249996
1.4228027343749998
0.0249755859375
0.020947265625
0.0249755859375
0.0249755859375
0.0249755859375
0.020947265625
0.15871582031249998
0.3746337890625
0.4600341796875
0.7677978515624999
0.443115234375
1.147265625
1.2044677734375
1.3422363281249998
1.2938964843749998
0.02578125
0.02900390625
0.023364257812499997
0.18691406249999998
0.18288574218749998
1.7136474609374999
3.0301025390625
3.0309082031249996
3.0301025390625
3.0333251953125
3.0325195312499997
2.9519531249999997
3.0284912109374997
2.91328125
2.9664550781249996
2.5894042968749997
2.225244140625
2.3243408203125
1.82724609375
1.7523193359375
1.6556396484375
3.0309082031249996
3.0309082031249996
3.0309082031249996
3.034130859375
3.0349365234374996
2.1462890624999997
0.0249755859375
0.024169921875
0.0217529296875
0.0217529296875
0.0281982421875
0.0281982421875
0.026586914062499998
0.1861083984375
0.36093749999999997
0.631640625
0.929736328125
0.8145263671874999
1.184326171875
1.3494873046875
1.361572265625
0.02578125
0.02578125
0.023364257812499997
0.0249755859375
0.16838378906249998
0.897509765625
3.0317138671875
3.02607421875
3.0349365234374996
3.034130859375
3.0325195312499997
2.9430908203125
3.0244628906249997
2.9197265624999997
2.9358398437499997
2.5313964843749996
2.2421630859375
2.341259765625
1.899755859375
1.8747802734374999
1.7394287109375
3.0309082031249996
3.0325195312499997
3.0301025390625
3.0325195312499997
2.642578125
2.29775390625
0.02578125
0.02578125
0.024169921875
0.026586914062499998
0.024169921875
0.02578125
0.030615234374999998
0.2634521484375
0.5615478515625
0.5212646484375
0.9152343749999999
0.95390625
1.340625
1.4493896484375
1.4961181640624999
0.0298095703125
0.026586914062499998
0.0249755859375
0.0249755859375
0.5744384765625
1.1150390625
3.0357421875
3.0333251953125
3.034130859375
3.0317138671875
3.0325195312499997
2.9326171875
2.9455078125
2.7787353515624997
2.9737060546875
2.6917236328125
2.225244140625
1.98515625
2.0334960937499997
1.8312744140625
1.7394287109375
2.9583984374999996
3.0309082031249996
3.0317138671875
3.0325195312499997
2.9253662109375
2.2695556640625
1.0368896484374999
0.027392578124999997
0.022558593749999998
0.026586914062499998
0.0249755859375
0.0249755859375
0.02578125
0.21591796875
0.1506591796875
0.391552734375
0.7951904296875
0.7669921875
1.09248046875
1.3148437499999999
1.3599609375
0.5889404296874999
0.022558593749999998
0.026586914062499998
0.02578125
0.3472412109375
0.9273193359374999
1.9247314453125
3.0325195312499997
3.0325195312499997
3.0317138671875
3.0309082031249996
3.0059326171875
2.96162109375
2.9414794921875
2.8794433593749997
2.7666503906249997
2.4049072265625
1.8054931640624998
1.9730712890625
1.8651123046875
1.7507080078125
1.6201904296874998
3.0309082031249996
3.0317138671875
3.0301025390625
2.8995849609374997
2.8754150390624997
1.683837890625
0.02578125
0.02578125
0.023364257812499997
0.024169921875
0.02578125
0.027392578124999997
0.024169921875
0.34482421874999997
0.45439453124999996
0.6114990234375
1.164990234375
1.1496826171874999
1.3067871093749999
1.3849365234375
1.103759765625
0.027392578124999997
0.024169921875
0.02900390625
0.2513671875
0.20625
1.0578369140625
3.0317138671875
3.0317138671875
3.0317138671875
3.0317138671875
2.995458984375
2.8464111328125
2.9350341796875
2.8069335937499997
2.711865234375
2.3783203125
2.12373046875
2.1922119140625
1.9311767578124999
1.812744140625
1.6483886718749998
3.0333251953125
3.027685546875
3.0349365234374996
3.0325195312499997
2.921337890625
1.998046875
0.026586914062499998
0.0281982421875
0.02578125
0.026586914062499998
0.020947265625
0.023364257812499997
0.023364257812499997
0.1780517578125
0.3021240234375
0.48581542968749997
0.9740478515625
0.91845703125
1.276171875
1.400244140625
1.4574462890625
0.0249755859375
0.02578125
0.02578125
0.027392578124999997
0.7017333984374999
1.0820068359375
3.0333251953125
3.0325195312499997
3.0333251953125
3.0301025390625
3.0268798828124996
2.9583984374999996
3.029296875
3.0027099609374996
2.57490234375
2.7424804687499997
2.2421630859375
1.6636962890625
1.9352050781249999
1.786962890625
1.6685302734374998
3.0309082031249996
3.0301025390625
3.0325195312499997
3.02607421875
2.7932373046874996
2.4000732421874997
0.4036376953125
0.02578125
0.022558593749999998
0.02578125
0.027392578124999997
0.0249755859375
0.027392578124999997
0.1796630859375
0.0443115234375
0.688037109375
0.913623046875
1.3946044921874998
1.2737548828124998
1.3664062499999998
1.413134765625
0.02900390625
0.02578125
0.0249755859375
0.02578125
0.6227783203124999
1.04736328125
2.093115234375
3.0284912109374997
3.029296875
3.0325195312499997
3.027685546875
2.9849853515625
2.9398681640624997
2.9302001953124996
2.76181640625
2.698974609375
2.350927734375
2.0761962890625
2.0173828124999997
1.8570556640625
1.7265380859375
3.0365478515624997
3.0317138671875
3.0325195312499997
3.0333251953125
2.8593017578124997
2.5757080078124996
1.4381103515625
0.023364257812499997
0.026586914062499998
0.0281982421875
0.02578125
0.0281982421875
0.0281982421875
0.0249755859375
0.02578125
0.378662109375
0.5873291015625
1.0610595703124999
1.164990234375
1.2995361328125
1.4518066406249999
0.02578125
0.026586914062499998
0.02578125
0.023364257812499997
0.2811767578125
0.36416015625
1.2777832031249998
3.0309082031249996
3.0317138671875
3.0325195312499997
3.037353515625
3.0284912109374997
2.9302001953124996
2.8633300781249997
2.785986328125
2.6885009765624996
2.4121582031249997
1.8280517578125
1.9086181640625
1.8884765625
1.732177734375
1.6475830078125
3.0333251953125
3.0325195312499997
3.0325195312499997
3.027685546875
3.0325195312499997
1.7378173828124999
0.02578125
0.02578125
0.027392578124999997
0.020947265625
0.026586914062499998
0.027392578124999997
0.0990966796875
0.2586181640625
0.2570068359375
0.6348632812499999
1.3913818359374999
1.12470703125
1.2310546875
1.4195800781249999
1.432470703125
0.0281982421875
0.023364257812499997
0.026586914062499998
0.026586914062499998
0.488232421875
1.21494140625
3.0317138671875
3.0325195312499997
3.0325195312499997
3.034130859375
3.029296875
2.908447265625
2.9519531249999997
2.940673828125
2.615185546875
2.5676513671874996
2.16884765625
1.8240234375
1.8014648437499998
1.7362060546875
1.7015624999999999
3.034130859375
3.029296875
3.0462158203125
3.034130859375
3.0325195312499997
2.40087890625
0.022558593749999998
0.024169921875
0.024169921875
0.023364257812499997
0.023364257812499997
0.026586914062499998
0.026586914062499998
0.22719726562499998
0.2384765625
0.655810546875
0.9313476562499999
1.380908203125
1.2914794921875
1.3817138671875
1.4034667968749999
0.0249755859375
0.0249755859375
0.030615234374999998
0.023364257812499997
0.6678955078125
0.928125
2.24619140625
3.034130859375
3.029296875
3.0381591796875
3.0333251953125
2.9720947265624997
2.977734375
2.7465087890624997
2.4419677734375
2.6047119140625
2.3307861328125
1.6636962890625
1.9432617187499999
1.7974365234374998
1.6765869140624998
3.0301025390625
3.029296875
3.0317138671875
3.029296875
2.6917236328125
2.2365234375
0.5937744140625
0.024169921875
0.0249755859375
0.023364257812499997
0.026586914062499998
0.026586914062499998
0.020947265625
0.23686523437499998
0.230419921875
0.572021484375
0.7242919921875
1.5009521484375
1.3019531249999998
1.4606689453125
1.4711425781249998
0.02578125
0.0249755859375
0.0298095703125
0.0249755859375
0.323876953125
0.7742431640624999
2.2566650390625
3.0309082031249996
3.0268798828124996
3.0284912109374997
3.029296875
2.931005859375
2.8480224609375
2.8174072265624996
2.9527587890625
2.6530517578125
2.2969482421875
2.204296875
1.8457763671874998
1.8554443359375
1.7426513671875
1.662890625
3.0309082031249996
3.0325195312499997
3.0325195312499997
3.0284912109374997
2.441162109375
1.5235107421874998
0.02578125
0.0298095703125
0.026586914062499998
0.02578125
0.026586914062499998
0.024169921875
0.12890625
0.291650390625
0.44230957031249996
0.8499755859375
0.9958007812499999
1.2898681640624998
1.32451171875
1.4300537109375
1.4397216796874999
0.02578125
0.02578125
0.024169921875
0.0958740234375
0.45036621093749996
1.5919921874999998
3.0309082031249996
3.0325195312499997
3.0309082031249996
3.034130859375
3.001904296875
2.9100585937499996
2.8850830078125
2.792431640625
2.7062255859374997
2.550732421875
2.1680419921875
1.84013671875
1.8425537109374999
1.76279296875
1.6564453124999998
3.0325195312499997
3.0317138671875
3.0325195312499997
3.0317138671875
3.0333251953125
2.22041015625
0.0281982421875
0.0249755859375
0.02900390625
0.026586914062499998
0.017724609375
0.0249755859375
0.0249755859375
0.2102783203125
0.33273925781249997
0.7194580078124999
0.8523925781249999
1.2060791015624999
1.2334716796875
1.4010498046875
1.3946044921874998
0.0281982421875
0.02900390625
0.026586914062499998
0.1458251953125
0.4640625
0.936181640625
3.0301025390625
3.0325195312499997
3.0309082031249996
3.0317138671875
3.0010986328125
2.9156982421874997
2.9447021484375
2.7416748046875
2.7972656249999996
2.65869140625
2.2429687499999997
2.2494140625
1.9078125
1.8369140625
1.6725585937499998
3.0325195312499997
3.0317138671875
3.034130859375
3.0333251953125
2.6216308593749997
2.2872802734374997
0.1248779296875
0.026586914062499998
0.0281982421875
0.026586914062499998
0.024169921875
0.0249755859375
0.02578125
0.388330078125
0.6888427734375
0.5986083984375
0.9410156249999999
1.16337890625
1.3043701171875
1.43408203125
1.4655029296875
0.0362548828125
0.027392578124999997
0.02578125
0.0217529296875
0.47775878906249997
0.9329589843749999
3.029296875
3.0333251953125
3.034130859375
3.0325195312499997
3.027685546875
2.9197265624999997
2.956787109375
2.6192138671875
3.0301025390625
2.5934326171874997
2.1889892578125
2.3477050781249997
2.02060546875
1.8046875
1.7055908203124999
1.9295654296875
3.034130859375
3.0333251953125
3.0325195312499997
2.6683593749999996
2.23974609375
1.2705322265624999
0.027392578124999997
0.027392578124999997
0.02578125
0.0249755859375
0.0249755859375
0.026586914062499998
0.2054443359375
0.38188476562499996
0.6493652343749999
0.9232910156249999
0.5744384765625
1.24072265625
1.3140380859374998
1.3446533203125
1.22783203125
0.0322265625
0.026586914062499998
0.022558593749999998
0.38591308593749996
0.75087890625
1.7781005859374999
3.0301025390625
3.0333251953125
3.0309082031249996
3.0325195312499997
2.953564453125
2.8657470703124996
2.8496337890624996
3.0357421875
2.6337158203124997
2.4500244140625
2.035107421875
1.8755859375
1.7571533203124998
1.732177734375
1.5662109375
3.0309082031249996
3.0429931640624996
3.034130859375
3.0123779296874997
3.0309082031249996
2.0085205078125
0.027392578124999997
0.026586914062499998
0.0298095703125
0.022558593749999998
0.027392578124999997
0.02578125
0.024169921875
0.33193359375
0.48178710937499997
0.6566162109375
0.6179443359375
1.29228515625
1.340625
1.42119140625
1.3905761718749998
0.017724609375
0.01611328125
0.0281982421875
0.2553955078125
0.23928222656249998
0.9249023437499999
3.0309082031249996
3.034130859375
3.0317138671875
3.029296875
2.9076416015624997
2.7811523437499996
2.7593994140625
2.63935546875
2.763427734375
2.389599609375
2.07861328125
2.2171875
1.8844482421875
1.7660156249999999
1.6620849609375
3.0325195312499997
3.0349365234374996
3.0309082031249996
3.0325195312499997
2.711865234375
2.0923095703125
0.027392578124999997
0.02578125
0.0249755859375
0.02578125
0.026586914062499998
0.024169921875
0.024169921875
0.29326171875
0.5260986328125
0.6654785156249999
1.026416015625
0.9232910156249999
1.348681640625
1.4630859374999998
1.4550292968749998
0.0249755859375
0.02578125
0.02578125
0.02900390625
0.65419921875
0.9047607421874999
3.0309082031249996
3.0317138671875
3.0325195312499997
3.0284912109374997
3.0164062499999997
2.900390625
3.0107666015624996
2.8311035156249997
2.7328124999999996
2.6498291015624997
2.18173828125
1.73056640625
1.843359375
1.76279296875
1.6314697265625
3.0309082031249996
3.0301025390625
3.0309082031249996
3.027685546875
2.6739990234374997
2.3259521484375
0.966796875
0.02578125
0.026586914062499998
0.0281982421875
0.0281982421875
0.027392578124999997
0.024169921875
0.285205078125
0.6533935546874999
0.71220703125
0.8926757812499999
1.1416259765624999
1.2777832031249998
1.3551269531249999
1.409912109375
0.024169921875
0.026586914062499998
0.02578125
0.0249755859375
0.4648681640625
1.0852294921874999
2.0858642578124997
3.0309082031249996
3.029296875
3.0268798828124996
3.0309082031249996
2.908447265625
2.8617187499999996
2.8456054687499996
2.9543701171874996
2.6055175781249997
2.2429687499999997
2.028662109375
1.9666259765624998
1.8264404296874999
1.716064453125
2.6788330078125
3.0333251953125
3.0301025390625
3.0309082031249996
2.882666015625
2.6780273437499997
0.9917724609374999
0.0249755859375
0.02900390625
0.022558593749999998
0.02578125
0.02578125
0.026586914062499998
0.193359375
0.2135009765625
0.4519775390625
0.6767578125
0.8032470703125
1.2455566406249998
1.413134765625
1.5009521484375
0.5438232421875
0.020947265625
0.0314208984375
0.02578125
0.3633544921875
0.27231445312499997
1.848193359375
3.0325195312499997
3.0325195312499997
3.0309082031249996
3.029296875
3.0228515624999996
2.8810546875
2.784375
2.7062255859374997
2.5966552734375
2.231689453125
1.6886718749999998
1.9400390625
1.8506103515624999
1.7700439453124999
1.6862548828125
3.029296875
3.0284912109374997
3.034130859375
3.0317138671875
2.9704833984374996
1.8506103515624999
0.027392578124999997
0.0281982421875
0.024169921875
0.02578125
0.027392578124999997
0.022558593749999998
0.0443115234375
0.2255859375
0.33837890625
0.75732421875
1.2665039062499999
1.1255126953124999
1.4058837890625
1.493701171875
1.4872558593749998
0.024169921875
0.02578125
0.0249755859375
0.0298095703125
0.1248779296875
1.1029541015625
3.0301025390625
3.0301025390625
3.0325195312499997
3.0317138671875
2.9898193359375
2.81982421875
2.8705810546875
