0.0249755859375
0.023364257812499997
0.3021240234375
0.7049560546875
1.98837890625
3.0301025390625
3.0309082031249996
3.029296875
3.0309082031249996
3.0301025390625
3.029296875
2.70380859375
3.0123779296874997
2.784375
2.63935546875
2.969677734375
2.2993652343749997
2.20751953125
2.0576660156249997
3.0325195312499997
3.034130859375
3.02607421875
3.0333251953125
3.0325195312499997
2.5869873046875
1.6701416015625
0.027392578124999997
0.02900390625
0.0281982421875
0.02578125
0.02578125
0.02578125
0.0249755859375
0.1474365234375
0.41733398437499997
0.56396484375
1.0707275390625
0.8926757812499999
1.0062744140625
1.1110107421875
0.0249755859375
0.023364257812499997
0.02578125
0.026586914062499998
0.0249755859375
0.033032226562499996
1.3108154296874999
3.029296875
3.0284912109374997
3.0325195312499997
3.0325195312499997
3.029296875
3.0317138671875
2.92294921875
2.9680664062499997
2.9447021484375
2.7932373046874996
3.0333251953125
2.437939453125
2.3468994140625
2.128564453125
2.0093261718749997
3.0301025390625
3.0317138671875
3.0333251953125
3.0325195312499997
3.0317138671875
1.8216064453124998
0.026586914062499998
0.02578125
0.023364257812499997
0.024169921875
0.024169921875
0.023364257812499997
0.02578125
0.17482910156249998
0.175634765625
0.4552001953125
0.020947265625
0.752490234375
0.8523925781249999
1.03125
0.9144287109375
0.027392578124999997
0.02578125
0.0249755859375
0.0249755859375
0.02578125
1.103759765625
3.0301025390625
3.0325195312499997
3.0309082031249996
3.0317138671875
3.034130859375
3.0309082031249996
3.034130859375
3.0301025390625
2.7650390624999996
2.8206298828125
2.62646484375
2.8166015625
2.3267578125
2.2324951171875
2.1277587890625
3.0357421875
3.0357421875
3.0301025390625
3.0309082031249996
3.0309082031249996
2.43955078125
0.02578125
0.026586914062499998
0.02578125
0.027392578124999997
0.027392578124999997
0.02578125
0.02578125
0.11923828125
0.09345703124999999
0.33354492187499996
0.45439453124999996
0.24492187499999998
0.7806884765625
0.91201171875
0.9732421874999999
0.030615234374999998
0.026586914062499998
0.026586914062499998
0.02578125
0.0249755859375
0.4761474609375
2.038330078125
3.0317138671875
3.0309082031249996
3.0309082031249996
3.0333251953125
3.034130859375
3.0349365234374996
3.0301025390625
2.8375488281249996
2.7908203124999997
2.7255615234375
2.8109619140624997
2.402490234375
2.2389404296874997
2.1325927734375
3.0325195312499997
3.0317138671875
3.029296875
3.034130859375
2.9608154296875
2.4943359375
0.5212646484375
0.02578125
0.0249755859375
0.02578125
0.02900390625
0.023364257812499997
0.024169921875
0.21914062499999998
0.0201416015625
0.2553955078125
0.42216796874999996
0.40283203125
0.8306396484374999
0.9321533203125
1.07958984375
0.0298095703125
0.02900390625
0.02578125
0.026586914062499998
0.022558593749999998
0.5083740234374999
2.0560546875
3.0325195312499997
3.0317138671875
3.0309082031249996
3.0325195312499997
3.0333251953125
3.029296875
3.029296875
3.01318359375
2.8294921874999996
2.7320068359375
2.72314453125
2.470166015625
2.3001708984375
2.1277587890625
3.0309082031249996
3.0325195312499997
3.0284912109374997
3.034130859375
3.0325195312499997
2.43955078125
1.458251953125
0.027392578124999997
0.0281982421875
0.026586914062499998
0.02578125
0.030615234374999998
0.02578125
0.022558593749999998
0.1973876953125
0.2666748046875
0.5712158203125
0.39316406249999997
0.7677978515624999
1.02802734375
1.13115234375
0.026586914062499998
0.0281982421875
0.02578125
0.02578125
0.02900390625
0.46245117187499996
1.4203857421875
3.0317138671875
3.029296875
3.029296875
3.0309082031249996
3.0325195312499997
3.034130859375
3.0325195312499997
2.931005859375
2.8053222656249996
2.6458007812499997
1.9891845703125
2.2429687499999997
2.1970458984375
2.01416015625
1.9343994140624998
3.0317138671875
3.0309082031249996
3.0333251953125
3.0325195312499997
3.0333251953125
1.9827392578124998
0.027392578124999997
0.026586914062499998
0.02900390625
0.026586914062499998
0.0249755859375
0.024169921875
0.0249755859375
0.0958740234375
0.2586181640625
0.4874267578125
1.1464599609375
0.878173828125
1.026416015625
1.171435546875
1.1883544921875
0.026586914062499998
0.026586914062499998
0.0298095703125
0.0249755859375
0.0281982421875
0.95068359375
3.0228515624999996
3.029296875
3.0301025390625
3.034130859375
3.0309082031249996
3.0317138671875
3.0284912109374997
2.9044189453125
2.7158935546875
2.6707763671875
2.50400390625
2.3823486328125
2.1503173828124997
1.9988525390624998
1.82080078125
3.0333251953125
3.0333251953125
3.0309082031249996
3.0333251953125
2.99384765625
2.3912109375
0.026586914062499998
0.0362548828125
0.026586914062499998
0.0249755859375
0.0281982421875
0.02578125
0.02578125
0.1458251953125
0.48017578125
0.565576171875
0.9571289062499999
0.752490234375
1.103759765625
1.20849609375
1.2560302734375
0.0249755859375
0.0298095703125
0.0249755859375
0.026586914062499998
0.578466796875
0.93779296875
2.8472167968749997
3.034130859375
3.0333251953125
3.0333251953125
3.0317138671875
3.027685546875
3.0325195312499997
2.9608154296875
2.99384765625
2.6514404296875
2.3372314453125
1.690283203125
2.0987548828125
1.8860595703124998
1.7764892578125
3.0325195312499997
3.0333251953125
3.0317138671875
3.029296875
2.963232421875
2.3557617187499997
0.9708251953125
0.023364257812499997
0.023364257812499997
0.02900390625
0.02578125
0.019335937499999997
0.026586914062499998
0.1973876953125
0.3150146484375
0.575244140625
0.7355712890624999
1.4219970703125
1.1738525390624999
1.2399169921875
1.327734375
0.024169921875
0.022558593749999998
0.02900390625
0.026586914062499998
0.546240234375
0.9531005859374999
2.0778076171874997
3.0325195312499997
3.0325195312499997
3.0301025390625
3.0357421875
3.0309082031249996
3.0309082031249996
2.8866943359375
2.808544921875
2.5547607421875
2.3396484374999997
2.582958984375
2.0600830078125
1.9021728515624998
1.7466796875
3.027685546875
3.0357421875
3.0325195312499997
3.0357421875
2.931005859375
2.5934326171874997
1.5766845703124999
0.024169921875
0.024169921875
0.026586914062499998
0.0249755859375
0.0217529296875
0.0249755859375
0.0298095703125
0.3923583984375
0.588134765625
0.720263671875
0.84755859375
1.036083984375
1.2536132812499998
1.340625
0.027392578124999997
0.0249755859375
0.027392578124999997
0.022558593749999998
0.33837890625
0.407666015625
1.4155517578124999
3.0309082031249996
3.0317138671875
3.0309082031249996
3.0309082031249996
3.0309082031249996
2.9841796874999997
2.9608154296875
2.7102539062499997
2.7175048828125
2.4580810546875
2.1454833984375
1.9432617187499999
1.9569580078125
1.815966796875
1.6798095703125
3.0309082031249996
3.0317138671875
3.027685546875
3.0333251953125
3.01962890625
1.490478515625
0.024169921875
0.022558593749999998
0.0249755859375
0.024169921875
0.027392578124999997
0.026586914062499998
0.026586914062499998
0.3021240234375
0.42136230468749997
0.8677001953125
1.3527099609375
1.3172607421875
1.3229003906249999
1.4445556640625
1.4719482421874999
0.02578125
0.027392578124999997
0.027392578124999997
0.0201416015625
0.35288085937499997
1.3180664062499998
3.034130859375
3.037353515625
3.0284912109374997
3.034130859375
3.0325195312499997
3.0244628906249997
2.953564453125
2.73603515625
2.43955078125
2.27841796875
2.12373046875
2.0697509765624997
1.8312744140625
1.7531249999999998
1.6346923828125
3.0349365234374996
3.0333251953125
3.029296875
3.0325195312499997
3.02607421875
2.2107421874999997
0.4890380859375
0.0249755859375
0.027392578124999997
0.0281982421875
0.020947265625
0.02900390625
0.02578125
0.46728515625
0.6767578125
0.71865234375
0.9659912109375
1.19560546875
1.3285400390625
1.4574462890625
1.4759765624999999
0.017724609375
0.02900390625
0.02578125
0.02578125
0.5760498046875
1.1408203125
2.4258544921875
3.0309082031249996
3.029296875
3.0333251953125
3.0268798828124996
2.9761230468749997
3.0325195312499997
2.6385498046875
2.463720703125
2.3662353515625
2.32998046875
1.8489990234375
1.8900878906249998
1.8248291015625
1.6894775390624999
3.0301025390625
3.0301025390625
3.0301025390625
3.0333251953125
2.6514404296875
2.17529296875
0.55751953125
0.0249755859375
0.02578125
0.020947265625
0.02900390625
0.0249755859375
0.023364257812499997
0.3988037109375
0.5534912109375
0.710595703125
0.9087890624999999
1.5041748046874999
1.2906738281249999
1.445361328125
1.609716796875
0.0281982421875
0.0249755859375
0.0249755859375
0.0249755859375
0.343212890625
0.7887451171875
2.4322998046874997
3.0268798828124996
3.034130859375
3.0325195312499997
3.0309082031249996
3.01962890625
2.9205322265625
2.6296874999999997
2.876220703125
2.4468017578125
2.1889892578125
2.6321044921874996
1.7893798828124998
1.7474853515625
1.5944091796875
1.4864501953125
3.0309082031249996
3.034130859375
3.029296875
2.985791015625
2.1591796875
1.1931884765625
0.023364257812499997
0.027392578124999997
0.022558593749999998
0.023364257812499997
0.023364257812499997
0.0249755859375
0.22316894531249998
0.5357666015625
0.7541015624999999
1.0207763671874999
0.605859375
1.4244140625
1.4832275390624998
1.5734619140625
1.558154296875
0.02578125
0.0169189453125
0.026586914062499998
0.25620117187499997
0.7677978515624999
1.8361083984375
3.0325195312499997
3.0357421875
3.0309082031249996
3.0349365234374996
2.9825683593749996
2.850439453125
2.8512451171874997
2.5724853515625
2.3726806640625
2.1503173828124997
1.9440673828125
1.8336914062499998
1.7023681640625
1.6250244140624999
1.4953124999999998
3.0325195312499997
3.0301025390625
3.0301025390625
2.91650390625
2.9761230468749997
1.819189453125
0.026586914062499998
0.026586914062499998
0.0298095703125
0.0298095703125
0.027392578124999997
0.0249755859375
0.02578125
0.47050781249999996
0.7968017578125
0.9144287109375
1.0981201171875
1.3156494140625
1.400244140625
1.53076171875
1.5750732421875
0.02578125
0.026586914062499998
0.02578125
0.233642578125
0.44230957031249996
1.1657958984374999
3.029296875
3.0309082031249996
3.0333251953125
3.0325195312499997
2.9841796874999997
2.808544921875
2.850439453125
2.4919189453125
2.5402587890625
2.263916015625
2.0415527343749997
2.07861328125
1.751513671875
1.6379150390625
1.4840332031249999
3.029296875
3.0325195312499997
3.0301025390625
3.0325195312499997
2.5370361328124997
1.9505126953124998
0.0281982421875
0.02578125
0.027392578124999997
0.02578125
0.0249755859375
0.024169921875
0.0201416015625
0.4954833984375
0.7242919921875
0.9249023437499999
1.1561279296875
1.0739501953125
1.432470703125
1.56298828125
1.6081054687499998
0.02578125
0.02578125
0.020947265625
0.0797607421875
0.6646728515625
1.26328125
2.8834716796874997
3.0309082031249996
3.034130859375
3.029296875
3.0357421875
2.9189208984375
2.85849609375
2.5241455078125
2.2357177734375
2.21396484375
2.03994140625
1.6781982421875
1.7523193359375
1.6508056640625
1.5944091796875
3.034130859375
3.0301025390625
3.0317138671875
3.0301025390625
2.518505859375
2.0890869140625
0.8789794921874999
0.019335937499999997
0.02578125
0.023364257812499997
0.022558593749999998
0.02578125
0.0249755859375
0.26103515625
0.31340332031249996
0.97001953125
1.1432373046875
1.3124267578125
1.5057861328125
1.5678222656249998
1.5807128906249999
0.02578125
0.02578125
0.02900390625
0.0281982421875
0.5663818359375
1.1303466796875
2.1213134765625
3.0317138671875
3.02607421875
3.0317138671875
3.0317138671875
2.9092529296875
2.8617187499999996
2.7102539062499997
2.505615234375
2.26875
2.0955322265625
1.9279541015625
1.8264404296874999
1.6806152343749998
1.5517089843749998
2.4427734375
3.0317138671875
3.0301025390625
3.034130859375
2.7755126953125
2.5740966796875
0.9651855468749999
0.026586914062499998
0.02900390625
0.0281982421875
0.027392578124999997
0.02578125
0.027392578124999997
0.223974609375
0.3746337890625
0.7033447265624999
0.958740234375
0.974853515625
1.3019531249999998
1.51787109375
1.5750732421875
0.9740478515625
0.024169921875
0.024169921875
0.022558593749999998
0.3665771484375
0.3424072265625
2.01416015625
3.0333251953125
3.034130859375
3.0317138671875
3.0349365234374996
3.0156005859375
2.9261718749999996
2.769873046875
2.5716796874999996
2.3718749999999997
2.2018798828125
1.7096191406249999
1.8763916015625
1.7635986328125
1.622607421875
1.5106201171875
3.0333251953125
3.0309082031249996
3.0317138671875
3.0317138671875
2.795654296875
1.6604736328124998
0.02578125
0.027392578124999997
0.027392578124999997
0.026586914062499998
0.02900390625
0.022558593749999998
0.02578125
0.3472412109375
0.4793701171875
0.9240966796875
1.3736572265625
1.213330078125
1.4373046875
1.533984375
1.5702392578125
0.02578125
0.022558593749999998
0.02578125
0.02900390625
0.2135009765625
1.1794921875
3.0325195312499997
3.0325195312499997
3.0357421875
3.0325195312499997
3.0325195312499997
2.9414794921875
2.9197265624999997
2.7787353515624997
2.4282714843749997
2.2647216796875
2.128564453125
1.7684326171875
1.7797119140625
1.7039794921875
1.609716796875
3.0309082031249996
3.0309082031249996
3.0301025390625
3.0309082031249996
2.7916259765625
2.1978515625
0.700927734375
0.0281982421875
0.02578125
0.02900390625
0.0217529296875
0.0249755859375
0.0314208984375
0.30615234375
0.515625
0.90556640625
1.0763671875
1.148876953125
1.4228027343749998
1.5186767578125
1.5355957031249998
0.0281982421875
0.0249755859375
0.027392578124999997
0.02578125
0.6638671875
1.013525390625
2.2244384765625
3.0325195312499997
3.0268798828124996
3.0309082031249996
3.0333251953125
2.9438964843749997
2.9970703125
2.8447998046875
2.2913085937499997
2.3646240234375
2.2115478515625
1.7257324218749999
1.85302734375
1.7217041015624999
1.59521484375
3.0284912109374997
3.0357421875
3.034130859375
3.0236572265625
2.7755126953125
2.2236328125
0.7234863281249999
0.026586914062499998
0.0249755859375
0.024169921875
0.030615234374999998
0.026586914062499998
0.0298095703125
0.2360595703125
0.42136230468749997
0.652587890625
0.9418212890625
1.400244140625
1.297119140625
1.4655029296875
1.5033691406249998
0.026586914062499998
0.02578125
0.02578125
0.026586914062499998
0.30454101562499997
1.0836181640625
2.215576171875
3.0325195312499997
3.0333251953125
3.0301025390625
3.034130859375
3.0325195312499997
2.9350341796875
2.7626220703124997
2.8166015625
2.4645263671874997
2.19140625
2.4226318359375
1.8635009765625
1.7603759765625
1.6371093749999999
1.5444580078124999
3.0309082031249996
3.0325195312499997
3.0317138671875
3.029296875
2.3307861328125
1.3913818359374999
0.024169921875
0.026586914062499998
0.023364257812499997
0.026586914062499998
0.026586914062499998
0.0249755859375
0.07734374999999999
0.48178710937499997
0.6743408203125
0.9345703125
0.9547119140625
1.3688232421875
1.4928955078125
1.5090087890625
1.4961181640624999
0.0249755859375
0.02578125
0.023364257812499997
0.10151367187499999
0.5067626953125
1.525927734375
3.0301025390625
3.0325195312499997
3.0309082031249996
3.0389648437499996
3.0325195312499997
2.9060302734374996
2.889111328125
2.60712890625
2.3912109375
2.2051025390625
2.060888671875
1.832080078125
1.7474853515625
1.7015624999999999
1.5766845703124999
3.0309082031249996
3.0317138671875
3.0333251953125
3.0317138671875
3.0309082031249996
2.0987548828125
0.02578125
0.0249755859375
0.026586914062499998
0.026586914062499998
0.024169921875
0.026586914062499998
0.024169921875
0.37705078124999997
0.662255859375
0.8515869140625
1.044140625
1.340625
1.37607421875
1.4800048828124999
1.4888671875
0.026586914062499998
0.0249755859375
0.030615234374999998
0.0281982421875
0.44553222656249997
1.044140625
3.0301025390625
3.0309082031249996
3.0301025390625
3.0325195312499997
3.0284912109374997
3.011572265625
3.0325195312499997
2.7255615234375
2.737646484375
2.376708984375
2.160791015625
2.2067138671874997
1.8554443359375
1.76279296875
1.638720703125
3.0325195312499997
3.0301025390625
3.0325195312499997
3.029296875
2.5724853515625
2.1986572265624997
0.40122070312499997
0.0249755859375
0.0314208984375
0.024169921875
0.017724609375
0.026586914062499998
0.027392578124999997
0.43022460937499996
0.7742431640624999
0.7154296874999999
0.9676025390624999
1.0578369140625
1.313232421875
1.4655029296875
1.4953124999999998
0.0249755859375
0.026586914062499998
0.024169921875
0.0249755859375
0.310986328125
1.0062744140625
2.4468017578125
3.0325195312499997
3.0333251953125
3.0333251953125
3.0389648437499996
3.0309082031249996
3.0252685546875
2.711865234375
2.9318115234374997
2.47177734375
2.2727783203125
2.4169921875
1.8820312499999998
1.796630859375
1.7474853515625
2.1954345703125
3.0309082031249996
3.0309082031249996
3.0325195312499997
2.6562744140624996
2.1865722656249997
1.1537109374999999
0.0249755859375
0.02578125
0.027392578124999997
0.0281982421875
0.02578125
0.030615234374999998
0.1554931640625
0.3794677734375
0.7097900390624999
0.8096923828125
0.572021484375
1.1754638671875
1.2947021484374999
1.3857421875
0.02578125
0.0281982421875
0.02578125
0.02578125
0.2972900390625
0.8266113281249999
1.7660156249999999
3.0317138671875
3.0357421875
3.0357421875
3.0389648437499996
3.034130859375
2.98740234375
2.9398681640624997
3.0325195312499997
2.6047119140625
2.370263671875
2.5902099609375
2.03671875
1.8957275390625
1.7539306640624999
1.6798095703125
3.0325195312499997
3.0317138671875
3.034130859375
3.0309082031249996
3.0333251953125
1.3639892578125
0.026586914062499998
0.027392578124999997
0.0281982421875
0.02578125
0.023364257812499997
0.0201416015625
0.1861083984375
0.41411132812499996
0.5986083984375
0.7621582031249999
0.5293212890625
1.1222900390625
1.276171875
1.361572265625
1.3720458984375
0.026586914062499998
0.027392578124999997
0.022558593749999998
0.02900390625
0.1329345703125
1.7047851562499998
3.0309082031249996
3.0309082031249996
3.0317138671875
3.0325195312499997
3.0325195312499997
3.0107666015624996
3.0333251953125
2.834326171875
2.7086425781249996
2.386376953125
2.1438720703125
2.215576171875
1.9118408203125
1.8175781249999998
1.6862548828125
3.0333251953125
3.0333251953125
3.0309082031249996
3.0309082031249996
3.0357421875
2.03671875
0.02578125
0.026586914062499998
0.027392578124999997
0.02578125
0.027392578124999997
0.02578125
0.02578125
0.20625
0.607470703125
0.749267578125
0.9490722656249999
0.9087890624999999
1.219775390625
1.3148437499999999
1.3929931640625
0.0281982421875
0.023364257812499997
0.02578125
0.02578125
0.1168212890625
0.9249023437499999
2.8593017578124997
3.0244628906249997
3.0333251953125
3.027685546875
3.034130859375
3.0301025390625
3.0325195312499997
2.9986816406249996
2.8359375
2.56845703125
2.321923828125
2.334814453125
1.9940185546875
1.9070068359374999
1.7289550781249998
3.029296875
3.034130859375
3.029296875
3.0268798828124996
2.7183105468749997
2.3066162109375
0.026586914062499998
0.018530273437499998
0.023364257812499997
0.0249755859375
0.026586914062499998
0.023364257812499997
0.026586914062499998
0.2344482421875
0.3520751953125
0.6179443359375
0.81533203125
0.791162109375
1.158544921875
1.2592529296875
1.3656005859375
0.026586914062499998
0.024169921875
0.0298095703125
0.02578125
0.48259277343749996
0.9031494140624999
2.5515380859374996
3.0333251953125
3.034130859375
3.0325195312499997
3.0357421875
3.0325195312499997
3.0309082031249996
2.9124755859375
2.5031982421874996
2.6014892578124997
2.344482421875
1.964208984375
2.0842529296875
1.9714599609374999
1.791796875
3.0301025390625
3.0325195312499997
3.0317138671875
3.0317138671875
3.0244628906249997
2.785986328125
1.1432373046875
0.02900390625
0.019335937499999997
0.026586914062499998
0.02578125
0.02900390625
0.026586914062499998
0.10634765624999999
0.026586914062499998
0.4519775390625
0.7283203125
0.9821044921875
0.9796874999999999
1.2109130859375
1.332568359375
0.0322265625
0.0249755859375
0.026586914062499998
0.026586914062499998
0.14501953125
0.14018554687499998
1.76279296875
3.029296875
3.0333251953125
3.0309082031249996
3.0365478515624997
3.0317138671875
3.034130859375
2.9712890625
2.850439453125
2.60712890625
2.4943359375
2.20107421875
2.0520263671875
2.0778076171874997
1.94970703125
1.7772949218749998
3.0333251953125
3.0317138671875
3.0325195312499997
3.0317138671875
3.0252685546875
1.9005615234375
0.02578125
0.02578125
0.02578125
0.0201416015625
0.02578125
0.0298095703125
0.02578125
0.1087646484375
0.2618408203125
0.4874267578125
1.0642822265625
0.7484619140625
0.9579345703125
1.045751953125
1.1351806640625
0.026586914062499998
0.023364257812499997
0.0249755859375
0.026586914062499998
0.0249755859375
0.8741455078125
3.034130859375
3.0309082031249996
3.0309082031249996
3.029296875
3.0301025390625
3.0325195312499997
3.0325195312499997
3.0317138671875
2.8077392578125
2.7561767578125
2.6756103515625
2.3267578125
2.3581787109375
2.209130859375
1.9907958984374998
3.0301025390625
3.029296875
3.0470214843749996
3.0301025390625
3.0284912109374997
2.7779296875
0.023364257812499997
0.026586914062499998
0.026586914062499998
0.023364257812499997
0.02578125
0.0249755859375
0.023364257812499997
0.026586914062499998
0.0346435546875
0.18288574218749998
0.3279052734375
0.5696044921875
0.6010253906249999
0.7339599609374999
0.8225830078124999
0.026586914062499998
0.023364257812499997
0.027392578124999997
0.02900390625
0.022558593749999998
0.0249755859375
1.9029785156249999
3.0325195312499997
3.027685546875
3.029296875
3.0325195312499997
3.0309082031249996
3.0301025390625
3.0301025390625
3.0309082031249996
3.029296875
2.9833740234375
2.856884765625
2.8230468749999997
2.69091796875
2.5789306640625
3.0325195312499997
3.0284912109374997
3.0325195312499997
3.0309082031249996
3.027685546875
3.0365478515624997
1.948095703125
0.02578125
0.023364257812499997
0.026586914062499998
0.0281982421875
0.027392578124999997
0.02578125
0.0281982421875
0.02578125
0.02578125
0.024169921875
0.12810058593749998
0.149853515625
0.22719726562499998
0.23686523437499998
0.027392578124999997
0.02578125
0.02578125
0.024169921875
0.023364257812499997
0.02900390625
0.02578125
3.0325195312499997
3.034130859375
3.0325195312499997
3.0309082031249996
3.0309082031249996
3.029296875
3.0301025390625
3.0268798828124996
3.0317138671875
3.0309082031249996
3.034130859375
3.001904296875
2.9422851562499996
2.8593017578124997
2.7529541015624996
3.029296875
3.0325195312499997
3.0325195312499997
3.0333251953125
3.0325195312499997
2.5982666015625
0.0555908203125
0.02900390625
0.0281982421875
0.026586914062499998
0.022558593749999998
0.026586914062499998
0.02578125
0.027392578124999997
0.024169921875
0.02578125
0.026586914062499998
0.09990234375
0.18691406249999998
0.21269531249999998
0.1651611328125
0.02578125
0.027392578124999997
0.023364257812499997
0.027392578124999997
0.0281982421875
0.02578125
0.027392578124999997
3.0325195312499997
3.0325195312499997
3.0333251953125
3.0365478515624997
3.0284912109374997
3.0317138671875
3.0357421875
3.029296875
3.0284912109374997
3.029296875
3.005126953125
2.9527587890625
2.9624267578124996
2.840771484375
3.0325195312499997
3.0325195312499997
3.0317138671875
3.0309082031249996
3.034130859375
3.034130859375
0.5099853515625
0.026586914062499998
0.0249755859375
0.0217529296875
0.0249755859375
0.0249755859375
0.022558593749999998
0.0281982421875
0.02578125
0.023364257812499997
0.02900390625
0.02578125
0.02578125
0.0346435546875
0.026586914062499998
0.0281982421875
0.0281982421875
0.023364257812499997
0.022558593749999998
0.026586914062499998
0.02578125
0.026586914062499998
1.019970703125
2.333203125
3.0325195312499997
3.0325195312499997
3.037353515625
3.0325195312499997
3.0309082031249996
3.0357421875
3.0325195312499997
3.0301025390625
3.0317138671875
3.0204345703124997
3.02607421875
2.91328125
3.0317138671875
3.034130859375
3.034130859375
3.0389648437499996
3.0333251953125
3.0309082031249996
2.176904296875
0.02578125
0.026586914062499998
0.02578125
0.0249755859375
0.0217529296875
0.026586914062499998
0.0249755859375
0.024169921875
0.02578125
0.0249755859375
0.026586914062499998
0.026586914062499998
0.030615234374999998
0.0394775390625
0.024169921875
0.02578125
0.024169921875
0.02578125
0.02578125
0.02578125
0.033032226562499996
0.0298095703125
1.7362060546875
2.9737060546875
3.0349365234374996
3.0325195312499997
3.0349365234374996
3.0309082031249996
3.0325195312499997
3.029296875
3.034130859375
3.0309082031249996
3.0325195312499997
3.029296875
2.9906249999999996
3.0301025390625
3.0333251953125
3.0309082031249996
3.0325195312499997
3.0309082031249996
3.0309082031249996
2.9994873046875
0.5470458984375
0.027392578124999997
0.0249755859375
0.024169921875
0.026586914062499998
0.02578125
0.022558593749999998
0.02900390625
0.0281982421875
0.026586914062499998
0.0201416015625
0.0281982421875
0.046728515624999994
0.056396484375
0.026586914062499998
0.0217529296875
0.027392578124999997
0.023364257812499997
0.02900390625
0.027392578124999997
0.027392578124999997
0.0249755859375
1.3921875
2.4129638671875
3.0099609375
3.0333251953125
3.029296875
3.029296875
3.0325195312499997
3.0317138671875
3.0325195312499997
2.7996826171875
3.0301025390625
3.0309082031249996
3.0301025390625
3.0301025390625
3.034130859375
3.0309082031249996
3.0309082031249996
3.029296875
3.0309082031249996
3.034130859375
0.6066650390625
0.0281982421875
0.02578125
0.026586914062499998
0.02900390625
0.0281982421875
0.023364257812499997
0.026586914062499998
0.02578125
0.0249755859375
0.40927734374999997
0.027392578124999997
0.0281982421875
0.0346435546875
0.0249755859375
0.0249755859375
0.024169921875
0.022558593749999998
0.026586914062499998
0.027392578124999997
0.023364257812499997
0.027392578124999997
0.7798828124999999
2.099560546875
2.827880859375
3.0309082031249996
3.01962890625
3.0333251953125
3.0325195312499997
3.0325195312499997
3.029296875
3.0043212890624997
3.0317138671875
3.0325195312499997
3.0325195312499997
3.0228515624999996
3.0309082031249996
3.0325195312499997
3.0349365234374996
3.0309082031249996
3.029296875
3.0325195312499997
1.0787841796875
0.02900390625
0.0249755859375
0.026586914062499998
0.024169921875
0.02578125
0.0298095703125
0.02578125
0.0249755859375
0.02578125
0.0708984375
0.026586914062499998
0.0249755859375
0.0298095703125
0.0281982421875
0.0249755859375
0.02578125
0.02578125
0.022558593749999998
0.023364257812499997
0.0281982421875
0.02578125
0.02900390625
1.5702392578125
2.7497314453125
3.0357421875
3.0325195312499997
3.0284912109374997
3.0325195312499997
3.0309082031249996
3.0325195312499997
3.0309082031249996
3.0309082031249996
3.0317138671875
3.0333251953125
3.0301025390625
3.0309082031249996
3.0325195312499997
3.0301025390625
3.0333251953125
3.0301025390625
3.0325195312499997
2.7263671874999997
0.5043457031249999
0.026586914062499998
0.02578125
0.0322265625
0.0249755859375
0.024169921875
0.023364257812499997
0.0249755859375
0.02578125
0.026586914062499998
0.0298095703125
0.02578125
0.0346435546875
0.045117187499999996
0.02578125
0.026586914062499998
0.02578125
0.02578125
0.02578125
0.026586914062499998
0.02578125
0.0217529296875
1.16337890625
2.462109375
2.99384765625
3.0325195312499997
3.0309082031249996
3.0325195312499997
3.0309082031249996
3.034130859375
3.0357421875
3.0309082031249996
3.0333251953125
3.0301025390625
3.0317138671875
2.98740234375
3.029296875
3.029296875
3.029296875
3.0301025390625
3.0357421875
3.0333251953125
0.688037109375
0.02900390625
0.02578125
0.024169921875
0.020947265625
0.027392578124999997
0.022558593749999998
0.0249755859375
0.0281982421875
0.026586914062499998
0.027392578124999997
0.02578125
0.02578125
0.0443115234375
0.02578125
0.02578125
0.026586914062499998
0.0249755859375
0.023364257812499997
0.0249755859375
0.026586914062499998
0.024169921875
1.2181640624999999
2.27841796875
2.9189208984375
3.0309082031249996
3.0333251953125
3.0357421875
3.0357421875
3.0325195312499997
3.0317138671875
3.0333251953125
3.0325195312499997
3.0309082031249996
3.037353515625
2.9463134765624996
3.0333251953125
3.0317138671875
3.0317138671875
3.0301025390625
3.0333251953125
3.0317138671875
0.6550048828124999
0.02900390625
0.0249755859375
0.023364257812499997
0.0217529296875
0.023364257812499997
0.02578125
0.023364257812499997
0.0217529296875
0.022558593749999998
0.02578125
0.026586914062499998
0.026586914062499998
0.0652587890625
0.045117187499999996
0.02578125
0.02578125
0.027392578124999997
0.02578125
0.027392578124999997
0.0201416015625
0.02578125
0.024169921875
1.7764892578125
2.599072265625
3.0325195312499997
3.0317138671875
3.0301025390625
3.0309082031249996
3.0325195312499997
3.0301025390625
3.0317138671875
3.0333251953125
3.0333251953125
3.0309082031249996
2.99384765625
3.0301025390625
3.0317138671875
3.0301025390625
3.0301025390625
3.0309082031249996
3.034130859375
2.4943359375
0.410888671875
0.02578125
0.023364257812499997
0.0217529296875
0.02578125
0.022558593749999998
0.0249755859375
0.02578125
0.026586914062499998
0.024169921875
0.02900390625
0.027392578124999997
0.0523681640625
0.02578125
0.0217529296875
0.02900390625
0.0249755859375
0.02578125
0.02578125
0.024169921875
0.02578125
0.0217529296875
1.2850341796875
2.657080078125
3.0309082031249996
3.0309082031249996
3.0301025390625
3.0333251953125
3.0268798828124996
3.0325195312499997
3.0325195312499997
3.034130859375
3.0325195312499997
3.0325195312499997
3.0220458984375
3.0284912109374997
3.0301025390625
3.0317138671875
3.027685546875
3.0301025390625
3.029296875
3.0309082031249996
1.02158203125
0.02578125
0.026586914062499998
0.026586914062499998
0.026586914062499998
0.0201416015625
0.026586914062499998
0.0249755859375
0.022558593749999998
0.02578125
0.02578125
0.0281982421875
0.026586914062499998
0.02578125
0.023364257812499997
0.027392578124999997
0.0249755859375
0.0281982421875
0.02578125
0.027392578124999997
0.024169921875
0.02578125
1.2221923828124999
2.36220703125
2.9414794921875
3.029296875
3.0317138671875
3.0381591796875
3.029296875
3.0268798828124996
3.0317138671875
2.7336181640625
3.0333251953125
3.0333251953125
3.029296875
3.034130859375
3.027685546875
3.0333251953125
3.0325195312499997
3.0309082031249996
3.0357421875
3.0333251953125
1.077978515625
0.02578125
0.02578125
0.023364257812499997
0.0249755859375
0.027392578124999997
0.02578125
0.02578125
0.0249755859375
0.027392578124999997
0.17482910156249998
0.0314208984375
0.022558593749999998
0.049951171875
0.030615234374999998
0.0249755859375
0.023364257812499997
0.0281982421875
0.0249755859375
0.027392578124999997
0.023364257812499997
0.026586914062499998
0.3037353515625
1.9746826171874998
2.7005859374999996
3.029296875
3.0349365234374996
3.0317138671875
3.0325195312499997
3.0317138671875
3.0333251953125
2.9608154296875
3.0317138671875
3.0333251953125
3.029296875
2.96162109375
3.0357421875
3.034130859375
3.0317138671875
3.0333251953125
3.0309082031249996
3.034130859375
1.8892822265625
0.3158203125
0.02578125
0.024169921875
0.026586914062499998
0.023364257812499997
0.022558593749999998
0.024169921875
0.0217529296875
0.0249755859375
0.0217529296875
0.02900390625
0.024169921875
0.04833984375
0.02578125
0.019335937499999997
0.019335937499999997
0.027392578124999997
0.0281982421875
0.026586914062499998
0.0249755859375
0.0249755859375
0.02578125
1.6000488281249998
2.69736328125
3.0317138671875
3.0309082031249996
3.0301025390625
3.0389648437499996
3.0317138671875
3.0309082031249996
3.0317138671875
3.0268798828124996
3.0317138671875
3.034130859375
3.0099609375
3.0325195312499997
3.0309082031249996
3.0325195312499997
3.034130859375
3.0349365234374996
3.0309082031249996
3.0317138671875
0.784716796875
0.0298095703125
0.024169921875
0.02578125
0.026586914062499998
0.027392578124999997
0.02578125
0.026586914062499998
0.026586914062499998
0.02900390625
0.027392578124999997
0.02900390625
0.0281982421875
0.037060546874999996
0.026586914062499998
0.02900390625
0.0314208984375
0.0249755859375
0.02578125
0.0249755859375
0.023364257812499997
0.02578125
1.6475830078125
2.5732910156249997
3.0317138671875
3.0325195312499997
3.0301025390625
3.0301025390625
3.0317138671875
3.0325195312499997
3.0325195312499997
3.0333251953125
3.0309082031249996
3.0268798828124996
3.003515625
3.0301025390625
3.0325195312499997
3.0349365234374996
3.0301025390625
3.0309082031249996
3.029296875
3.0317138671875
0.813720703125
0.02900390625
0.0217529296875
0.026586914062499998
0.02900390625
0.02578125
0.0249755859375
0.026586914062499998
0.0298095703125
0.0249755859375
0.023364257812499997
0.027392578124999997
0.023364257812499997
0.0249755859375
0.023364257812499997
0.026586914062499998
0.0249755859375
0.02578125
0.027392578124999997
0.02578125
0.02578125
0.0298095703125
1.2181640624999999
2.152734375
2.8319091796875
3.0301025390625
3.0317138671875
3.0309082031249996
3.0325195312499997
3.034130859375
3.029296875
3.0349365234374996
3.0301025390625
3.0317138671875
3.0317138671875
2.979345703125
3.0333251953125
3.0357421875
3.0309082031249996
3.034130859375
3.034130859375
3.0301025390625
1.2028564453125
0.024169921875
0.026586914062499998
0.024169921875
0.026586914062499998
0.02578125
0.0298095703125
0.0249755859375
0.0281982421875
0.02578125
0.1426025390625
0.02578125
0.02578125
0.024169921875
0.02578125
0.023364257812499997
0.026586914062499998
0.030615234374999998
0.026586914062499998
0.02578125
0.0217529296875
0.023364257812499997
0.0249755859375
1.7523193359375
2.763427734375
3.034130859375
3.0309082031249996
3.0333251953125
3.0325195312499997
3.0301025390625
3.0301025390625
3.0349365234374996
3.0309082031249996
3.0309082031249996
3.0220458984375
2.9447021484375
3.0301025390625
3.0349365234374996
3.0309082031249996
3.0325195312499997
3.029296875
3.034130859375
3.0325195312499997
0.6743408203125
0.02900390625
0.0249755859375
0.026586914062499998
0.0249755859375
0.02900390625
0.026586914062499998
0.02578125
0.030615234374999998
0.0281982421875
0.02578125
0.0314208984375
0.026586914062499998
0.026586914062499998
0.024169921875
0.0249755859375
0.0249755859375
0.02578125
0.0298095703125
0.020947265625
0.02578125
0.02578125
1.699951171875
2.537841796875
3.0172119140625
3.0317138671875
3.0301025390625
3.0309082031249996
3.0317138671875
3.0252685546875
3.0325195312499997
3.0357421875
3.0309082031249996
3.0325195312499997
2.9946533203124996
3.027685546875
3.0309082031249996
3.0317138671875
3.034130859375
3.0317138671875
3.0349365234374996
3.0309082031249996
0.5760498046875
0.02578125
0.02578125
0.0249755859375
0.0281982421875
0.0281982421875
0.0249755859375
0.023364257812499997
0.026586914062499998
0.0249755859375
0.0217529296875
0.02900390625
0.02578125
0.02578125
0.020947265625
0.0249755859375
0.0281982421875
0.02578125
0.026586914062499998
0.022558593749999998
0.022558593749999998
0.026586914062499998
1.0505859375
2.1406494140625
2.7521484375
3.0365478515624997
3.0325195312499997
3.037353515625
3.0349365234374996
3.0325195312499997
3.0333251953125
3.029296875
3.0333251953125
3.0349365234374996
3.0139892578125
2.9785400390624996
3.0309082031249996
3.034130859375
3.0333251953125
3.0317138671875
3.0349365234374996
3.0325195312499997
0.992578125
0.0281982421875
0.026586914062499998
0.020947265625
0.023364257812499997
0.0281982421875
0.0249755859375
0.026586914062499998
0.0314208984375
0.023364257812499997
0.02578125
0.0249755859375
0.02578125
0.026586914062499998
0.026586914062499998
0.022558593749999998
0.024169921875
0.026586914062499998
0.023364257812499997
0.023364257812499997
0.022558593749999998
0.026586914062499998
0.023364257812499997
1.9134521484375
2.8552734374999997
3.0349365234374996
3.0317138671875
3.0309082031249996
3.029296875
3.0325195312499997
3.0244628906249997
3.0325195312499997
3.0301025390625
3.0301025390625
2.9970703125
2.9398681640624997
3.0284912109374997
3.0333251953125
3.034130859375
3.0301025390625
3.0301025390625
3.0317138671875
1.8489990234375
0.2199462890625
0.017724609375
0.0249755859375
0.022558593749999998
0.0281982421875
0.026586914062499998
0.0217529296875
0.0217529296875
0.02578125
0.02578125
0.026586914062499998
0.0217529296875
0.03544921875
0.02578125
0.024169921875
0.026586914062499998
0.026586914062499998
0.026586914062499998
0.0217529296875
0.026586914062499998
0.02578125
0.02578125
1.6693359374999999
2.4113525390625
2.8560791015625
3.0309082031249996
3.0317138671875
3.034130859375
3.0349365234374996
3.0333251953125
3.0333251953125
3.003515625
3.003515625
2.989013671875
2.9100585937499996
3.0333251953125
3.0325195312499997
3.0325195312499997
3.0325195312499997
3.0309082031249996
3.0309082031249996
3.0309082031249996
0.269091796875
0.023364257812499997
0.022558593749999998
0.023364257812499997
0.022558593749999998
0.02900390625
0.0217529296875
0.026586914062499998
0.0249755859375
0.0249755859375
0.02578125
0.024169921875
0.024169921875
0.02578125
0.023364257812499997
0.022558593749999998
0.026586914062499998
0.023364257812499997
0.026586914062499998
0.026586914062499998
0.0249755859375
0.027392578124999997
1.0948974609375
2.131787109375
2.8149902343749997
3.0301025390625
3.0301025390625
3.0309082031249996
3.0301025390625
3.0333251953125
3.0389648437499996
3.0325195312499997
3.0317138671875
3.0309082031249996
2.963232421875
3.0284912109374997
3.0333251953125
3.0317138671875
3.0317138671875
3.0301025390625
3.0325195312499997
3.0333251953125
0.7371826171875
0.020947265625
0.02578125
0.02900390625
0.02578125
0.02900390625
0.02578125
0.027392578124999997
0.027392578124999997
0.02900390625
0.024169921875
0.022558593749999998
0.027392578124999997
0.022558593749999998
0.024169921875
0.0298095703125
0.023364257812499997
0.02900390625
0.0281982421875
0.022558593749999998
0.02578125
0.0249755859375
1.045751953125
1.98837890625
2.9108642578125
3.034130859375
3.0301025390625
3.0309082031249996
3.0309082031249996
3.0333251953125
3.0301025390625
3.0284912109374997
3.0317138671875
3.029296875
2.9833740234375
2.872998046875
3.0325195312499997
3.0333251953125
3.0309082031249996
3.0317138671875
3.0325195312499997
3.0309082031249996
1.0376953125
0.026586914062499998
0.027392578124999997
0.0281982421875
0.02578125
0.02578125
0.02578125
0.0249755859375
0.02900390625
0.026586914062499998
0.2344482421875
0.026586914062499998
0.02578125
0.024169921875
0.026586914062499998
0.026586914062499998
0.02900390625
0.024169921875
0.024169921875
0.02578125
0.02578125
0.026586914062499998
1.042529296875
2.4129638671875
3.0357421875
3.034130859375
3.0317138671875
3.0301025390625
3.027685546875
3.0309082031249996
3.0309082031249996
3.0309082031249996
3.0325195312499997
3.0317138671875
2.9841796874999997
2.9720947265624997
3.0301025390625
3.0317138671875
3.0309082031249996
3.0309082031249996
3.0349365234374996
3.0301025390625
3.0325195312499997
0.48178710937499997
0.02578125
0.02578125
0.0281982421875
0.024169921875
0.02578125
0.0249755859375
0.02578125
0.026586914062499998
0.0249755859375
0.026586914062499998
0.0249755859375
0.02578125
0.02900390625
0.02578125
0.02578125
0.026586914062499998
0.02578125
0.0249755859375
0.0281982421875
0.026586914062499998
0.0298095703125
2.7577880859375
3.0301025390625
3.0325195312499997
3.0317138671875
3.0333251953125
3.0365478515624997
3.0333251953125
3.0317138671875
3.029296875
3.0325195312499997
2.96162109375
2.9302001953124996
2.8415771484374996
3.034130859375
3.0325195312499997
3.0301025390625
3.0325195312499997
3.0309082031249996
3.0325195312499997
3.0309082031249996
0.4229736328125
0.0217529296875
0.0249755859375
0.0281982421875
0.0249755859375
0.0249755859375
0.026586914062499998
0.0249755859375
0.026586914062499998
0.022558593749999998
0.027392578124999997
0.02578125
0.026586914062499998
0.024169921875
0.0217529296875
0.0217529296875
0.02578125
0.023364257812499997
0.022558593749999998
0.02578125
0.026586914062499998
0.02900390625
2.1293701171875
3.0123779296874997
3.0325195312499997
3.0301025390625
3.0349365234374996
3.0333251953125
3.0317138671875
3.0325195312499997
3.0333251953125
3.0333251953125
3.021240234375
2.92294921875
2.9044189453125
2.8456054687499996
3.0325195312499997
3.0309082031249996
3.0309082031249996
3.034130859375
3.0309082031249996
3.029296875
0.9966064453125
0.0249755859375
0.026586914062499998
0.02578125
0.026586914062499998
0.022558593749999998
0.026586914062499998
0.0249755859375
0.0249755859375
0.022558593749999998
0.026586914062499998
0.02578125
0.026586914062499998
0.026586914062499998
0.0249755859375
0.02578125
0.02578125
0.023364257812499997
0.030615234374999998
0.02900390625
0.026586914062499998
0.027392578124999997
1.7023681640625
3.029296875
3.029296875
3.0325195312499997
3.0349365234374996
3.0381591796875
3.0397705078125
3.0349365234374996
3.0301025390625
3.0325195312499997
3.0325195312499997
3.0043212890624997
2.921337890625
2.8335205078124996
3.0309082031249996
3.0301025390625
3.037353515625
3.0301025390625
3.0301025390625
3.0309082031249996
1.571044921875
0.09345703124999999
0.0249755859375
0.023364257812499997
0.026586914062499998
0.020947265625
0.027392578124999997
0.027392578124999997
0.023364257812499997
0.0281982421875
0.02900390625
0.02900390625
0.0249755859375
0.02578125
0.027392578124999997
0.026586914062499998
0.030615234374999998
0.0249755859375
0.019335937499999997
0.02578125
0.02578125
0.0249755859375
0.02900390625
2.8037109375
3.0317138671875
3.0309082031249996
3.0309082031249996
3.0317138671875
3.0309082031249996
3.0325195312499997
3.0317138671875
3.0317138671875
2.8625244140625
2.9414794921875
2.860107421875
2.7505371093749997
3.0325195312499997
3.0317138671875
3.0333251953125
3.0317138671875
3.0333251953125
3.0309082031249996
3.037353515625
0.1353515625
0.02578125
0.0249755859375
0.0249755859375
0.026586914062499998
0.0249755859375
0.024169921875
0.024169921875
0.02578125
0.027392578124999997
0.022558593749999998
0.0249755859375
0.026586914062499998
0.026586914062499998
0.026586914062499998
0.02578125
0.02578125
0.0249755859375
0.02578125
0.030615234374999998
0.027392578124999997
0.0298095703125
2.578125
3.0317138671875
3.0309082031249996
3.0309082031249996
3.029296875
3.0325195312499997
3.0317138671875
3.0349365234374996
3.0301025390625
3.0325195312499997
2.94873046875
2.9503417968749996
2.8576904296874996
3.034130859375
3.0333251953125
3.0309082031249996
3.0309082031249996
3.029296875
3.0333251953125
3.0317138671875
0.5969970703124999
0.0281982421875
0.026586914062499998
0.02900390625
0.02900390625
0.0249755859375
0.0249755859375
0.0281982421875
0.027392578124999997
0.023364257812499997
0.022558593749999998
0.026586914062499998
0.02578125
0.024169921875
0.02578125
0.024169921875
0.026586914062499998
0.026586914062499998
0.02578125
0.026586914062499998
0.0281982421875
0.027392578124999997
2.1503173828124997
3.034130859375
3.0317138671875
3.0325195312499997
3.0333251953125
3.0325195312499997
3.0325195312499997
3.0333251953125
3.0325195312499997
2.9745117187499996
2.79404296875
2.8858886718749996
2.8053222656249996
2.7021972656249997
3.0309082031249996
3.0333251953125
3.0333251953125
3.0325195312499997
3.0317138671875
3.0325195312499997
0.9402099609375
0.02578125
0.02578125
0.026586914062499998
0.023364257812499997
0.026586914062499998
0.027392578124999997
0.026586914062499998
0.017724609375
0.02578125
0.12890625
0.02578125
0.0217529296875
0.026586914062499998
0.020947265625
0.02578125
0.0249755859375
0.026586914062499998
0.0249755859375
0.02578125
0.026586914062499998
0.026586914062499998
2.1760986328125
3.034130859375
3.0317138671875
3.0333251953125
3.0325195312499997
3.0301025390625
3.0325195312499997
3.0309082031249996
3.034130859375
3.0317138671875
3.0381591796875
2.9326171875
2.818212890625
2.72314453125
3.0325195312499997
3.0301025390625
3.0349365234374996
3.0325195312499997
3.0333251953125
3.0317138671875
2.8858886718749996
0.34965820312499996
0.02578125
0.026586914062499998
0.024169921875
0.027392578124999997
0.02578125
0.0249755859375
0.024169921875
0.02900390625
0.022558593749999998
0.015307617187499999
0.026586914062499998
0.0249755859375
0.024169921875
0.033032226562499996
0.02578125
0.02578125
0.0249755859375
0.027392578124999997
0.0281982421875
0.02900390625
0.02578125
2.9543701171874996
3.0349365234374996
3.0365478515624997
3.0309082031249996
3.0349365234374996
3.0325195312499997
3.0317138671875
3.027685546875
3.034130859375
3.0309082031249996
2.914892578125
2.8447998046875
2.811767578125
3.0317138671875
3.0333251953125
3.0309082031249996
3.029296875
3.0357421875
3.027685546875
3.0309082031249996
0.4245849609375
0.026586914062499998
0.0322265625
0.022558593749999998
0.026586914062499998
0.02578125
0.0281982421875
0.02900390625
0.02578125
0.0281982421875
0.0249755859375
0.02578125
0.027392578124999997
0.02578125
0.02578125
0.020947265625
0.0249755859375
0.026586914062499998
0.027392578124999997
0.0249755859375
0.020947265625
0.02578125
2.3323974609375
3.0309082031249996
3.0309082031249996
3.0309082031249996
3.034130859375
3.0349365234374996
3.0325195312499997
3.037353515625
3.0309082031249996
3.0325195312499997
2.9592041015625
2.9108642578125
2.8206298828125
2.695751953125
3.0333251953125
3.0309082031249996
3.0333251953125
3.034130859375
3.0349365234374996
3.0325195312499997
0.78955078125
0.0249755859375
0.0281982421875
0.026586914062499998
0.022558593749999998
0.02578125
0.0249755859375
0.02578125
0.0281982421875
0.02578125
0.02578125
0.02578125
0.02578125
0.0249755859375
0.026586914062499998
0.02900390625
0.026586914062499998
0.0298095703125
0.02900390625
0.024169921875
0.027392578124999997
0.0249755859375
1.7474853515625
3.0309082031249996
3.0301025390625
3.0325195312499997
3.0309082031249996
3.029296875
3.0325195312499997
3.0301025390625
3.034130859375
3.0123779296874997
3.029296875
2.9261718749999996
2.8351318359374997
2.7892089843749996
3.0317138671875
3.029296875
3.0349365234374996
3.029296875
3.0325195312499997
3.0325195312499997
1.8183837890624999
0.0249755859375
0.022558593749999998
0.0314208984375
0.027392578124999997
0.02578125
0.0249755859375
0.022558593749999998
0.033032226562499996
0.02900390625
0.02900390625
0.026586914062499998
0.0249755859375
0.02578125
0.024169921875
0.0249755859375
0.026586914062499998
0.02900390625
0.022558593749999998
0.027392578124999997
0.026586914062499998
0.02900390625
0.34885253906249997
2.6482177734374996
3.029296875
3.0357421875
3.037353515625
3.0309082031249996
3.0301025390625
3.0349365234374996
3.027685546875
3.0309082031249996
2.8125732421875
2.9028076171875
2.848828125
2.75537109375
3.029296875
3.0357421875
3.0333251953125
3.0309082031249996
3.0309082031249996
3.0325195312499997
3.034130859375
0.48259277343749996
0.026586914062499998
0.019335937499999997
0.02578125
0.0249755859375
0.027392578124999997
0.0281982421875
0.026586914062499998
0.02578125
0.026586914062499998
0.027392578124999997
0.02578125
0.02578125
0.0249755859375
0.0249755859375
0.0322265625
0.026586914062499998
0.0249755859375
0.02578125
0.023364257812499997
0.026586914062499998
0.0249755859375
2.5708740234375
3.0357421875
3.0317138671875
3.029296875
3.034130859375
3.0284912109374997
3.0317138671875
3.0333251953125
3.0333251953125
3.029296875
2.9181152343749996
2.8915283203124997
2.8077392578125
3.0309082031249996
3.034130859375
3.0284912109374997
3.0309082031249996
3.0325195312499997
3.034130859375
3.0309082031249996
0.543017578125
0.027392578124999997
0.02578125
0.02578125
0.0249755859375
0.0201416015625
0.02578125
0.0249755859375
0.02578125
0.02578125
0.0249755859375
0.02578125
0.022558593749999998
0.02578125
0.0249755859375
0.024169921875
0.022558593749999998
0.026586914062499998
0.026586914062499998
0.0249755859375
0.0249755859375
0.02578125
2.27197265625
3.0325195312499997
3.0333251953125
3.0309082031249996
3.0333251953125
3.0333251953125
3.0317138671875
3.0309082031249996
3.0284912109374997
2.5982666015625
2.8552734374999997
2.900390625
2.8286865234375
2.6876953125
3.0317138671875
3.0309082031249996
3.0309082031249996
3.0317138671875
3.0317138671875
3.0333251953125
0.9329589843749999
0.02578125
0.0249755859375
0.027392578124999997
0.023364257812499997
0.023364257812499997
0.026586914062499998
0.026586914062499998
0.02578125
0.0314208984375
0.23525390624999998
0.0298095703125
0.02578125
0.02578125
0.024169921875
0.0281982421875
0.027392578124999997
0.0249755859375
0.0249755859375
0.02578125
0.026586914062499998
0.0281982421875
2.3130615234375
3.0156005859375
3.0357421875
3.0309082031249996
3.0325195312499997
3.0317138671875
3.0333251953125
3.029296875
3.034130859375
3.029296875
3.0268798828124996
2.9237548828124997
2.763427734375
2.6917236328125
3.0365478515624997
3.0325195312499997
3.0357421875
3.0325195312499997
3.0325195312499997
3.034130859375
2.9745117187499996
0.28681640625
0.026586914062499998
0.0249755859375
0.02578125
0.0249755859375
0.0249755859375
0.0281982421875
0.0362548828125
0.026586914062499998
0.026586914062499998
0.0314208984375
0.02578125
0.024169921875
0.030615234374999998
0.02900390625
0.0249755859375
0.024169921875
0.0249755859375
0.0249755859375
0.02578125
0.022558593749999998
0.02578125
2.89072265625
3.0317138671875
3.0357421875
3.0325195312499997
3.0325195312499997
3.0357421875
3.0317138671875
3.0325195312499997
3.0325195312499997
3.0325195312499997
2.908447265625
2.8641357421875
2.7851806640624996
2.7779296875
3.0309082031249996
3.034130859375
3.0301025390625
3.0301025390625
3.0325195312499997
3.0317138671875
0.3601318359375
0.02578125
0.024169921875
0.022558593749999998
0.024169921875
0.0217529296875
0.026586914062499998
0.026586914062499998
0.02578125
0.0249755859375
0.02900390625
0.0298095703125
0.02578125
0.026586914062499998
0.019335937499999997
0.02578125
0.02578125
0.022558593749999998
0.0281982421875
0.026586914062499998
0.0249755859375
0.026586914062499998
2.5048095703124997
3.0397705078125
3.0317138671875
3.0333251953125
3.0333251953125
3.029296875
3.0317138671875
3.029296875
3.0309082031249996
2.937451171875
3.001904296875
2.882666015625
2.8456054687499996
2.682861328125
3.0317138671875
3.0301025390625
3.0325195312499997
3.034130859375
3.0309082031249996
3.0309082031249996
0.8177490234375
0.026586914062499998
0.02578125
0.027392578124999997
0.0249755859375
0.0281982421875
0.0249755859375
0.022558593749999998
0.024169921875
0.0249755859375
0.02578125
0.02578125
0.024169921875
0.027392578124999997
0.0249755859375
0.026586914062499998
0.026586914062499998
0.02578125
0.02578125
0.019335937499999997
0.0249755859375
0.026586914062499998
1.6306640625
2.9495361328125
3.029296875
3.034130859375
3.0325195312499997
3.037353515625
3.0325195312499997
3.0349365234374996
3.034130859375
2.9761230468749997
3.0317138671875
2.8512451171874997
2.7497314453125
2.6304931640625
3.0325195312499997
3.0268798828124996
3.0268798828124996
3.029296875
3.0301025390625
3.0301025390625
1.8087158203125
0.0322265625
0.02578125
0.024169921875
0.026586914062499998
0.0249755859375
0.026586914062499998
0.0281982421875
0.02900390625
0.026586914062499998
0.017724609375
0.024169921875
0.0249755859375
0.0249755859375
0.024169921875
0.023364257812499997
0.0249755859375
0.02578125
0.0201416015625
0.0281982421875
0.0249755859375
0.023364257812499997
0.8121093749999999
2.6949462890625
3.0317138671875
3.0325195312499997
3.034130859375
3.0301025390625
3.0349365234374996
3.0317138671875
3.0357421875
3.0107666015624996
2.9221435546874996
2.9914306640625
2.9197265624999997
2.81015625
3.0301025390625
3.034130859375
3.0325195312499997
3.0301025390625
3.0301025390625
3.0317138671875
3.0309082031249996
0.5728271484374999
0.0249755859375
0.026586914062499998
0.0298095703125
0.02578125
0.02578125
0.02578125
0.02578125
0.02578125
0.02578125
0.022558593749999998
0.03544921875
0.0249755859375
0.026586914062499998
0.027392578124999997
0.02578125
0.0249755859375
0.0201416015625
0.026586914062499998
0.02578125
0.026586914062499998
0.026586914062499998
2.7110595703125
3.0325195312499997
3.0333251953125
3.0317138671875
3.0317138671875
3.0301025390625
3.0317138671875
3.0325195312499997
3.0325195312499997
2.7328124999999996
3.0309082031249996
2.9849853515625
2.840771484375
3.0284912109374997
3.0325195312499997
3.0301025390625
3.0333251953125
3.034130859375
3.0309082031249996
3.0284912109374997
0.5357666015625
0.023364257812499997
0.022558593749999998
0.0249755859375
0.0281982421875
0.023364257812499997
0.026586914062499998
0.0281982421875
0.02578125
0.0249755859375
0.20947265625
0.026586914062499998
0.02578125
0.026586914062499998
0.0249755859375
0.026586914062499998
0.02578125
0.024169921875
0.0281982421875
0.026586914062499998
0.023364257812499997
0.0249755859375
2.20107421875
3.0333251953125
3.0309082031249996
3.0325195312499997
3.034130859375
3.0325195312499997
3.0325195312499997
3.0325195312499997
3.037353515625
2.4903076171875
2.9173095703125
2.9060302734374996
2.8214355468749996
2.7384521484374997
3.034130859375
3.0325195312499997
3.0325195312499997
3.0309082031249996
3.0333251953125
3.0325195312499997
0.98291015625
0.022558593749999998
0.0217529296875
0.023364257812499997
0.0281982421875
0.02578125
0.026586914062499998
0.0281982421875
0.0217529296875
0.02578125
0.20302734374999998
0.02578125
0.026586914062499998
0.027392578124999997
0.02578125
0.02578125
0.0217529296875
0.027392578124999997
0.026586914062499998
0.023364257812499997
0.0298095703125
0.0169189453125
1.998046875
2.8190185546874997
3.0325195312499997
3.0333251953125
3.0333251953125
3.0357421875
3.034130859375
3.0325195312499997
3.0284912109374997
3.029296875
2.953564453125
2.9156982421874997
2.8359375
2.7666503906249997
3.0317138671875
3.0325195312499997
3.034130859375
3.0301025390625
3.0309082031249996
3.0325195312499997
3.0083496093749997
0.33676757812499997
0.02578125
0.030615234374999998
0.0249755859375
0.02578125
0.02578125
0.023364257812499997
0.026586914062499998
0.023364257812499997
0.02578125
0.0249755859375
0.0249755859375
0.0281982421875
0.027392578124999997
0.023364257812499997
0.02578125
0.02578125
0.024169921875
0.02578125
0.026586914062499998
0.026586914062499998
0.0298095703125
2.7183105468749997
3.0309082031249996
3.0357421875
3.029296875
3.0317138671875
3.0325195312499997
3.0301025390625
3.0333251953125
3.034130859375
3.0325195312499997
2.8778320312499996
2.8415771484374996
2.7610107421874996
2.6280761718749996
3.029296875
3.034130859375
3.0301025390625
3.0325195312499997
3.0309082031249996
3.0317138671875
0.6098876953125
0.022558593749999998
0.019335937499999997
0.026586914062499998
0.0281982421875
0.0217529296875
0.027392578124999997
0.024169921875
0.02578125
0.026586914062499998
0.0249755859375
0.026586914062499998
0.0217529296875
0.024169921875
0.0217529296875
0.02578125
0.027392578124999997
0.02578125
0.02578125
0.02578125
0.02578125
0.02578125
2.4274658203125
3.0301025390625
3.0301025390625
3.0333251953125
3.0301025390625
3.0301025390625
3.029296875
3.034130859375
3.0317138671875
3.0317138671875
2.8713867187499997
2.876220703125
2.8294921874999996
2.6707763671875
3.0284912109374997
3.0309082031249996
3.0301025390625
3.029296875
3.0301025390625
3.0301025390625
0.8588378906249999
0.0281982421875
0.027392578124999997
0.026586914062499998
0.02578125
0.023364257812499997
0.026586914062499998
0.027392578124999997
0.027392578124999997
0.027392578124999997
0.02578125
0.026586914062499998
0.0249755859375
0.0346435546875
0.02900390625
0.02578125
0.026586914062499998
0.026586914062499998
0.0249755859375
0.027392578124999997
0.026586914062499998
0.02578125
1.8522216796875
3.0333251953125
3.0317138671875
3.0309082031249996
3.0309082031249996
3.0325195312499997
3.0317138671875
3.0317138671875
3.034130859375
3.034130859375
3.029296875
2.9575927734375
2.8480224609375
2.7658447265625
3.0325195312499997
3.0357421875
3.0317138671875
3.0309082031249996
3.0325195312499997
3.0284912109374997
2.1470947265625
0.223974609375
0.023364257812499997
0.0217529296875
0.0217529296875
0.0249755859375
0.0281982421875
0.027392578124999997
0.02900390625
0.02578125
0.0249755859375
0.024169921875
0.027392578124999997
0.0249755859375
0.023364257812499997
0.0249755859375
0.020947265625
0.02578125
0.0249755859375
0.027392578124999997
0.026586914062499998
0.0281982421875
2.3211181640625
3.029296875
3.029296875
3.0325195312499997
3.0301025390625
3.0317138671875
3.0421875
3.0333251953125
3.0325195312499997
3.0317138671875
3.0317138671875
3.0325195312499997
3.0317138671875
3.0309082031249996
3.0309082031249996
3.0333251953125
3.0325195312499997
3.0309082031249996
3.0301025390625
3.0317138671875
3.0301025390625
1.0191650390625
0.0249755859375
0.026586914062499998
0.024169921875
0.026586914062499998
0.02900390625
0.027392578124999997
0.02900390625
0.026586914062499998
0.02900390625
0.0249755859375
0.1780517578125
0.24733886718749998
0.32065429687499997
0.0249755859375
0.02578125
0.02578125
0.024169921875
0.022558593749999998
0.02900390625
0.0249755859375
0.02578125
3.0301025390625
3.029296875
3.0309082031249996
3.0309082031249996
3.0317138671875
3.0301025390625
3.0349365234374996
3.0325195312499997
3.0301025390625
2.8874999999999997
3.0317138671875
3.0317138671875
3.0325195312499997
3.0268798828124996
3.0325195312499997
3.0317138671875
3.0325195312499997
3.0301025390625
3.0309082031249996
3.0309082031249996
1.2020507812499999
0.030615234374999998
0.02578125
0.0298095703125
0.02900390625
0.02578125
0.02578125
0.02578125
0.0281982421875
0.026586914062499998
0.024169921875
0.02578125
0.064453125
0.091845703125
0.0281982421875
0.02578125
0.024169921875
0.027392578124999997
0.02578125
0.0249755859375
0.026586914062499998
0.027392578124999997
2.2792236328124997
3.034130859375
3.0325195312499997
3.0325195312499997
3.0317138671875
3.029296875
3.0317138671875
3.0333251953125
3.0268798828124996
2.8375488281249996
3.0325195312499997
3.0349365234374996
3.021240234375
2.940673828125
3.029296875
3.029296875
3.029296875
3.0325195312499997
3.0333251953125
3.0349365234374996
1.11181640625
0.136962890625
0.022558593749999998
0.027392578124999997
0.0217529296875
0.0249755859375
0.024169921875
0.02578125
0.024169921875
0.026586914062499998
0.046728515624999994
0.02578125
0.0281982421875
0.0281982421875
0.026586914062499998
0.027392578124999997
0.027392578124999997
0.02578125
0.02900390625
0.02578125
0.026586914062499998
0.026586914062499998
1.458251953125
2.576513671875
3.0301025390625
3.037353515625
3.0325195312499997
3.0325195312499997
3.0301025390625
3.027685546875
3.0325195312499997
3.0317138671875
3.0236572265625
3.027685546875
3.0172119140625
2.9455078125
3.0301025390625
3.0325195312499997
3.0309082031249996
3.0301025390625
3.0325195312499997
3.034130859375
3.0325195312499997
0.9257080078125
0.02578125
0.0249755859375
0.027392578124999997
0.023364257812499997
0.0249755859375
0.0281982421875
0.0298095703125
0.0249755859375
0.02578125
0.027392578124999997
0.02578125
0.030615234374999998
0.022558593749999998
0.0249755859375
0.026586914062499998
0.02578125
0.02578125
0.02578125
0.026586914062499998
0.026586914062499998
0.02900390625
2.3783203125
3.0333251953125
3.0309082031249996
3.0325195312499997
3.0309082031249996
3.034130859375
3.0325195312499997
3.0309082031249996
3.0325195312499997
3.0317138671875
3.0309082031249996
3.0284912109374997
3.0091552734375
3.034130859375
3.029296875
3.0333251953125
3.0325195312499997
3.0301025390625
3.0357421875
3.0317138671875
0.7871337890625
0.0217529296875
0.0281982421875
0.02578125
0.024169921875
0.0249755859375
0.022558593749999998
0.02578125
0.023364257812499997
0.02578125
0.033837890625
0.020947265625
0.022558593749999998
0.0249755859375
0.023364257812499997
0.030615234374999998
0.023364257812499997
0.0281982421875
0.027392578124999997
0.026586914062499998
0.02578125
0.02578125
1.9956298828124999
3.0309082031249996
3.0365478515624997
3.034130859375
3.034130859375
3.0325195312499997
3.0301025390625
3.0317138671875
3.0325195312499997
3.0309082031249996
3.034130859375
3.029296875
3.0333251953125
3.029296875
3.0325195312499997
3.027685546875
3.034130859375
3.0317138671875
3.0333251953125
3.0284912109374997
1.348681640625
0.1353515625
0.024169921875
0.02578125
0.026586914062499998
0.02578125
0.0298095703125
0.02578125
0.0249755859375
0.02900390625
0.02900390625
0.20947265625
0.193359375
0.3150146484375
0.327099609375
0.0249755859375
0.0281982421875
0.026586914062499998
0.026586914062499998
0.024169921875
0.024169921875
0.0201416015625
2.96484375
3.034130859375
3.0333251953125
3.0301025390625
3.0317138671875
3.0309082031249996
3.034130859375
3.029296875
3.0325195312499997
3.029296875
3.0357421875
3.0325195312499997
3.027685546875
3.0236572265625
3.034130859375
3.034130859375
3.0301025390625
3.0325195312499997
3.029296875
3.0325195312499997
2.795654296875
0.64453125
0.026586914062499998
0.026586914062499998
0.024169921875
0.026586914062499998
0.024169921875
0.02578125
0.023364257812499997
0.0249755859375
0.0475341796875
0.02900390625
0.27231445312499997
0.36577148437499996
0.4189453125
0.0249755859375
0.024169921875
0.026586914062499998
0.02578125
0.0249755859375
0.02900390625
0.027392578124999997
2.850439453125
3.0309082031249996
3.0309082031249996
3.0357421875
3.0325195312499997
3.0333251953125
3.0301025390625
3.0357421875
3.0325195312499997
3.0325195312499997
3.0325195312499997
3.0284912109374997
3.034130859375
3.0268798828124996
3.0301025390625
3.0325195312499997
3.029296875
3.0325195312499997
3.0309082031249996
3.0333251953125
3.0317138671875
0.2570068359375
0.024169921875
0.02900390625
0.026586914062499998
0.024169921875
0.026586914062499998
0.0217529296875
0.0249755859375
0.0249755859375
0.027392578124999997
0.026586914062499998
0.14501953125
0.1957763671875
0.24331054687499998
0.0217529296875
0.024169921875
0.0249755859375
0.0281982421875
0.020947265625
0.022558593749999998
0.02578125
2.4290771484375
3.0349365234374996
3.0317138671875
3.0268798828124996
3.034130859375
3.0317138671875
3.0309082031249996
3.0333251953125
3.0309082031249996
3.029296875
3.0325195312499997
3.0333251953125
3.0325195312499997
3.0317138671875
3.0268798828124996
3.0317138671875
3.0309082031249996
3.0317138671875
3.0309082031249996
3.0317138671875
3.0486328124999997
0.539794921875
0.026586914062499998
0.024169921875
0.02578125
0.0281982421875
0.0249755859375
0.022558593749999998
0.026586914062499998
0.0249755859375
0.026586914062499998
0.0217529296875
0.027392578124999997
0.06767578125
0.11037597656249999
0.0249755859375
0.0281982421875
0.02900390625
0.0249755859375
0.02578125
0.023364257812499997
0.027392578124999997
0.024169921875
2.827880859375
3.0309082031249996
3.0317138671875
3.0309082031249996
3.0317138671875
3.0284912109374997
3.034130859375
3.0317138671875
3.0357421875
2.8093505859374996
3.029296875
3.0309082031249996
3.0002929687499997
2.9455078125
3.0284912109374997
3.0325195312499997
3.0284912109374997
3.0317138671875
3.0325195312499997
3.0301025390625
0.7702148437499999
0.024169921875
0.026586914062499998
0.026586914062499998
0.02900390625
0.022558593749999998
0.0201416015625
0.0281982421875
0.0281982421875
0.0298095703125
0.0910400390625
0.02578125
0.026586914062499998
0.033837890625
0.027392578124999997
0.0249755859375
0.02900390625
0.026586914062499998
0.027392578124999997
0.026586914062499998
0.027392578124999997
0.026586914062499998
2.4427734375
3.034130859375
3.0309082031249996
3.0325195312499997
3.0309082031249996
3.034130859375
3.0309082031249996
3.0333251953125
3.029296875
3.0284912109374997
3.0349365234374996
3.0284912109374997
3.0333251953125
2.9841796874999997
3.0309082031249996
3.0349365234374996
3.0309082031249996
3.034130859375
3.0301025390625
3.0325195312499997
2.4685546874999997
0.2038330078125
0.026586914062499998
0.0249755859375
0.0249755859375
0.02578125
0.024169921875
0.02900390625
0.026586914062499998
0.02900390625
0.020947265625
0.027392578124999997
0.0636474609375
0.1007080078125
0.08701171875
0.0249755859375
0.0249755859375
0.0249755859375
0.026586914062499998
0.022558593749999998
0.026586914062499998
0.026586914062499998
0.0249755859375
3.0357421875
3.0333251953125
3.0309082031249996
3.0325195312499997
3.0333251953125
3.034130859375
3.0325195312499997
3.029296875
3.0309082031249996
3.0317138671875
3.029296875
3.0309082031249996
3.0325195312499997
3.0325195312499997
3.0309082031249996
3.0325195312499997
3.0333251953125
3.0309082031249996
3.034130859375
3.0333251953125
0.38994140624999996
0.0249755859375
0.023364257812499997
0.0298095703125
0.024169921875
0.02578125
0.0281982421875
0.02578125
0.02578125
0.02578125
0.02578125
0.02578125
0.0926513671875
0.0749267578125
0.0217529296875
0.02578125
0.027392578124999997
0.024169921875
0.02900390625
0.0249755859375
0.022558593749999998
0.02578125
2.8633300781249997
3.0284912109374997
3.0317138671875
3.0309082031249996
3.029296875
3.0317138671875
3.0333251953125
3.0252685546875
3.0317138671875
3.0325195312499997
3.0325195312499997
3.0309082031249996
3.0309082031249996
2.979345703125
3.0325195312499997
3.0325195312499997
3.0325195312499997
3.034130859375
3.0301025390625
3.029296875
0.6292236328124999
0.0281982421875
0.026586914062499998
0.0249755859375
0.02578125
0.02578125
0.02578125
0.0281982421875
0.02578125
0.0249755859375
0.018530273437499998
0.078955078125
0.0555908203125
0.141796875
0.08701171875
0.026586914062499998
0.027392578124999997
0.023364257812499997
0.026586914062499998
0.0249755859375
0.022558593749999998
0.030615234374999998
2.1978515625
3.0389648437499996
3.0317138671875
3.0301025390625
3.0325195312499997
3.0325195312499997
3.029296875
3.0317138671875
3.0309082031249996
3.0317138671875
3.0317138671875
3.0333251953125
3.0301025390625
2.9882080078124997
3.0301025390625
3.0349365234374996
3.034130859375
3.0317138671875
3.0429931640624996
3.0309082031249996
1.98515625
0.0281982421875
0.0249755859375
0.02578125
0.024169921875
0.02578125
0.023364257812499997
0.022558593749999998
0.022558593749999998
0.030615234374999998
0.0249755859375
0.024169921875
0.0314208984375
0.07412109374999999
0.057202148437499996
0.02900390625
0.027392578124999997
0.02578125
0.02578125
0.0249755859375
0.02578125
0.02578125
1.05380859375
3.029296875
3.0317138671875
3.034130859375
3.0301025390625
3.0357421875
3.0333251953125
3.0301025390625
3.0333251953125
3.0309082031249996
3.034130859375
3.0325195312499997
3.0333251953125
3.029296875
3.0333251953125
3.0268798828124996
3.034130859375
3.034130859375
3.0309082031249996
3.034130859375
2.9559814453124997
0.02578125
0.0298095703125
0.0281982421875
0.026586914062499998
0.026586914062499998
0.0217529296875
0.02578125
0.026586914062499998
0.02578125
0.026586914062499998
0.0281982421875
0.02900390625
0.053173828124999996
0.0878173828125
0.023364257812499997
0.024169921875
0.026586914062499998
0.02578125
0.026586914062499998
0.0217529296875
0.023364257812499997
0.38349609375
3.0333251953125
3.0317138671875
3.0309082031249996
3.0309082031249996
3.0284912109374997
3.0325195312499997
3.029296875
3.0333251953125
3.029296875
3.0333251953125
3.0333251953125
3.034130859375
3.0309082031249996
3.0333251953125
3.0325195312499997
3.0309082031249996
3.034130859375
3.0301025390625
3.029296875
3.0284912109374997
0.5760498046875
0.02900390625
0.0249755859375
0.0249755859375
0.02578125
0.02578125
0.02900390625
0.0281982421875
0.02578125
0.022558593749999998
0.020947265625
0.027392578124999997
0.07009277343749999
0.1426025390625
0.026586914062499998
0.026586914062499998
0.0249755859375
0.024169921875
0.026586914062499998
0.0249755859375
0.026586914062499998
0.0249755859375
2.9624267578124996
3.0325195312499997
3.029296875
3.0325195312499997
3.0309082031249996
3.0333251953125
3.0333251953125
3.027685546875
3.0325195312499997
3.0309082031249996
3.0309082031249996
3.034130859375
3.0204345703124997
2.96484375
3.029296875
3.0333251953125
3.0309082031249996
3.0349365234374996
3.0325195312499997
3.0333251953125
0.90556640625
0.022558593749999998
0.027392578124999997
0.026586914062499998
0.0281982421875
0.0298095703125
0.02578125
0.026586914062499998
0.026586914062499998
0.02578125
0.02578125
0.02578125
0.104736328125
0.1998046875
0.20061035156249998
0.022558593749999998
0.024169921875
0.02578125
0.022558593749999998
0.02578125
0.0281982421875
0.026586914062499998
2.666748046875
3.0301025390625
3.0309082031249996
3.0357421875
3.0333251953125
3.0309082031249996
3.0325195312499997
3.02607421875
3.0317138671875
3.0333251953125
3.0317138671875
3.0333251953125
3.0333251953125
3.005126953125
3.0325195312499997
3.0333251953125
3.034130859375
3.0325195312499997
3.0325195312499997
3.0325195312499997
2.447607421875
0.026586914062499998
0.027392578124999997
0.018530273437499998
0.033837890625
0.0281982421875
0.023364257812499997
0.02900390625
0.026586914062499998
0.02578125
0.024169921875
0.022558593749999998
0.056396484375
0.1297119140625
0.15791015625
0.022558593749999998
