3.0252685546875
3.0325195312499997
3.0075439453125
3.005126953125
2.7046142578124996
2.462109375
2.30419921875
2.152734375
1.8828369140624999
1.8369140625
1.716064453125
1.5734619140625
3.0317138671875
3.0309082031249996
3.0325195312499997
3.0325195312499997
3.0309082031249996
2.0745849609375
0.024169921875
0.023364257812499997
0.02578125
0.027392578124999997
0.026586914062499998
0.027392578124999997
0.027392578124999997
0.45439453124999996
0.646142578125
0.7943847656249999
0.9071777343749999
1.2109130859375
1.2455566406249998
1.377685546875
1.4042724609375
0.0249755859375
0.026586914062499998
0.022558593749999998
0.02578125
0.42136230468749997
0.9724365234375
3.0349365234374996
3.0301025390625
3.0309082031249996
3.0325195312499997
3.0317138671875
2.9882080078124997
3.029296875
2.6925292968749996
2.760205078125
2.3904052734375
2.1889892578125
2.167236328125
1.8812255859375
1.7176757812499999
1.651611328125
3.029296875
3.0325195312499997
3.0333251953125
3.0325195312499997
2.5354248046874996
2.204296875
0.024169921875
0.0281982421875
0.0249755859375
0.026586914062499998
0.02900390625
0.024169921875
0.019335937499999997
0.42539062499999997
0.79921875
0.758935546875
0.9885498046875
1.1255126953124999
1.2536132812499998
1.405078125
1.45341796875
0.0249755859375
0.023364257812499997
0.0249755859375
0.02578125
0.5679931640625
1.123095703125
2.4725830078124997
3.0317138671875
3.0357421875
3.034130859375
3.0317138671875
3.0309082031249996
3.02607421875
2.5652343749999997
2.908447265625
2.3597900390624997
2.2244384765625
2.3783203125
1.8457763671874998
1.7490966796874998
1.6508056640625
2.1197021484375
3.0317138671875
3.034130859375
3.0333251953125
2.599072265625
2.205908203125
1.3768798828125
0.022558593749999998
0.02900390625
0.022558593749999998
0.026586914062499998
0.023364257812499997
0.022558593749999998
0.06767578125
0.3794677734375
0.62197265625
0.765380859375
0.485009765625
1.1883544921875
1.281005859375
1.348681640625
0.02578125
0.02578125
0.024169921875
0.023364257812499997
0.3029296875
0.733154296875
1.5525146484374999
3.0349365234374996
3.0317138671875
3.0317138671875
3.0268798828124996
3.0317138671875
2.9511474609375
2.874609375
2.979345703125
2.5201171875
2.31064453125
2.5934326171874997
2.038330078125
1.9102294921874998
1.8280517578125
1.7096191406249999
3.029296875
3.0333251953125
3.0325195312499997
3.029296875
3.0268798828124996
1.4735595703125
0.02578125
0.026586914062499998
0.0249755859375
0.02578125
0.0322265625
0.027392578124999997
0.022558593749999998
0.40927734374999997
0.6614501953124999
0.7822998046874999
0.5285156249999999
1.1690185546875
1.284228515625
1.36962890625
1.3881591796875
0.027392578124999997
0.023364257812499997
0.026586914062499998
0.0314208984375
0.10957031249999999
1.6306640625
3.0317138671875
3.0325195312499997
3.0325195312499997
3.034130859375
3.037353515625
2.96484375
3.0325195312499997
2.8456054687499996
2.81982421875
2.45888671875
2.2993652343749997
2.321923828125
1.9674316406249999
1.8046875
1.6862548828125
3.0317138671875
3.0309082031249996
3.0317138671875
3.0325195312499997
3.0317138671875
2.1164794921875
0.02900390625
0.02900390625
0.02578125
0.02578125
0.0217529296875
0.0249755859375
0.0281982421875
0.24492187499999998
0.36496582031249997
0.7283203125
0.8685058593749999
0.8193603515625
1.2447509765625
1.3301513671874998
1.33740234375
0.026586914062499998
0.026586914062499998
0.030615234374999998
0.026586914062499998
0.1506591796875
0.7742431640624999
2.4202148437499997
3.0309082031249996
3.0333251953125
3.0317138671875
3.029296875
3.027685546875
3.0317138671875
2.9100585937499996
2.9503417968749996
2.6208251953125
2.373486328125
2.075390625
2.018994140625
1.87236328125
1.7217041015624999
3.02607421875
3.0309082031249996
3.029296875
3.0325195312499997
2.7747070312499997
2.4548583984375
1.2423339843749999
0.024169921875
0.026586914062499998
0.0298095703125
0.027392578124999997
0.020947265625
0.02900390625
0.059619140625
0.35690917968749997
0.43505859375
0.5599365234375
0.594580078125
0.9418212890625
1.1029541015625
1.21171875
0.026586914062499998
0.024169921875
0.02900390625
0.027392578124999997
0.2908447265625
0.7283203125
1.61455078125
3.0317138671875
3.0325195312499997
3.0325195312499997
3.0349365234374996
3.0365478515624997
3.0333251953125
3.0333251953125
2.8721923828125
2.8045166015625
2.6079345703124996
2.3291748046875
2.3195068359374997
2.1809326171875
1.980322265625
3.0317138671875
3.034130859375
3.0325195312499997
3.0309082031249996
3.0309082031249996
3.0317138671875
1.6177734375
0.02578125
0.02900390625
0.024169921875
0.026586914062499998
0.0249755859375
0.027392578124999997
0.0281982421875
0.023364257812499997
0.2118896484375
0.45036621093749996
0.35288085937499997
0.605859375
0.8338623046875
0.91845703125
0.0298095703125
0.022558593749999998
0.02900390625
0.026586914062499998
0.0217529296875
0.026586914062499998
0.9257080078125
3.0349365234374996
3.0317138671875
3.0317138671875
3.0317138671875
3.0325195312499997
3.0325195312499997
3.0309082031249996
3.0244628906249997
2.9495361328125
2.9197265624999997
2.5894042968749997
2.6538574218749997
2.5467041015625
2.3549560546875
2.2341064453125
3.0317138671875
3.0325195312499997
3.0365478515624997
3.0309082031249996
3.0333251953125
2.5144775390625
0.023364257812499997
0.02578125
0.02578125
0.0249755859375
0.022558593749999998
0.022558593749999998
0.02578125
0.02900390625
0.0845947265625
0.18046874999999998
0.3923583984375
0.275537109375
0.468896484375
0.5905517578125
0.6437255859375
0.0281982421875
0.026586914062499998
0.02578125
0.02578125
0.0217529296875
0.02578125
1.46630859375
3.0333251953125
3.0284912109374997
3.0325195312499997
3.034130859375
3.0301025390625
3.0301025390625
3.0309082031249996
3.0333251953125
3.034130859375
2.9656494140625
2.92294921875
2.7739013671875
2.6748046875
2.5402587890625
3.0284912109374997
3.0317138671875
3.0284912109374997
3.029296875
3.0301025390625
3.0325195312499997
0.301318359375
0.0249755859375
0.027392578124999997
0.02900390625
0.0281982421875
0.027392578124999997
0.018530273437499998
0.02578125
0.0249755859375
0.027392578124999997
0.1329345703125
0.111181640625
0.3714111328125
0.47856445312499996
0.5083740234374999
0.02578125
0.026586914062499998
0.022558593749999998
0.026586914062499998
0.024169921875
0.0217529296875
0.023364257812499997
3.034130859375
3.0317138671875
3.034130859375
3.029296875
3.0357421875
3.029296875
3.0309082031249996
3.034130859375
3.037353515625
3.0268798828124996
2.8222412109375
2.91650390625
2.8617187499999996
2.7739013671875
3.0357421875
3.0301025390625
3.0317138671875
3.0325195312499997
3.0309082031249996
3.0325195312499997
2.0254394531249997
0.024169921875
0.02578125
0.024169921875
0.026586914062499998
0.02578125
0.0249755859375
0.0249755859375
0.024169921875
0.026586914062499998
0.0765380859375
0.2022216796875
0.23122558593749998
0.3158203125
0.3762451171875
0.0217529296875
0.026586914062499998
0.02578125
0.026586914062499998
0.026586914062499998
0.026586914062499998
0.02578125
3.0317138671875
3.029296875
3.029296875
3.0317138671875
3.0325195312499997
3.0325195312499997
3.0325195312499997
3.0309082031249996
3.0284912109374997
3.0309082031249996
3.0301025390625
2.8786376953125
2.9189208984375
2.8399658203125
2.6804443359374996
3.029296875
3.0325195312499997
3.0309082031249996
3.0301025390625
3.0301025390625
2.5869873046875
0.0249755859375
0.02900390625
0.026586914062499998
0.026586914062499998
0.02578125
0.0249755859375
0.0249755859375
0.0249755859375
0.02578125
0.030615234374999998
0.2698974609375
0.26828613281249997
0.3262939453125
0.38188476562499996
0.45439453124999996
0.0249755859375
0.026586914062499998
0.026586914062499998
0.0281982421875
0.027392578124999997
0.023364257812499997
0.02578125
3.029296875
3.0333251953125
3.0309082031249996
3.0309082031249996
3.0317138671875
3.0325195312499997
3.0349365234374996
3.034130859375
3.027685546875
3.0309082031249996
3.0325195312499997
2.9640380859374997
2.914892578125
2.8045166015625
3.0309082031249996
3.029296875
3.0325195312499997
3.0325195312499997
3.0301025390625
3.0325195312499997
1.554931640625
0.02578125
0.027392578124999997
0.0249755859375
0.027392578124999997
0.026586914062499998
0.02578125
0.02578125
0.0249755859375
0.02578125
0.1409912109375
0.3279052734375
0.3520751953125
0.46728515625
0.472119140625
0.026586914062499998
0.024169921875
0.026586914062499998
0.02900390625
0.024169921875
0.027392578124999997
0.0249755859375
3.029296875
3.0325195312499997
3.034130859375
3.0301025390625
3.0325195312499997
3.0325195312499997
3.0317138671875
3.0325195312499997
3.0357421875
3.0309082031249996
2.9753173828125
2.9422851562499996
2.9028076171875
2.7489257812499996
3.0325195312499997
3.0317138671875
3.0309082031249996
3.0349365234374996
3.0349365234374996
3.027685546875
1.7313720703125
0.027392578124999997
0.02900390625
0.023364257812499997
0.02578125
0.02578125
0.026586914062499998
0.020947265625
0.02900390625
0.023364257812499997
0.0636474609375
0.25217285156249997
0.26425781249999997
0.3158203125
0.43344726562499997
0.026586914062499998
0.022558593749999998
0.0217529296875
0.0249755859375
0.027392578124999997
0.026586914062499998
0.024169921875
3.0325195312499997
3.0309082031249996
3.0284912109374997
3.0317138671875
3.0357421875
3.0325195312499997
3.0309082031249996
3.0309082031249996
3.0309082031249996
3.0325195312499997
3.0309082031249996
2.9656494140625
2.8617187499999996
2.7932373046874996
2.8705810546875
3.0357421875
3.0333251953125
3.0317138671875
3.0317138671875
3.0301025390625
2.46533203125
0.02578125
0.023364257812499997
0.02578125
0.02578125
0.026586914062499998
0.026586914062499998
0.0298095703125
0.02578125
0.027392578124999997
0.0281982421875
0.02578125
0.20625
0.33676757812499997
0.4189453125
0.43344726562499997
0.027392578124999997
0.0281982421875
0.024169921875
0.026586914062499998
0.026586914062499998
0.027392578124999997
2.1213134765625
3.0268798828124996
3.0325195312499997
3.0325195312499997
3.0317138671875
3.0325195312499997
3.029296875
3.0301025390625
3.0333251953125
3.0333251953125
3.0244628906249997
3.0091552734375
2.92294921875
2.8472167968749997
2.721533203125
3.034130859375
3.034130859375
3.0325195312499997
3.0333251953125
3.0325195312499997
3.0268798828124996
0.6904541015625
0.026586914062499998
0.023364257812499997
0.030615234374999998
0.020947265625
0.02578125
0.022558593749999998
0.02578125
0.0249755859375
0.026586914062499998
0.0652587890625
0.2425048828125
0.2860107421875
0.3923583984375
0.4729248046875
0.026586914062499998
0.033032226562499996
0.0298095703125
0.026586914062499998
0.02578125
0.026586914062499998
0.027392578124999997
3.0284912109374997
3.0357421875
3.0325195312499997
3.0333251953125
3.0325195312499997
3.027685546875
3.0333251953125
3.0309082031249996
3.0325195312499997
3.034130859375
3.0309082031249996
2.908447265625
2.8544677734375
2.6876953125
3.0357421875
3.0309082031249996
3.0317138671875
3.034130859375
3.034130859375
3.0309082031249996
1.0997314453125
0.018530273437499998
0.023364257812499997
0.026586914062499998
0.027392578124999997
0.026586914062499998
0.0249755859375
0.0281982421875
0.02578125
0.024169921875
0.107958984375
0.030615234374999998
0.3037353515625
0.3955810546875
0.456005859375
0.026586914062499998
0.033837890625
0.02900390625
0.026586914062499998
0.027392578124999997
0.0281982421875
0.026586914062499998
3.0333251953125
3.027685546875
3.034130859375
3.0325195312499997
3.0333251953125
3.029296875
3.0317138671875
3.0317138671875
3.0309082031249996
3.0317138671875
3.0099609375
2.9430908203125
2.8560791015625
2.744091796875
3.0309082031249996
3.0309082031249996
3.0301025390625
3.0309082031249996
3.0317138671875
3.0325195312499997
2.2115478515625
0.023364257812499997
0.033837890625
0.027392578124999997
0.02578125
0.022558593749999998
0.0249755859375
0.0281982421875
0.027392578124999997
0.1087646484375
0.14018554687499998
0.026586914062499998
0.22236328125
0.4116943359375
0.4713134765625
0.02578125
0.019335937499999997
0.022558593749999998
0.0249755859375
0.0249755859375
0.0249755859375
0.02578125
3.0284912109374997
3.0309082031249996
3.0317138671875
3.0333251953125
3.029296875
3.0325195312499997
3.0301025390625
3.0333251953125
3.0317138671875
3.0317138671875
2.6377441406249997
3.0309082031249996
3.0325195312499997
2.9261718749999996
3.0309082031249996
3.0301025390625
3.027685546875
3.034130859375
3.0309082031249996
3.0325195312499997
2.8480224609375
0.027392578124999997
0.02578125
0.023364257812499997
0.026586914062499998
0.026586914062499998
0.02578125
0.023364257812499997
0.0217529296875
0.026586914062499998
0.08056640625
0.5067626953125
0.1232666015625
0.310986328125
0.36093749999999997
0.020947265625
0.024169921875
0.0249755859375
0.02900390625
0.0249755859375
0.0249755859375
0.020947265625
2.7529541015624996
3.0317138671875
3.0301025390625
3.0325195312499997
3.0309082031249996
3.0333251953125
3.0333251953125
3.029296875
3.0389648437499996
3.0252685546875
2.785986328125
3.027685546875
2.9640380859374997
2.9285888671875
2.7867919921874997
3.0325195312499997
3.0325195312499997
3.0309082031249996
3.0317138671875
3.029296875
3.0333251953125
0.410888671875
0.0298095703125
0.0298095703125
0.0249755859375
0.009667968749999999
0.02900390625
0.02578125
0.02578125
0.024169921875
0.027392578124999997
0.045117187499999996
0.02900390625
0.07412109374999999
0.10554199218749999
0.133740234375
0.026586914062499998
0.02578125
0.02578125
0.027392578124999997
0.0201416015625
0.0281982421875
0.03544921875
2.101171875
3.0309082031249996
3.0357421875
3.0309082031249996
3.0365478515624997
3.034130859375
3.0309082031249996
3.029296875
3.0325195312499997
3.0325195312499997
3.0107666015624996
3.027685546875
3.02607421875
2.9358398437499997
3.0333251953125
3.0325195312499997
3.0333251953125
3.0301025390625
3.0333251953125
3.034130859375
2.512060546875
0.19497070312499998
0.02578125
0.0298095703125
0.0249755859375
0.0281982421875
0.0281982421875
0.024169921875
0.023364257812499997
0.022558593749999998
0.0217529296875
0.02578125
0.0249755859375
0.026586914062499998
0.024169921875
0.026586914062499998
0.02578125
0.0217529296875
0.02578125
0.02578125
0.026586914062499998
0.0281982421875
0.024169921875
1.496923828125
2.4749999999999996
3.0317138671875
3.0301025390625
3.0325195312499997
3.0325195312499997
3.034130859375
3.029296875
3.0333251953125
3.0325195312499997
3.0325195312499997
3.0309082031249996
2.9882080078124997
3.0301025390625
3.0309082031249996
3.034130859375
3.0309082031249996
3.034130859375
3.0325195312499997
3.0309082031249996
0.36577148437499996
0.026586914062499998
0.02578125
0.0217529296875
0.02578125
0.0281982421875
0.02578125
0.0298095703125
0.02578125
0.0201416015625
0.026586914062499998
0.023364257812499997
0.020947265625
0.02578125
0.022558593749999998
0.02578125
0.027392578124999997
0.0249755859375
0.026586914062499998
0.023364257812499997
0.0217529296875
0.026586914062499998
1.095703125
2.1132568359375
2.9922363281249997
3.0325195312499997
3.0309082031249996
3.0325195312499997
3.0325195312499997
3.0325195312499997
3.0317138671875
3.029296875
3.0309082031249996
3.0357421875
3.0107666015624996
2.979345703125
3.0325195312499997
3.0325195312499997
3.0309082031249996
3.0309082031249996
3.0309082031249996
3.0317138671875
0.646142578125
0.02578125
0.02578125
0.0217529296875
0.024169921875
0.0249755859375
0.02578125
0.022558593749999998
0.022558593749999998
0.0249755859375
0.362548828125
0.024169921875
0.027392578124999997
0.042700195312499994
0.02578125
0.023364257812499997
0.024169921875
0.026586914062499998
0.02578125
0.02578125
0.0249755859375
0.026586914062499998
0.0217529296875
1.77568359375
2.8850830078125
3.0325195312499997
3.0317138671875
3.0357421875
3.0325195312499997
3.027685546875
3.0357421875
3.0333251953125
3.0333251953125
3.034130859375
3.0317138671875
2.995458984375
3.0317138671875
3.034130859375
3.0317138671875
3.0333251953125
3.0325195312499997
3.0357421875
2.4604980468749997
0.25217285156249997
0.0217529296875
0.02900390625
0.02578125
0.026586914062499998
0.0249755859375
0.0281982421875
0.0249755859375
0.027392578124999997
0.02578125
0.027392578124999997
0.02578125
0.033837890625
0.02900390625
0.0249755859375
0.02900390625
0.02578125
0.0281982421875
0.023364257812499997
0.024169921875
0.026586914062499998
0.027392578124999997
1.6822265625
2.5475097656249996
3.029296875
3.0309082031249996
3.0333251953125
3.0333251953125
3.0301025390625
3.0333251953125
3.0317138671875
3.0309082031249996
3.034130859375
3.0325195312499997
3.0083496093749997
3.029296875
3.0309082031249996
3.0333251953125
3.0301025390625
3.0325195312499997
3.0325195312499997
3.0317138671875
0.31743164062499996
0.0281982421875
0.027392578124999997
0.0249755859375
0.02578125
0.02578125
0.026586914062499998
0.022558593749999998
0.02578125
0.02578125
0.0281982421875
0.023364257812499997
0.02578125
0.0249755859375
0.024169921875
0.026586914062499998
0.02578125
0.026586914062499998
0.023364257812499997
0.024169921875
0.02578125
0.02578125
1.0803955078125
2.325146484375
3.0284912109374997
3.0309082031249996
3.0333251953125
3.029296875
3.0309082031249996
3.0389648437499996
3.034130859375
3.0309082031249996
3.034130859375
3.0325195312499997
3.0268798828124996
2.9608154296875
3.0309082031249996
3.0325195312499997
3.0317138671875
3.027685546875
3.0333251953125
3.037353515625
0.7395996093749999
0.0249755859375
0.0249755859375
0.0249755859375
0.026586914062499998
0.024169921875
0.024169921875
0.026586914062499998
0.024169921875
0.02578125
0.0281982421875
0.026586914062499998
0.026586914062499998
0.02900390625
0.0249755859375
0.0201416015625
0.033837890625
0.022558593749999998
0.02900390625
0.024169921875
0.024169921875
0.026586914062499998
0.0249755859375
1.94970703125
2.9712890625
3.0333251953125
3.0309082031249996
3.0333251953125
3.0317138671875
3.0325195312499997
3.029296875
3.0325195312499997
3.0325195312499997
3.0325195312499997
3.029296875
3.01318359375
3.0301025390625
3.0309082031249996
3.0317138671875
3.0228515624999996
3.029296875
3.0317138671875
1.8377197265624998
0.03544921875
0.0281982421875
0.02578125
0.0249755859375
0.026586914062499998
0.02578125
0.0249755859375
0.026586914062499998
0.02578125
0.027392578124999997
0.026586914062499998
0.0249755859375
0.027392578124999997
0.0322265625
0.024169921875
0.02578125
0.0249755859375
0.02578125
0.0169189453125
0.0298095703125
0.027392578124999997
0.020947265625
1.6459716796875
2.4911132812499996
2.9882080078124997
3.0301025390625
3.0325195312499997
3.0309082031249996
3.0333251953125
3.0317138671875
3.034130859375
3.029296875
3.0325195312499997
3.0301025390625
3.005126953125
3.029296875
3.0309082031249996
3.027685546875
3.0301025390625
3.0309082031249996
3.0357421875
3.0301025390625
0.32548828124999996
0.0281982421875
0.02900390625
0.0249755859375
0.0249755859375
0.0169189453125
0.024169921875
0.0298095703125
0.024169921875
0.020947265625
0.0249755859375
0.026586914062499998
0.02900390625
0.030615234374999998
0.02578125
0.02578125
0.02578125
0.02578125
0.02578125
0.023364257812499997
0.02578125
0.024169921875
1.2286376953125
2.3235351562499997
2.940673828125
3.0317138671875
3.0309082031249996
3.0325195312499997
3.0317138671875
3.0325195312499997
3.0317138671875
3.0333251953125
3.0333251953125
3.0333251953125
3.034130859375
3.029296875
3.0317138671875
3.0317138671875
3.029296875
3.0333251953125
3.0309082031249996
3.0317138671875
1.103759765625
0.030615234374999998
0.02900390625
0.023364257812499997
0.0249755859375
0.024169921875
0.0249755859375
0.02578125
0.0217529296875
0.02578125
0.026586914062499998
0.0249755859375
0.0298095703125
0.026586914062499998
0.022558593749999998
0.0249755859375
0.023364257812499997
0.0249755859375
0.0249755859375
0.026586914062499998
0.026586914062499998
0.02578125
1.1947998046875
2.10439453125
2.9906249999999996
3.0317138671875
3.0309082031249996
3.0333251953125
3.0333251953125
3.0333251953125
3.0301025390625
2.7497314453125
3.0317138671875
3.029296875
3.0268798828124996
2.98095703125
3.0325195312499997
3.0301025390625
3.027685546875
3.0333251953125
3.0301025390625
3.0325195312499997
1.3301513671874998
0.1740234375
0.02578125
0.023364257812499997
0.026586914062499998
0.0249755859375
0.022558593749999998
0.026586914062499998
0.0217529296875
0.026586914062499998
0.072509765625
0.02900390625
0.023364257812499997
0.027392578124999997
0.027392578124999997
0.022558593749999998
0.0249755859375
0.023364257812499997
0.027392578124999997
0.027392578124999997
0.02578125
0.038671874999999994
0.02578125
1.9545410156249998
2.7013916015625
3.0325195312499997
3.0309082031249996
3.034130859375
3.0317138671875
3.029296875
3.02607421875
3.0309082031249996
3.0301025390625
3.0309082031249996
3.0317138671875
3.018017578125
3.0317138671875
3.0317138671875
3.0357421875
3.0349365234374996
3.034130859375
3.034130859375
3.0325195312499997
0.2731201171875
0.02578125
0.02578125
0.02578125
0.026586914062499998
0.0249755859375
0.026586914062499998
0.02578125
0.0298095703125
0.027392578124999997
0.026586914062499998
0.0378662109375
0.0652587890625
0.046728515624999994
0.023364257812499997
0.0249755859375
0.026586914062499998
0.0298095703125
0.027392578124999997
0.027392578124999997
0.0281982421875
0.0249755859375
1.5033691406249998
2.4967529296874997
3.027685546875
3.0252685546875
3.0244628906249997
3.0309082031249996
3.0317138671875
3.02607421875
3.0333251953125
3.0349365234374996
3.0325195312499997
3.0325195312499997
3.029296875
3.0325195312499997
3.0301025390625
3.0268798828124996
3.0325195312499997
3.0309082031249996
3.0357421875
3.0333251953125
0.8499755859375
0.0281982421875
0.0217529296875
0.02578125
0.022558593749999998
0.033032226562499996
0.02578125
0.026586914062499998
0.0249755859375
0.02578125
0.026586914062499998
0.027392578124999997
0.0322265625
0.027392578124999997
0.026586914062499998
0.02578125
0.023364257812499997
0.026586914062499998
0.026586914062499998
0.020947265625
0.027392578124999997
0.022558593749999998
1.171435546875
2.257470703125
3.0333251953125
3.0309082031249996
3.034130859375
3.0317138671875
3.029296875
3.0333251953125
3.0301025390625
3.0309082031249996
3.0309082031249996
3.029296875
3.0043212890624997
2.9422851562499996
3.0381591796875
3.0309082031249996
3.029296875
3.0325195312499997
3.034130859375
3.0268798828124996
1.1351806640625
0.02578125
0.024169921875
0.02578125
0.02578125
0.026586914062499998
0.026586914062499998
0.02578125
0.0249755859375
0.0249755859375
0.18046874999999998
0.0281982421875
0.026586914062499998
0.0322265625
0.026586914062499998
0.023364257812499997
0.026586914062499998
0.02578125
0.02578125
0.02578125
0.022558593749999998
0.02578125
0.02578125
1.9360107421875
2.6788330078125
3.0365478515624997
3.034130859375
3.0284912109374997
3.0309082031249996
3.0357421875
3.0357421875
3.029296875
3.0349365234374996
3.0309082031249996
3.0309082031249996
3.011572265625
3.0284912109374997
3.0317138671875
3.0325195312499997
3.0333251953125
3.0301025390625
3.0325195312499997
3.0309082031249996
0.0281982421875
0.02578125
0.0249755859375
0.02578125
0.027392578124999997
0.024169921875
0.024169921875
0.02578125
0.026586914062499998
0.0249755859375
0.0281982421875
0.022558593749999998
0.02578125
0.019335937499999997
0.026586914062499998
0.02578125
0.026586914062499998
0.011279296874999999
0.0249755859375
0.027392578124999997
0.0249755859375
0.026586914062499998
1.703173828125
2.57490234375
3.0325195312499997
3.0333251953125
3.034130859375
3.0301025390625
3.0325195312499997
3.0333251953125
3.0333251953125
3.0357421875
3.0317138671875
3.0325195312499997
2.977734375
3.0309082031249996
3.0309082031249996
3.0325195312499997
3.034130859375
3.0333251953125
3.034130859375
3.0309082031249996
0.6638671875
0.0249755859375
0.027392578124999997
0.027392578124999997
0.027392578124999997
0.0249755859375
0.024169921875
0.02578125
0.026586914062499998
0.024169921875
0.0249755859375
0.0281982421875
0.02578125
0.026586914062499998
0.02578125
0.0249755859375
0.023364257812499997
0.027392578124999997
0.02578125
0.026586914062499998
0.026586914062499998
0.02578125
1.0433349609375
2.230078125
3.0091552734375
3.0317138671875
3.0349365234374996
3.0333251953125
3.0317138671875
3.0309082031249996
3.0309082031249996
3.0325195312499997
3.0309082031249996
3.027685546875
2.9946533203124996
2.9825683593749996
3.0301025390625
3.0301025390625
3.0365478515624997
3.029296875
3.0309082031249996
3.0333251953125
1.2495849609374998
0.02578125
0.024169921875
0.030615234374999998
0.026586914062499998
0.0249755859375
0.027392578124999997
0.023364257812499997
0.0281982421875
0.0249755859375
0.0281982421875
0.026586914062499998
0.0249755859375
0.0249755859375
0.0217529296875
0.022558593749999998
0.0249755859375
0.0217529296875
0.027392578124999997
0.02578125
0.024169921875
0.022558593749999998
0.026586914062499998
2.1841552734375
2.7755126953125
3.0333251953125
3.0317138671875
3.0317138671875
3.0301025390625
3.0333251953125
3.0357421875
3.0309082031249996
3.0309082031249996
3.0325195312499997
3.029296875
2.9994873046875
3.029296875
3.02607421875
3.0325195312499997
3.0325195312499997
3.0309082031249996
3.0309082031249996
1.8417480468749998
0.0281982421875
0.026586914062499998
0.0249755859375
0.022558593749999998
0.023364257812499997
0.0217529296875
0.027392578124999997
0.027392578124999997
0.026586914062499998
0.02578125
0.02578125
0.02578125
0.0249755859375
0.02578125
0.0249755859375
0.026586914062499998
0.0249755859375
0.0217529296875
0.0298095703125
0.0249755859375
0.026586914062499998
0.026586914062499998
1.4461669921875
2.2760009765625
2.7851806640624996
3.0325195312499997
3.0301025390625
3.0309082031249996
3.0301025390625
3.029296875
3.0317138671875
3.0301025390625
3.0228515624999996
3.02607421875
2.9664550781249996
3.0301025390625
3.0333251953125
3.0317138671875
3.029296875
3.034130859375
3.0325195312499997
3.0349365234374996
0.3714111328125
0.0249755859375
0.024169921875
0.026586914062499998
0.024169921875
0.02578125
0.0249755859375
0.0249755859375
0.024169921875
0.02578125
0.022558593749999998
0.0249755859375
0.026586914062499998
0.02578125
0.023364257812499997
0.0281982421875
0.0281982421875
0.022558593749999998
0.023364257812499997
0.023364257812499997
0.02578125
0.0298095703125
0.9482666015625
2.0431640625
2.7819580078125
3.0309082031249996
3.0317138671875
3.037353515625
3.0357421875
3.0309082031249996
3.0268798828124996
3.0309082031249996
3.0309082031249996
3.0325195312499997
2.9503417968749996
3.0301025390625
3.029296875
3.027685546875
3.0301025390625
3.0317138671875
3.0317138671875
3.0365478515624997
0.91201171875
0.022558593749999998
0.023364257812499997
0.0298095703125
0.02578125
0.0217529296875
0.0249755859375
0.019335937499999997
0.02578125
0.02578125
0.022558593749999998
0.02578125
0.0217529296875
0.027392578124999997
0.02900390625
0.026586914062499998
0.0249755859375
0.0249755859375
0.026586914062499998
0.023364257812499997
0.026586914062499998
0.027392578124999997
0.0281982421875
1.66611328125
2.6216308593749997
3.0268798828124996
3.0325195312499997
3.0309082031249996
3.0317138671875
3.034130859375
3.029296875
2.850439453125
3.0333251953125
3.0317138671875
3.0172119140625
2.963232421875
3.0325195312499997
3.0317138671875
3.0325195312499997
3.0317138671875
3.0325195312499997
3.0317138671875
1.0376953125
0.026586914062499998
0.0281982421875
0.0249755859375
0.02900390625
0.02578125
0.023364257812499997
0.024169921875
0.02578125
0.026586914062499998
0.02578125
0.0249755859375
0.026586914062499998
0.023364257812499997
0.022558593749999998
0.027392578124999997
0.026586914062499998
0.02578125
0.02578125
0.02578125
0.0249755859375
0.027392578124999997
0.0249755859375
2.012548828125
2.6876953125
3.0301025390625
3.0357421875
3.0325195312499997
3.0325195312499997
3.0325195312499997
3.0309082031249996
3.0268798828124996
2.953564453125
3.021240234375
2.99384765625
2.9277832031249997
3.0325195312499997
3.0317138671875
3.0333251953125
3.034130859375
3.0309082031249996
3.034130859375
3.0325195312499997
0.0829833984375
0.024169921875
0.02578125
0.023364257812499997
0.02578125
0.026586914062499998
0.026586914062499998
0.026586914062499998
0.023364257812499997
0.02578125
0.023364257812499997
0.027392578124999997
0.02578125
0.0249755859375
0.023364257812499997
0.023364257812499997
0.0217529296875
0.02578125
0.02578125
0.0217529296875
0.026586914062499998
0.02578125
2.096337890625
3.0204345703124997
3.0333251953125
3.0317138671875
3.0317138671875
3.0325195312499997
3.0301025390625
3.0325195312499997
3.029296875
2.9350341796875
3.0301025390625
3.0301025390625
2.937451171875
3.0317138671875
3.0325195312499997
3.0301025390625
3.0333251953125
3.0284912109374997
3.0309082031249996
3.027685546875
0.9547119140625
0.026586914062499998
0.026586914062499998
0.0217529296875
0.0249755859375
0.0169189453125
0.026586914062499998
0.0249755859375
0.0249755859375
0.033032226562499996
0.027392578124999997
0.023364257812499997
0.024169921875
0.026586914062499998
0.026586914062499998
0.027392578124999997
0.0217529296875
0.027392578124999997
0.0281982421875
0.0249755859375
0.026586914062499998
0.027392578124999997
2.0947265625
3.034130859375
3.0333251953125
3.0325195312499997
3.0357421875
3.0309082031249996
3.0317138671875
3.0268798828124996
3.034130859375
3.0317138671875
3.0099609375
3.0043212890624997
2.9559814453124997
2.8657470703124996
3.0325195312499997
3.0301025390625
3.029296875
3.0325195312499997
3.0325195312499997
3.0317138671875
1.0997314453125
0.020947265625
0.02578125
0.027392578124999997
0.026586914062499998
0.026586914062499998
0.02578125
0.0314208984375
0.024169921875
0.0249755859375
0.08540039062499999
0.02578125
0.022558593749999998
0.0249755859375
0.02578125
0.02578125
0.023364257812499997
0.022558593749999998
0.026586914062499998
0.02578125
0.02578125
0.027392578124999997
1.7724609375
3.0268798828124996
3.0325195312499997
3.0365478515624997
3.029296875
3.0309082031249996
3.0301025390625
3.0317138671875
3.0333251953125
3.0317138671875
3.02607421875
2.95517578125
2.889111328125
2.7988769531249997
3.0365478515624997
3.0325195312499997
3.0317138671875
3.0309082031249996
3.0309082031249996
3.0301025390625
2.848828125
0.026586914062499998
0.0249755859375
0.02900390625
0.0249755859375
0.02900390625
0.02578125
0.0249755859375
0.02578125
0.026586914062499998
0.024169921875
0.023364257812499997
0.0249755859375
0.026586914062499998
0.022558593749999998
0.026586914062499998
0.026586914062499998
0.02578125
0.02900390625
0.027392578124999997
0.026586914062499998
0.02578125
1.8626953124999999
2.8899169921874996
3.0309082031249996
3.0333251953125
3.029296875
3.0325195312499997
3.0333251953125
3.0325195312499997
3.0317138671875
3.0317138671875
2.900390625
2.8874999999999997
2.8713867187499997
2.7448974609374996
3.0357421875
3.0317138671875
3.0317138671875
3.0309082031249996
3.034130859375
3.029296875
2.9986816406249996
0.4962890625
0.024169921875
0.024169921875
0.024169921875
0.027392578124999997
0.026586914062499998
0.02578125
0.02578125
0.0249755859375
0.02578125
0.023364257812499997
0.0249755859375
0.022558593749999998
0.02578125
0.02578125
0.023364257812499997
0.02578125
0.0281982421875
0.02578125
0.0249755859375
0.02578125
0.02900390625
2.302587890625
3.0317138671875
3.0317138671875
3.0349365234374996
3.034130859375
3.0389648437499996
3.0325195312499997
3.034130859375
3.0317138671875
3.0325195312499997
3.0309082031249996
3.003515625
2.8979736328124996
2.9261718749999996
3.0309082031249996
3.0317138671875
3.0325195312499997
3.0317138671875
3.0309082031249996
3.0317138671875
1.00224609375
0.026586914062499998
0.027392578124999997
0.02578125
0.023364257812499997
0.0281982421875
0.027392578124999997
0.02578125
0.023364257812499997
0.023364257812499997
0.02578125
0.024169921875
0.02578125
0.0322265625
0.0249755859375
0.02578125
0.0249755859375
0.0217529296875
0.0298095703125
0.02578125
0.02578125
0.02578125
1.6185791015625
3.029296875
3.0301025390625
3.0333251953125
3.0325195312499997
3.0325195312499997
3.027685546875
3.0309082031249996
3.0349365234374996
3.021240234375
3.0333251953125
2.9100585937499996
2.8874999999999997
2.7900146484375
3.0357421875
3.0317138671875
3.0309082031249996
3.0317138671875
3.034130859375
3.0325195312499997
1.0658935546875
0.0249755859375
0.0281982421875
0.030615234374999998
0.02578125
0.026586914062499998
0.027392578124999997
0.02578125
0.026586914062499998
0.02900390625
0.027392578124999997
0.026586914062499998
0.0281982421875
0.027392578124999997
0.024169921875
0.02578125
0.015307617187499999
0.024169921875
0.026586914062499998
0.026586914062499998
0.026586914062499998
0.02578125
1.6588623046875
3.0002929687499997
3.029296875
3.027685546875
3.0325195312499997
3.0317138671875
3.0325195312499997
3.0284912109374997
3.0309082031249996
3.0244628906249997
3.027685546875
2.9076416015624997
2.8351318359374997
2.7585937499999997
3.0309082031249996
3.034130859375
3.0317138671875
3.0309082031249996
3.0325195312499997
3.0309082031249996
1.6725585937499998
0.024169921875
0.0249755859375
0.0249755859375
0.0249755859375
0.024169921875
0.02578125
0.026586914062499998
0.0281982421875
0.026586914062499998
0.0249755859375
0.0281982421875
0.0217529296875
0.02578125
0.027392578124999997
0.02900390625
0.0217529296875
0.0249755859375
0.022558593749999998
0.02578125
0.026586914062499998
0.024169921875
0.023364257812499997
2.6143798828125
3.0349365234374996
3.0301025390625
3.0333251953125
3.029296875
3.0333251953125
3.0333251953125
3.0333251953125
3.027685546875
3.0325195312499997
3.01318359375
2.8963623046875
2.7916259765625
3.0301025390625
3.0325195312499997
3.0317138671875
3.0317138671875
3.0309082031249996
3.0325195312499997
3.0325195312499997
0.720263671875
0.0217529296875
0.026586914062499998
0.023364257812499997
0.0298095703125
0.023364257812499997
0.026586914062499998
0.02578125
0.0249755859375
0.0217529296875
0.02578125
0.0249755859375
0.027392578124999997
0.023364257812499997
0.02578125
0.022558593749999998
0.026586914062499998
0.0281982421875
0.0217529296875
0.026586914062499998
0.026586914062499998
0.0281982421875
2.0697509765624997
3.0349365234374996
3.0333251953125
3.0309082031249996
3.0333251953125
3.0325195312499997
3.0309082031249996
3.0317138671875
3.0317138671875
2.6377441406249997
3.01962890625
2.9712890625
2.85849609375
2.7674560546875
3.0317138671875
3.0301025390625
3.0357421875
3.029296875
3.0317138671875
3.0309082031249996
0.9821044921875
0.027392578124999997
0.024169921875
0.023364257812499997
0.026586914062499998
0.0281982421875
0.02578125
0.02578125
0.023364257812499997
0.026586914062499998
0.09748535156249999
0.022558593749999998
0.0249755859375
0.026586914062499998
0.022558593749999998
0.024169921875
0.024169921875
0.027392578124999997
0.026586914062499998
0.026586914062499998
0.02578125
0.027392578124999997
1.6886718749999998
2.8681640625
3.0309082031249996
3.0333251953125
3.0284912109374997
3.02607421875
3.0333251953125
3.0333251953125
3.0309082031249996
3.0325195312499997
2.9817626953125
2.8617187499999996
2.827880859375
2.711865234375
3.0309082031249996
3.0325195312499997
3.0357421875
3.0357421875
3.0309082031249996
3.0309082031249996
0.994189453125
0.02578125
0.02578125
0.02578125
0.0249755859375
0.022558593749999998
0.022558593749999998
0.027392578124999997
0.026586914062499998
0.0249755859375
0.0249755859375
0.033837890625
0.02578125
0.02900390625
0.02900390625
0.02578125
0.02578125
0.022558593749999998
0.02578125
0.027392578124999997
0.026586914062499998
0.0249755859375
1.9634033203124999
2.7102539062499997
3.0365478515624997
3.0325195312499997
3.0325195312499997
3.0325195312499997
3.0333251953125
3.0333251953125
3.0333251953125
3.029296875
2.784375
2.9036132812499997
2.8415771484374996
2.771484375
3.0301025390625
3.0301025390625
3.0325195312499997
3.0284912109374997
3.0317138671875
3.0333251953125
3.0309082031249996
0.7001220703125
0.02578125
0.024169921875
0.026586914062499998
0.02578125
0.0217529296875
0.02578125
0.026586914062499998
0.026586914062499998
0.024169921875
0.0281982421875
0.0394775390625
0.022558593749999998
0.02578125
0.02578125
0.027392578124999997
0.02900390625
0.026586914062499998
0.026586914062499998
0.024169921875
0.027392578124999997
0.02578125
2.2663330078125
3.0349365234374996
3.029296875
3.0301025390625
3.029296875
3.034130859375
3.029296875
3.0317138671875
3.0325195312499997
3.043798828125
2.872998046875
2.8359375
2.7730957031249996
2.6643310546874996
3.0301025390625
3.0317138671875
3.0357421875
3.0309082031249996
3.0325195312499997
3.0309082031249996
1.0111083984375
0.02578125
0.024169921875
0.027392578124999997
0.027392578124999997
0.02578125
0.026586914062499998
0.026586914062499998
0.02578125
0.026586914062499998
0.027392578124999997
0.0249755859375
0.0249755859375
0.030615234374999998
0.027392578124999997
0.0281982421875
0.026586914062499998
0.024169921875
0.022558593749999998
0.022558593749999998
0.024169921875
0.02578125
2.2260498046875
3.0301025390625
3.0317138671875
3.034130859375
3.0317138671875
3.0333251953125
3.0301025390625
3.0309082031249996
3.0301025390625
3.0301025390625
2.811767578125
2.8955566406249997
2.8311035156249997
2.6941406249999997
3.0325195312499997
3.0325195312499997
3.0325195312499997
3.0309082031249996
3.0325195312499997
3.0301025390625
2.6876953125
0.026586914062499998
0.023364257812499997
0.0249755859375
0.026586914062499998
0.026586914062499998
0.02578125
0.026586914062499998
0.0249755859375
0.0249755859375
0.0
0.019335937499999997
0.023364257812499997
0.027392578124999997
0.026586914062499998
0.02578125
0.02578125
0.024169921875
0.02578125
0.02900390625
0.0281982421875
0.026586914062499998
1.84013671875
3.029296875
3.034130859375
3.0309082031249996
3.0317138671875
3.0333251953125
3.0325195312499997
3.0317138671875
3.0365478515624997
3.0317138671875
3.029296875
2.9455078125
2.9020019531249996
2.7730957031249996
3.0325195312499997
3.0317138671875
3.0325195312499997
3.0333251953125
3.0309082031249996
3.029296875
2.75537109375
0.310986328125
0.02578125
0.0249755859375
0.026586914062499998
0.02900390625
0.02578125
0.027392578124999997
0.020947265625
0.0249755859375
0.026586914062499998
0.026586914062499998
0.0281982421875
0.0249755859375
0.023364257812499997
0.023364257812499997
0.026586914062499998
0.0249755859375
0.024169921875
0.0249755859375
0.024169921875
0.0249755859375
0.026586914062499998
2.3984619140625
3.0284912109374997
3.0317138671875
3.0333251953125
3.0333251953125
3.0317138671875
3.0309082031249996
3.0317138671875
3.0309082031249996
3.0349365234374996
3.0083496093749997
2.8633300781249997
2.7545654296874997
3.034130859375
3.0333251953125
3.0317138671875
3.0333251953125
3.0301025390625
3.0284912109374997
3.0325195312499997
0.791162109375
0.030615234374999998
0.0201416015625
0.022558593749999998
0.026586914062499998
0.02578125
0.026586914062499998
0.02578125
0.0201416015625
0.022558593749999998
0.0298095703125
0.0249755859375
0.023364257812499997
0.024169921875
0.02900390625
0.0281982421875
0.0249755859375
0.026586914062499998
0.02578125
0.0298095703125
0.0249755859375
0.0249755859375
2.389599609375
3.0317138671875
3.0349365234374996
3.0284912109374997
3.0325195312499997
3.0325195312499997
3.0349365234374996
3.0317138671875
3.0333251953125
2.9745117187499996
2.9511474609375
2.8874999999999997
2.8157958984375
2.7263671874999997
3.0309082031249996
3.0301025390625
3.0309082031249996
3.0309082031249996
3.0317138671875
3.0301025390625
0.9949951171875
0.0217529296875
0.026586914062499998
0.0249755859375
0.0201416015625
0.024169921875
0.02578125
0.024169921875
0.0249755859375
0.024169921875
0.02578125
0.0249755859375
0.02578125
0.022558593749999998
0.0249755859375
0.022558593749999998
0.0249755859375
0.027392578124999997
0.02578125
0.027392578124999997
0.02578125
0.0249755859375
1.7096191406249999
2.979345703125
3.0317138671875
3.0301025390625
3.034130859375
3.0309082031249996
3.0333251953125
3.0317138671875
3.0301025390625
3.0027099609374996
3.0389648437499996
2.866552734375
2.8166015625
2.6748046875
3.0325195312499997
3.0268798828124996
3.0325195312499997
3.0309082031249996
3.0301025390625
3.0309082031249996
1.4477783203124999
0.0620361328125
0.0249755859375
0.026586914062499998
0.023364257812499997
0.0249755859375
0.0281982421875
0.026586914062499998
0.02578125
0.024169921875
0.024169921875
0.02900390625
0.0217529296875
0.0298095703125
0.0249755859375
0.022558593749999998
0.02900390625
0.02578125
0.027392578124999997
0.02578125
0.02578125
0.02578125
0.26828613281249997
2.6039062499999996
3.0357421875
3.0325195312499997
3.0325195312499997
3.0309082031249996
3.0317138671875
3.0317138671875
3.034130859375
3.0317138671875
3.011572265625
2.947119140625
2.86494140625
2.7610107421874996
3.0301025390625
3.0325195312499997
3.0301025390625
3.0309082031249996
3.0317138671875
3.0309082031249996
3.0333251953125
0.5712158203125
0.02578125
0.0346435546875
0.0249755859375
0.022558593749999998
0.0249755859375
0.02578125
0.026586914062499998
0.02578125
0.02578125
0.022558593749999998
0.0249755859375
0.0249755859375
0.024169921875
0.0249755859375
0.027392578124999997
0.02578125
0.020947265625
0.026586914062499998
0.02578125
0.0217529296875
0.020947265625
2.3001708984375
3.029296875
3.0284912109374997
3.034130859375
3.0333251953125
3.0333251953125
3.029296875
3.034130859375
3.0325195312499997
2.560400390625
2.9946533203124996
2.9269775390625
2.7779296875
3.0309082031249996
3.029296875
3.0317138671875
3.029296875
3.0317138671875
3.0309082031249996
3.0301025390625
0.7025390625
0.026586914062499998
0.02578125
0.02578125
0.0249755859375
0.0249755859375
0.02900390625
0.026586914062499998
0.0249755859375
0.02578125
0.030615234374999998
0.030615234374999998
0.02578125
0.023364257812499997
0.0249755859375
0.02578125
0.026586914062499998
0.02578125
0.02900390625
0.033032226562499996
0.024169921875
0.023364257812499997
2.051220703125
3.0317138671875
3.0317138671875
3.0325195312499997
3.0325195312499997
3.0309082031249996
3.0309082031249996
3.0301025390625
3.0325195312499997
2.7505371093749997
3.027685546875
2.9447021484375
2.860107421875
2.7569824218749996
3.0333251953125
3.0325195312499997
3.0301025390625
3.0309082031249996
3.0309082031249996
3.0309082031249996
1.1077880859375
0.02578125
0.024169921875
0.030615234374999998
0.024169921875
0.027392578124999997
0.027392578124999997
0.0281982421875
0.0281982421875
0.024169921875
0.02578125
0.023364257812499997
0.026586914062499998
0.026586914062499998
0.0249755859375
0.0249755859375
0.0314208984375
0.022558593749999998
0.02900390625
0.0249755859375
0.0281982421875
0.02578125
2.2469970703124997
2.9108642578125
3.0325195312499997
3.0325195312499997
3.029296875
3.0349365234374996
3.0333251953125
2.9946533203124996
3.0317138671875
3.0123779296874997
2.7424804687499997
2.874609375
2.7932373046874996
2.7102539062499997
3.0325195312499997
3.0325195312499997
3.0317138671875
3.027685546875
3.029296875
3.034130859375
3.027685546875
0.572021484375
0.0281982421875
0.0281982421875
0.0249755859375
0.0217529296875
0.026586914062499998
0.0281982421875
0.022558593749999998
0.0249755859375
0.026586914062499998
0.024169921875
0.0281982421875
0.0249755859375
0.024169921875
0.027392578124999997
0.02578125
0.026586914062499998
0.0322265625
0.024169921875
0.023364257812499997
0.0298095703125
0.0249755859375
2.5338134765625
3.0317138671875
3.0309082031249996
3.0309082031249996
3.0333251953125
3.0309082031249996
3.0317138671875
3.029296875
3.0333251953125
3.0325195312499997
2.9414794921875
2.81982421875
2.779541015625
3.0357421875
3.0333251953125
3.0301025390625
3.0325195312499997
3.0317138671875
3.0333251953125
3.0284912109374997
0.5607421874999999
0.026586914062499998
0.02578125
0.026586914062499998
0.019335937499999997
0.022558593749999998
0.022558593749999998
0.026586914062499998
0.02578125
0.0249755859375
0.022558593749999998
0.02578125
0.0249755859375
0.026586914062499998
0.02578125
0.027392578124999997
0.0249755859375
0.026586914062499998
0.0201416015625
0.023364257812499997
0.0249755859375
0.02578125
2.238134765625
3.0325195312499997
3.034130859375
3.0309082031249996
3.0325195312499997
3.0317138671875
3.0357421875
3.0349365234374996
3.0301025390625
2.8834716796874997
2.8391601562499997
2.882666015625
2.8874999999999997
2.753759765625
3.0317138671875
3.0301025390625
3.0317138671875
3.0309082031249996
3.0284912109374997
3.0325195312499997
1.1110107421875
0.026586914062499998
0.0249755859375
0.023364257812499997
0.023364257812499997
0.026586914062499998
0.02578125
0.0249755859375
0.0281982421875
0.0249755859375
0.09345703124999999
0.02578125
0.0281982421875
0.02578125
0.0217529296875
0.0249755859375
0.02578125
0.0281982421875
0.0249755859375
0.02578125
0.0217529296875
0.026586914062499998
1.670947265625
2.7585937499999997
3.0333251953125
3.0325195312499997
3.0333251953125
3.0317138671875
3.0333251953125
3.0317138671875
3.0268798828124996
3.0325195312499997
2.9833740234375
2.8544677734375
2.8447998046875
2.7384521484374997
3.0301025390625
3.0317138671875
3.0309082031249996
3.0317138671875
3.0317138671875
3.0317138671875
2.4903076171875
0.269091796875
0.02578125
0.0249755859375
0.02900390625
0.0249755859375
0.030615234374999998
0.02900390625
0.024169921875
0.024169921875
0.02578125
0.026586914062499998
0.020947265625
0.0249755859375
0.02578125
0.02900390625
0.02578125
0.024169921875
0.02900390625
0.027392578124999997
0.026586914062499998
0.024169921875
0.027392578124999997
2.7916259765625
3.0301025390625
3.0357421875
3.0301025390625
3.0325195312499997
3.0317138671875
3.0333251953125
3.0333251953125
3.029296875
3.0325195312499997
2.9092529296875
2.9261718749999996
2.8480224609375
3.0325195312499997
3.0325195312499997
3.0309082031249996
3.0325195312499997
3.0301025390625
3.0309082031249996
3.0301025390625
0.42861328125
0.026586914062499998
0.0249755859375
0.022558593749999998
0.02900390625
0.024169921875
0.024169921875
0.02578125
0.022558593749999998
0.02578125
0.02578125
0.023364257812499997
0.02578125
0.022558593749999998
0.024169921875
0.024169921875
0.027392578124999997
0.027392578124999997
0.02578125
0.02578125
0.026586914062499998
0.0217529296875
2.3799316406249997
3.029296875
3.0325195312499997
3.0317138671875
3.0317138671875
3.0309082031249996
3.0333251953125
3.0333251953125
3.0325195312499997
3.029296875
2.9334228515625
2.9197265624999997
2.8029052734374997
2.7062255859374997
3.0325195312499997
3.0301025390625
3.02607421875
3.0317138671875
3.0325195312499997
3.0333251953125
0.8910644531249999
0.026586914062499998
0.022558593749999998
0.026586914062499998
0.02578125
0.0298095703125
0.024169921875
0.02578125
0.02900390625
0.023364257812499997
0.02578125
0.027392578124999997
0.02578125
0.02578125
0.0249755859375
0.022558593749999998
0.022558593749999998
0.026586914062499998
0.0281982421875
0.0298095703125
0.02578125
0.027392578124999997
1.7015624999999999
2.9922363281249997
3.029296875
3.034130859375
3.0349365234374996
3.0325195312499997
3.0284912109374997
3.029296875
3.0325195312499997
3.0284912109374997
3.034130859375
2.931005859375
2.82626953125
2.7110595703125
3.027685546875
3.0309082031249996
3.0325195312499997
3.0325195312499997
3.0333251953125
3.029296875
1.3502929687499998
0.02900390625
0.024169921875
0.0201416015625
0.0281982421875
0.0281982421875
0.022558593749999998
0.0249755859375
0.02900390625
0.02578125
0.026586914062499998
0.022558593749999998
0.027392578124999997
0.0249755859375
0.0314208984375
0.0217529296875
0.026586914062499998
0.0249755859375
0.026586914062499998
0.02578125
0.026586914062499998
0.02578125
0.69287109375
2.9028076171875
3.029296875
3.0349365234374996
3.0301025390625
3.029296875
3.0301025390625
3.0301025390625
3.0349365234374996
3.0301025390625
3.0301025390625
2.9181152343749996
2.9036132812499997
2.763427734375
3.029296875
3.034130859375
3.0333251953125
3.0284912109374997
3.029296875
3.034130859375
3.0309082031249996
0.1998046875
0.02578125
0.026586914062499998
0.0201416015625
0.02900390625
0.02578125
0.02578125
0.020947265625
0.020947265625
0.026586914062499998
0.026586914062499998
0.0249755859375
0.0249755859375
0.024169921875
0.0249755859375
0.02900390625
0.024169921875
0.026586914062499998
0.0298095703125
0.026586914062499998
0.0249755859375
0.030615234374999998
2.4443847656249997
3.0309082031249996
3.0301025390625
3.034130859375
3.0325195312499997
3.0301025390625
3.029296875
3.0317138671875
3.0325195312499997
3.0309082031249996
2.98740234375
2.947119140625
2.779541015625
3.0268798828124996
3.0317138671875
3.034130859375
3.0301025390625
3.0309082031249996
3.0317138671875
3.0325195312499997
0.6985107421875
0.0281982421875
0.024169921875
0.02578125
0.02900390625
0.022558593749999998
0.0249755859375
0.020947265625
0.0249755859375
0.026586914062499998
0.027392578124999997
0.024169921875
0.02578125
0.02578125
0.02578125
0.026586914062499998
0.0249755859375
0.026586914062499998
0.02578125
0.0281982421875
0.026586914062499998
0.026586914062499998
2.0987548828125
3.0317138671875
3.0309082031249996
3.0357421875
3.034130859375
3.0333251953125
3.0301025390625
3.029296875
3.0309082031249996
2.6200195312499996
2.8963623046875
2.8302978515625
2.7352294921875
2.6200195312499996
3.0309082031249996
3.0309082031249996
3.0309082031249996
3.0309082031249996
3.029296875
3.0405761718749997
0.9482666015625
0.02578125
0.027392578124999997
0.02578125
0.0281982421875
0.0249755859375
0.022558593749999998
0.0249755859375
0.0249755859375
0.023364257812499997
0.024169921875
0.02900390625
0.0201416015625
0.027392578124999997
0.0217529296875
0.024169921875
0.026586914062499998
0.02578125
0.027392578124999997
0.02578125
0.0281982421875
0.02900390625
1.9505126953124998
3.0309082031249996
3.0317138671875
3.0309082031249996
3.0301025390625
3.0309082031249996
3.0309082031249996
3.0309082031249996
3.0309082031249996
3.0317138671875
2.8536621093749996
2.8915283203124997
2.8190185546874997
2.76181640625
3.0301025390625
3.0421875
3.0333251953125
3.029296875
3.0309082031249996
3.0325195312499997
3.034130859375
0.02578125
0.02578125
0.0249755859375
0.030615234374999998
0.023364257812499997
0.026586914062499998
0.027392578124999997
0.022558593749999998
0.023364257812499997
0.02578125
0.023364257812499997
0.0217529296875
0.02578125
0.0249755859375
0.024169921875
0.020947265625
0.0249755859375
0.026586914062499998
0.02578125
0.0217529296875
0.0281982421875
0.1458251953125
2.60068359375
3.0325195312499997
3.0309082031249996
3.0317138671875
3.0325195312499997
3.0325195312499997
3.0309082031249996
3.0325195312499997
3.0317138671875
2.8423828125
2.9350341796875
2.8576904296874996
2.8206298828125
3.0325195312499997
3.029296875
3.0349365234374996
3.0301025390625
3.029296875
3.0325195312499997
3.0301025390625
0.62197265625
0.0281982421875
0.026586914062499998
0.027392578124999997
0.0249755859375
0.026586914062499998
0.027392578124999997
0.024169921875
0.026586914062499998
0.0281982421875
0.02578125
0.02578125
0.0249755859375
0.022558593749999998
0.0281982421875
0.022558593749999998
0.023364257812499997
0.02578125
0.0249755859375
0.023364257812499997
0.024169921875
0.024169921875
2.31708984375
3.0325195312499997
3.0284912109374997
3.0309082031249996
3.0309082031249996
3.0317138671875
3.0325195312499997
3.0301025390625
3.027685546875
2.8850830078125
2.8359375
2.8850830078125
2.75537109375
2.6562744140624996
3.0317138671875
3.0301025390625
3.0325195312499997
3.0317138671875
3.037353515625
3.029296875
1.044140625
0.0249755859375
0.022558593749999998
0.0281982421875
0.02578125
0.02578125
0.02578125
0.026586914062499998
0.02578125
0.0249755859375
0.1796630859375
0.0217529296875
0.022558593749999998
0.0217529296875
0.02900390625
0.0217529296875
0.022558593749999998
0.026586914062499998
0.027392578124999997
0.024169921875
0.026586914062499998
0.02900390625
1.9062011718749998
2.9841796874999997
3.0325195312499997
3.0317138671875
3.0309082031249996
3.0309082031249996
3.029296875
3.0325195312499997
3.0317138671875
3.027685546875
3.01962890625
2.9092529296875
2.811767578125
2.7593994140625
3.034130859375
3.0325195312499997
3.029296875
3.029296875
3.0349365234374996
3.0309082031249996
3.0099609375
0.0217529296875
0.02578125
0.026586914062499998
0.02578125
0.024169921875
0.024169921875
0.0249755859375
0.026586914062499998
0.024169921875
0.0249755859375
0.024169921875
0.022558593749999998
0.02578125
0.02578125
0.0249755859375
0.02578125
0.027392578124999997
0.026586914062499998
0.0281982421875
0.0249755859375
0.024169921875
2.05927734375
2.7650390624999996
3.0309082031249996
3.0301025390625
3.0301025390625
3.0317138671875
3.0309082031249996
3.0284912109374997
3.0333251953125
3.0268798828124996
2.866552734375
2.8754150390624997
2.7932373046874996
2.6820556640624997
3.0333251953125
3.0284912109374997
3.027685546875
3.0325195312499997
3.0325195312499997
3.0309082031249996
3.029296875
0.5325439453124999
0.024169921875
0.026586914062499998
0.027392578124999997
0.030615234374999998
0.02578125
0.022558593749999998
0.022558593749999998
0.022558593749999998
0.022558593749999998
0.022558593749999998
0.027392578124999997
0.02578125
0.02578125
0.0249755859375
0.0249755859375
0.02578125
0.022558593749999998
0.024169921875
0.02578125
0.02578125
0.024169921875
2.40087890625
3.0325195312499997
3.0309082031249996
3.029296875
3.0357421875
3.0301025390625
3.0325195312499997
3.027685546875
3.0349365234374996
3.0317138671875
2.908447265625
2.8721923828125
2.8037109375
2.695751953125
3.0309082031249996
3.0309082031249996
3.0309082031249996
3.0309082031249996
3.0333251953125
3.0301025390625
0.97001953125
0.02900390625
0.02578125
0.027392578124999997
0.0249755859375
0.026586914062499998
0.02578125
0.0249755859375
0.023364257812499997
0.02578125
0.0249755859375
0.026586914062499998
0.02578125
0.02578125
0.0281982421875
0.02578125
0.02578125
0.02578125
0.02578125
0.02578125
0.0249755859375
0.026586914062499998
1.812744140625
3.0301025390625
3.0301025390625
3.029296875
3.0309082031249996
3.0309082031249996
3.0317138671875
3.0333251953125
3.0309082031249996
3.0317138671875
3.0325195312499997
2.95517578125
2.8850830078125
2.771484375
3.0333251953125
3.029296875
3.0357421875
3.0325195312499997
3.0325195312499997
3.0357421875
1.72412109375
0.0217529296875
0.030615234374999998
0.0249755859375
0.022558593749999998
0.02578125
0.026586914062499998
0.020947265625
0.022558593749999998
0.02578125
0.027392578124999997
0.0249755859375
0.0249755859375
0.027392578124999997
0.024169921875
0.026586914062499998
0.02900390625
0.0249755859375
0.02578125
0.02900390625
0.022558593749999998
0.0281982421875
1.7724609375
2.8399658203125
3.0325195312499997
3.0309082031249996
3.0349365234374996
3.0317138671875
3.0333251953125
3.0301025390625
3.0309082031249996
3.0107666015624996
3.0325195312499997
2.898779296875
2.8431884765624997
2.7489257812499996
3.0301025390625
3.0309082031249996
3.0317138671875
3.0317138671875
3.027685546875
3.0333251953125
3.0309082031249996
0.24895019531249998
0.026586914062499998
0.02578125
0.026586914062499998
0.022558593749999998
0.024169921875
0.022558593749999998
0.026586914062499998
0.02578125
0.02578125
0.026586914062499998
0.027392578124999997
0.023364257812499997
0.0249755859375
0.0281982421875
0.02578125
0.026586914062499998
0.02578125
0.026586914062499998
0.0281982421875
0.022558593749999998
0.0249755859375
2.4322998046874997
3.0301025390625
3.034130859375
3.034130859375
3.037353515625
3.0349365234374996
3.0325195312499997
3.029296875
3.0301025390625
3.0333251953125
3.0083496093749997
2.9342285156249996
2.7811523437499996
3.029296875
3.0325195312499997
3.0325195312499997
3.034130859375
3.0309082031249996
3.0333251953125
3.0325195312499997
0.78955078125
0.026586914062499998
0.024169921875
0.023364257812499997
0.02578125
0.026586914062499998
0.0281982421875
0.024169921875
0.0249755859375
0.02578125
0.026586914062499998
0.026586914062499998
0.0217529296875
0.02900390625
0.02578125
0.02578125
0.022558593749999998
0.022558593749999998
0.023364257812499997
0.027392578124999997
0.02578125
0.024169921875
2.1551513671875
3.0333251953125
3.0309082031249996
3.0317138671875
3.0309082031249996
3.0357421875
3.0301025390625
3.0325195312499997
3.0317138671875
2.9318115234374997
3.0067382812499996
2.8641357421875
2.8214355468749996
2.711865234375
3.0333251953125
3.0301025390625
3.0284912109374997
3.0317138671875
3.0301025390625
3.0236572265625
1.0530029296874999
0.0249755859375
0.019335937499999997
0.026586914062499998
0.026586914062499998
0.026586914062499998
0.026586914062499998
0.024169921875
0.02578125
0.0281982421875
0.0249755859375
0.0249755859375
0.027392578124999997
0.02578125
0.027392578124999997
0.026586914062499998
0.02578125
0.027392578124999997
0.02900390625
0.02578125
0.0281982421875
0.023364257812499997
1.0409179687499999
2.99384765625
3.0301025390625
3.0309082031249996
3.0317138671875
3.0333251953125
3.0317138671875
3.0301025390625
3.0301025390625
3.029296875
2.8705810546875
2.9398681640624997
2.9011962890625
2.818212890625
3.0309082031249996
3.0325195312499997
3.0357421875
3.0309082031249996
3.0317138671875
3.034130859375
3.0309082031249996
0.2553955078125
0.026586914062499998
0.026586914062499998
0.027392578124999997
0.026586914062499998
0.02578125
0.027392578124999997
0.02578125
0.022558593749999998
0.02578125
0.026586914062499998
0.09990234375
0.146630859375
0.18691406249999998
0.023364257812499997
0.023364257812499997
0.026586914062499998
0.0249755859375
0.02900390625
0.026586914062499998
0.0249755859375
2.2727783203125
3.0309082031249996
3.0284912109374997
3.0325195312499997
3.0333251953125
3.0309082031249996
3.034130859375
3.0309082031249996
3.0284912109374997
3.0317138671875
3.0325195312499997
3.0309082031249996
3.029296875
3.0301025390625
3.0309082031249996
3.0317138671875
3.0284912109374997
3.037353515625
3.0317138671875
3.029296875
3.0309082031249996
1.110205078125
0.020947265625
0.027392578124999997
0.0201416015625
0.026586914062499998
0.02900390625
0.026586914062499998
0.0298095703125
0.0281982421875
0.0249755859375
0.023364257812499997
0.027392578124999997
0.15227050781249998
0.1716064453125
0.027392578124999997
0.026586914062499998
0.026586914062499998
0.022558593749999998
0.02578125
0.024169921875
0.0249755859375
0.026586914062499998
2.3098388671875
3.0309082031249996
3.0333251953125
3.0317138671875
3.0317138671875
3.0325195312499997
3.037353515625
3.0301025390625
3.0301025390625
2.9156982421874997
3.0301025390625
3.034130859375
3.0309082031249996
2.9994873046875
3.0325195312499997
3.0284912109374997
3.0317138671875
3.0333251953125
3.0333251953125
3.0309082031249996
1.123095703125
0.0717041015625
0.022558593749999998
0.0249755859375
0.02578125
0.020947265625
0.0298095703125
0.027392578124999997
0.024169921875
0.023364257812499997
0.34079589843749997
0.026586914062499998
0.02900390625
0.0281982421875
0.0249755859375
0.022558593749999998
0.02900390625
0.02578125
0.022558593749999998
0.0249755859375
0.027392578124999997
0.02578125
0.34965820312499996
2.6014892578124997
3.0309082031249996
3.034130859375
3.027685546875
3.0309082031249996
3.0317138671875
3.0333251953125
3.0349365234374996
3.0357421875
3.0301025390625
3.0381591796875
2.9994873046875
2.931005859375
3.0325195312499997
3.0333251953125
3.0309082031249996
3.0333251953125
3.029296875
3.027685546875
3.034130859375
0.027392578124999997
0.026586914062499998
0.0281982421875
0.02578125
0.026586914062499998
0.022558593749999998
0.023364257812499997
0.024169921875
0.0249755859375
0.02578125
0.026586914062499998
0.026586914062499998
0.0249755859375
0.0249755859375
0.023364257812499997
0.02578125
0.026586914062499998
0.0298095703125
0.02900390625
0.024169921875
0.0249755859375
0.02578125
1.915869140625
2.8593017578124997
3.0309082031249996
3.0309082031249996
3.0333251953125
3.0309082031249996
3.0333251953125
3.0333251953125
3.0325195312499997
3.0059326171875
3.0309082031249996
3.003515625
2.96162109375
3.0309082031249996
3.0333251953125
3.029296875
3.0244628906249997
3.0325195312499997
3.0317138671875
3.0325195312499997
0.8040527343749999
0.022558593749999998
0.026586914062499998
0.027392578124999997
0.027392578124999997
0.0249755859375
0.02578125
0.0281982421875
0.023364257812499997
0.02578125
0.027392578124999997
0.026586914062499998
0.057202148437499996
0.0249755859375
0.027392578124999997
0.02578125
0.0249755859375
0.0249755859375
0.026586914062499998
0.023364257812499997
0.0281982421875
0.022558593749999998
2.1116455078125
3.0309082031249996
3.0389648437499996
3.0349365234374996
3.0349365234374996
3.0325195312499997
3.0301025390625
3.0309082031249996
3.02607421875
3.027685546875
3.0309082031249996
3.0309082031249996
3.0317138671875
3.0333251953125
3.0325195312499997
3.0309082031249996
3.034130859375
3.0325195312499997
3.0309082031249996
3.0317138671875
1.3502929687499998
0.0249755859375
0.02578125
0.026586914062499998
0.024169921875
0.026586914062499998
0.0217529296875
0.02900390625
0.02578125
0.0249755859375
0.022558593749999998
0.1426025390625
0.1941650390625
0.26022949218749997
0.2876220703125
0.02900390625
0.026586914062499998
0.0281982421875
0.026586914062499998
0.026586914062499998
0.0249755859375
0.02900390625
2.0504150390625
3.0309082031249996
3.0301025390625
3.0333251953125
3.0325195312499997
3.0309082031249996
3.037353515625
3.029296875
3.0325195312499997
3.0309082031249996
3.0325195312499997
3.0301025390625
3.0317138671875
3.02607421875
3.0333251953125
3.029296875
3.029296875
3.0349365234374996
3.0309082031249996
3.0325195312499997
3.0301025390625
0.1973876953125
0.030615234374999998
0.0298095703125
0.0249755859375
0.027392578124999997
0.0281982421875
0.0249755859375
0.0249755859375
0.02900390625
0.0249755859375
0.15468749999999998
0.14421386718749998
0.2578125
0.2586181640625
0.024169921875
0.022558593749999998
0.02578125
0.026586914062499998
0.0249755859375
0.0281982421875
0.02578125
2.0254394531249997
3.0325195312499997
3.0309082031249996
3.0317138671875
3.0349365234374996
3.029296875
3.0333251953125
3.029296875
3.0309082031249996
3.029296875
3.0325195312499997
3.0333251953125
3.0365478515624997
3.0147949218749996
3.0309082031249996
3.0309082031249996
3.0317138671875
3.0309082031249996
3.029296875
3.0357421875
3.0357421875
0.8314453125
0.0249755859375
0.026586914062499998
0.026586914062499998
0.02578125
0.026586914062499998
0.022558593749999998
0.0249755859375
0.02578125
0.02578125
0.02578125
0.041088867187499996
0.0459228515625
0.0668701171875
0.026586914062499998
0.0249755859375
0.0346435546875
0.026586914062499998
0.0217529296875
0.02900390625
0.02578125
0.02578125
2.50400390625
3.0333251953125
3.0333251953125
3.0317138671875
3.0309082031249996
3.0349365234374996
3.0317138671875
3.0317138671875
3.0333251953125
3.0309082031249996
3.0349365234374996
3.029296875
3.0309082031249996
3.0309082031249996
3.0325195312499997
3.029296875
3.0317138671875
3.0309082031249996
3.034130859375
3.0301025390625
1.24072265625
0.027392578124999997
0.0249755859375
0.026586914062499998
0.026586914062499998
0.026586914062499998
0.02900390625
0.024169921875
0.022558593749999998
0.0281982421875
0.02578125
0.026586914062499998
0.11359863281249999
0.133740234375
0.0733154296875
0.0217529296875
0.0249755859375
0.02900390625
0.023364257812499997
0.0322265625
0.026586914062499998
0.015307617187499999
2.6039062499999996
3.0325195312499997
3.0317138671875
3.0325195312499997
3.0309082031249996
3.0325195312499997
3.0268798828124996
3.0357421875
3.0325195312499997
3.0325195312499997
3.0357421875
3.0317138671875
3.0333251953125
3.0091552734375
3.0309082031249996
3.0325195312499997
3.0309082031249996
3.0333251953125
3.029296875
3.0301025390625
1.416357421875
0.02578125
0.0298095703125
0.023364257812499997
0.026586914062499998
0.0281982421875
0.0201416015625
0.02578125
0.02578125
0.0249755859375
0.02578125
0.124072265625
0.12568359375
0.19094238281249998
0.13212890624999998
0.02578125
0.024169921875
0.02578125
0.0249755859375
0.0249755859375
0.0249755859375
0.0281982421875
1.8755859375
3.0268798828124996
3.0317138671875
3.0349365234374996
3.0309082031249996
3.0309082031249996
3.034130859375
3.0309082031249996
3.029296875
3.0317138671875
3.034130859375
3.0309082031249996
3.0325195312499997
3.0147949218749996
3.0333251953125
3.0317138671875
3.0357421875
3.029296875
3.0333251953125
3.0317138671875
1.85302734375
0.072509765625
0.023364257812499997
0.01611328125
0.023364257812499997
0.023364257812499997
0.02578125
0.024169921875
0.023364257812499997
0.0249755859375
0.024169921875
0.02578125
0.07734374999999999
0.103125
0.116015625
0.022558593749999998
0.0281982421875
0.0249755859375
0.022558593749999998
0.027392578124999997
0.015307617187499999
0.026586914062499998
0.0249755859375
2.7021972656249997
3.029296875
3.0309082031249996
3.0325195312499997
3.0325195312499997
3.0357421875
3.034130859375
3.029296875
3.0349365234374996
3.029296875
3.0309082031249996
3.0333251953125
3.0317138671875
3.0301025390625
3.0317138671875
3.0309082031249996
3.034130859375
3.0301025390625
3.0333251953125
3.0333251953125
0.7057617187499999
0.024169921875
0.023364257812499997
0.0249755859375
0.026586914062499998
0.02578125
0.023364257812499997
0.0298095703125
0.0281982421875
0.0249755859375
0.0249755859375
0.024169921875
0.056396484375
0.07814941406249999
0.0281982421875
0.0249755859375
0.024169921875
0.02578125
0.02578125
0.024169921875
0.0249755859375
0.026586914062499998
2.5402587890625
3.0309082031249996
3.029296875
3.0301025390625
3.0325195312499997
3.0317138671875
3.0325195312499997
3.0325195312499997
3.0301025390625
2.8125732421875
3.0365478515624997
3.0301025390625
3.0284912109374997
2.9688720703125
3.0325195312499997
3.0349365234374996
3.0301025390625
3.0325195312499997
3.0317138671875
3.0309082031249996
0.8958984375
0.026586914062499998
0.026586914062499998
0.0249755859375
0.0249755859375
0.02578125
0.020947265625
0.0249755859375
0.0217529296875
0.02578125
0.14018554687499998
0.02578125
0.024169921875
0.023364257812499997
0.02578125
0.022558593749999998
0.027392578124999997
0.026586914062499998
0.0298095703125
0.0281982421875
0.026586914062499998
0.0249755859375
1.5927978515624999
2.9745117187499996
3.0317138671875
3.0309082031249996
3.0317138671875
3.0301025390625
3.0301025390625
3.0284912109374997
3.0317138671875
3.0333251953125
3.029296875
3.0333251953125
3.0317138671875
3.0083496093749997
3.0309082031249996
3.0309082031249996
3.0325195312499997
3.0325195312499997
3.0317138671875
3.0301025390625
1.1666015625
0.023364257812499997
0.019335937499999997
0.020947265625
0.027392578124999997
0.026586914062499998
0.027392578124999997
0.02578125
0.0249755859375
0.02578125
0.023364257812499997
0.024169921875
0.02900390625
0.0443115234375
0.0708984375
0.027392578124999997
0.024169921875
0.0249755859375
0.026586914062499998
0.024169921875
0.024169921875
0.027392578124999997
1.2479736328125
2.8818603515624996
3.0317138671875
3.0301025390625
3.0317138671875
3.034130859375
3.0284912109374997
3.034130859375
3.0325195312499997
3.0333251953125
3.0164062499999997
3.0317138671875
3.0325195312499997
3.0301025390625
3.0301025390625
3.029296875
3.0325195312499997
3.027685546875
3.0333251953125
3.0325195312499997
2.9358398437499997
0.5349609375
0.017724609375
0.02578125
0.02900390625
0.0249755859375
0.027392578124999997
0.030615234374999998
0.020947265625
0.0249755859375
0.026586914062499998
0.02578125
0.026586914062499998
0.02578125
0.02578125
0.027392578124999997
0.022558593749999998
0.023364257812499997
0.02578125
0.02578125
0.023364257812499997
0.022558593749999998
0.024169921875
1.571044921875
2.977734375
3.034130859375
3.0301025390625
3.0317138671875
3.0325195312499997
3.0309082031249996
3.034130859375
3.0309082031249996
3.0268798828124996
3.0309082031249996
3.0317138671875
3.0301025390625
2.91650390625
3.0325195312499997
3.0301025390625
3.01962890625
3.0333251953125
3.029296875
3.0325195312499997
1.19560546875
0.02578125
0.02578125
0.02578125
0.026586914062499998
0.0249755859375
0.026586914062499998
0.023364257812499997
0.026586914062499998
0.0217529296875
0.20463867187499998
0.020947265625
0.0217529296875
0.027392578124999997
0.02578125
0.0249755859375
0.022558593749999998
0.026586914062499998
0.02578125
0.02578125
0.0249755859375
0.026586914062499998
1.368017578125
2.578125
3.0309082031249996
3.0309082031249996
3.0309082031249996
3.0284912109374997
3.0349365234374996
3.0309082031249996
3.0309082031249996
3.0333251953125
3.034130859375
3.0325195312499997
3.0091552734375
2.9197265624999997
3.0333251953125
3.0301025390625
3.0309082031249996
3.0349365234374996
3.029296875
3.0325195312499997
1.3462646484374998
0.0217529296875
0.022558593749999998
0.023364257812499997
0.026586914062499998
0.02578125
0.026586914062499998
0.02578125
0.0249755859375
0.026586914062499998
0.02900390625
0.0281982421875
0.026586914062499998
0.0604248046875
0.026586914062499998
0.0249755859375
0.02578125
0.02578125
0.027392578124999997
0.026586914062499998
0.02900390625
0.02578125
