1.4848388671875
1.4510009765624998
1.50498046875
1.4364990234375
3.0357421875
2.2357177734375
1.8199951171875
1.4961181640624999
1.2439453125
0.7887451171875
0.02578125
0.02900390625
0.4568115234375
1.0570312499999999
1.3599609375
1.5686279296874999
1.71123046875
1.8707519531249999
1.8336914062499998
1.7168701171874998
1.6290527343749999
1.6773925781249999
1.69833984375
1.6846435546874998
1.65
0.0314208984375
1.1690185546875
1.4759765624999999
1.716064453125
1.7853515624999998
2.2349121093749997
3.0365478515624997
2.9334228515625
2.099560546875
1.6693359374999999
1.4058837890625
1.4574462890625
1.4800048828124999
1.377685546875
1.36962890625
1.4816162109375
1.4590576171874998
1.50498046875
1.5162597656249999
1.5009521484375
1.41796875
3.0405761718749997
2.37509765625
1.7700439453124999
1.4373046875
1.3752685546874999
1.0385009765625
0.033032226562499996
0.09023437499999999
0.3391845703125
0.862060546875
1.3656005859375
1.496923828125
1.533984375
1.8256347656249998
1.8240234375
1.7015624999999999
1.7370117187499998
1.6798095703125
1.6927001953124998
1.6572509765624999
1.61455078125
0.02900390625
0.9047607421874999
1.6153564453125
1.7861572265624999
1.9489013671875
2.1825439453124997
3.0381591796875
3.0325195312499997
2.2421630859375
1.6306640625
1.4751708984374998
1.4300537109375
1.4348876953124998
1.40185546875
1.397021484375
1.4993408203124998
1.5557373046874998
1.53076171875
1.5154541015624998
1.4630859374999998
1.480810546875
3.0349365234374996
2.2502197265625
1.6959228515625
1.5758789062499998
1.3414306640625
1.02802734375
0.301318359375
0.037060546874999996
0.4036376953125
0.8805908203124999
1.2753662109375
1.5444580078124999
1.5573486328125
1.8820312499999998
1.780517578125
1.6927001953124998
1.6967285156249998
1.7096191406249999
1.6524169921874998
1.622607421875
1.60166015625
0.02900390625
0.8918701171875
1.5670166015625
1.71123046875
2.0230224609375
2.070556640625
2.5837646484374996
3.0397705078125
2.3307861328125
1.8095214843749998
1.46953125
1.4010498046875
1.48564453125
1.3382080078124998
1.4026611328124998
1.4791992187499998
1.4993408203124998
1.506591796875
1.5251220703125
1.50498046875
1.5154541015624998
3.0357421875
2.827880859375
1.819189453125
1.6105224609375
1.14404296875
0.9772705078124999
0.451171875
0.03544921875
0.25620117187499997
0.8958984375
1.2511962890625
1.490478515625
1.4800048828124999
1.796630859375
1.832080078125
1.7619873046874999
1.6830322265625
1.6991455078125
1.622607421875
1.6201904296874998
1.6209960937499999
0.02900390625
0.167578125
1.5815185546875
1.7072021484375
1.964208984375
2.1197021484375
2.5265625
3.037353515625
2.6578857421874997
1.7974365234374998
1.5299560546875
1.40830078125
1.5766845703124999
1.413134765625
1.5162597656249999
1.458251953125
1.4703369140625
1.6290527343749999
1.4912841796874998
1.509814453125
1.4840332031249999
1.6935058593749999
2.876220703125
1.8240234375
1.6403320312499998
1.1931884765625
1.068310546875
0.704150390625
0.030615234374999998
0.25217285156249997
0.71865234375
1.1980224609374999
1.5090087890625
1.4630859374999998
1.6927001953124998
1.7507080078125
1.7055908203124999
1.6910888671875
1.4888671875
1.641943359375
1.6153564453125
1.6105224609375
0.033032226562499996
0.0966796875
1.3656005859375
1.554931640625
1.96904296875
1.9698486328125
2.296142578125
3.0349365234374996
2.7392578125
1.9779052734375
1.53076171875
1.3929931640625
1.4187744140624998
1.4348876953124998
1.5678222656249998
1.5807128906249999
1.5001464843749999
1.66611328125
1.4832275390624998
1.52109375
1.51787109375
1.5807128906249999
3.0357421875
2.0455810546874997
1.5968261718749999
1.3156494140625
1.4091064453125
0.7541015624999999
0.0298095703125
0.1490478515625
0.4922607421875
1.1996337890625
1.416357421875
1.5122314453124999
1.6604736328124998
1.735400390625
1.72734375
1.6886718749999998
1.4429443359374998
1.6435546875
1.6403320312499998
1.6089111328124999
1.4526123046875
0.030615234374999998
1.4187744140624998
1.5976318359375
1.7974365234374998
1.869140625
2.23330078125
3.0349365234374996
3.0365478515624997
2.0254394531249997
1.662890625
1.4872558593749998
1.445361328125
1.49853515625
1.4501953125
1.47275390625
1.4687255859375
1.32451171875
1.56943359375
1.4880615234374999
1.490478515625
1.5001464843749999
3.034130859375
2.067333984375
1.662890625
1.37607421875
1.432470703125
1.0207763671874999
0.0298095703125
0.12568359375
0.4487548828125
1.0030517578125
1.4115234374999999
1.5267333984375
1.5412353515625
1.7901855468749999
1.7200927734375
1.6701416015625
1.8385253906249999
1.714453125
1.64677734375
1.619384765625
1.5517089843749998
0.02900390625
1.095703125
1.5782958984375
1.8369140625
1.835302734375
2.047998046875
3.037353515625
3.0365478515624997
2.2244384765625
1.6491943359374999
1.4630859374999998
1.4228027343749998
1.5347900390625
1.442138671875
1.480810546875
1.5057861328125
1.3639892578125
1.5517089843749998
1.5194824218749998
1.4638916015624999
1.5009521484375
3.0349365234374996
2.4838623046875
1.6846435546874998
1.5492919921875
1.1947998046875
1.0376953125
0.030615234374999998
0.1232666015625
0.2972900390625
0.9949951171875
1.3301513671874998
1.4703369140625
1.5186767578125
1.7337890624999999
1.7531249999999998
1.7023681640625
1.7329833984374998
1.606494140625
1.651611328125
1.6330810546874999
1.6153564453125
0.0298095703125
1.055419921875
1.619384765625
1.7531249999999998
2.0496093749999997
2.0149658203125
2.779541015625
3.0365478515624997
2.2018798828125
1.7499023437499999
1.5146484375
1.4381103515625
1.5251220703125
1.448583984375
1.4800048828124999
1.5138427734375
1.482421875
1.5186767578125
1.529150390625
1.4848388671875
1.4735595703125
3.0333251953125
2.5716796874999996
1.76279296875
1.6330810546874999
1.1794921875
1.0505859375
0.6566162109375
0.09023437499999999
0.26748046875
0.7742431640624999
1.3382080078124998
1.5299560546875
1.4783935546875
1.7104248046875
1.7772949218749998
1.7080078125
1.683837890625
1.6306640625
1.6669189453125
1.6508056640625
1.6089111328124999
0.0281982421875
0.44956054687499997
1.3494873046875
1.6475830078125
1.9907958984374998
2.0536376953124997
2.578125
3.0365478515624997
2.5563720703125
1.9456787109375
1.533984375
1.426025390625
1.4679199218749999
1.4107177734374998
1.4598632812499999
1.4751708984374998
1.4928955078125
1.4445556640625
1.5170654296875
1.55009765625
1.5114257812499998
2.4081298828124997
3.0349365234374996
1.7652099609374998
1.6314697265625
1.3148437499999999
1.0328613281249999
0.6638671875
0.027392578124999997
0.1611328125
0.7484619140625
1.1931884765625
1.4155517578124999
1.4501953125
1.6951171875
1.6967285156249998
1.7015624999999999
1.7023681640625
1.6322753906249998
1.6701416015625
1.622607421875
1.5839355468749998
0.452783203125
0.35126953125
1.3849365234375
1.609716796875
1.9005615234375
2.0334960937499997
2.3581787109375
3.0357421875
2.5144775390625
1.9150634765624999
1.609716796875
1.458251953125
1.4711425781249998
1.4679199218749999
1.4590576171874998
1.4848388671875
1.4655029296875
1.442138671875
1.5170654296875
1.513037109375
1.4953124999999998
2.1390380859375
3.0357421875
1.9714599609374999
1.6959228515625
1.3599609375
1.3083984375
0.8805908203124999
0.091845703125
0.07734374999999999
0.4890380859375
1.0248046874999999
1.42119140625
1.5106201171875
1.6081054687499998
1.72734375
1.719287109375
1.7168701171874998
1.56943359375
1.6572509765624999
1.6435546875
1.6048828124999999
0.7049560546875
0.0298095703125
1.216552734375
1.6153564453125
1.9223144531249998
1.738623046875
2.3468994140625
3.0309082031249996
2.985791015625
2.128564453125
1.6346923828125
1.49853515625
1.4461669921875
1.445361328125
1.4373046875
1.5323730468749999
1.4864501953125
1.3599609375
1.5202880859374999
1.5355957031249998
1.5017578125
1.5033691406249998
3.0325195312499997
2.0052978515624997
1.6910888671875
1.5106201171875
1.3801025390625
0.942626953125
0.0281982421875
0.10634765624999999
0.4447265625
1.0094970703125
1.34384765625
1.53076171875
1.5831298828125
1.7611816406249998
1.7764892578125
1.7184814453125
1.8828369140624999
1.6556396484375
1.6886718749999998
1.6653076171874999
1.6540283203125
0.02900390625
1.134375
1.558154296875
1.6636962890625
1.786962890625
2.0810302734375
3.0365478515624997
3.034130859375
2.3017822265625
1.844970703125
1.5380126953125
1.5194824218749998
1.5315673828124998
1.4993408203124998
1.493701171875
1.525927734375
1.50498046875
1.5315673828124998
1.4920898437499999
1.4945068359375
1.509814453125
3.0405761718749997
2.4419677734375
1.819189453125
1.5799072265624998
1.3527099609375
1.1158447265625
0.030615234374999998
0.026586914062499998
0.169189453125
0.8572265625
1.1939941406249999
1.4107177734374998
1.3631835937499999
1.7313720703125
1.7587646484375
1.6935058593749999
1.8884765625
1.63388671875
1.6636962890625
1.6395263671875
1.6250244140624999
0.02900390625
0.67998046875
1.4961181640624999
1.6218017578125
2.0052978515624997
2.086669921875
3.034130859375
3.037353515625
2.51044921875
1.8393310546875
1.5726562499999999
1.4397216796874999
1.546875
1.4735595703125
1.409912109375
1.5041748046874999
1.490478515625
1.4268310546874998
1.5138427734375
1.4920898437499999
1.482421875
3.0381591796875
2.4822509765625
1.851416015625
1.7507080078125
1.3333740234375
1.0803955078125
0.44794921875
0.030615234374999998
0.11359863281249999
0.6832031249999999
1.106982421875
1.44052734375
1.3672119140624999
1.6540283203125
1.7015624999999999
1.7015624999999999
1.7136474609374999
1.7603759765625
1.6773925781249999
1.6524169921874998
1.625830078125
0.0298095703125
0.6002197265625
1.3502929687499998
1.5726562499999999
2.015771484375
2.118896484375
2.6361328124999996
3.0349365234374996
2.487890625
1.9545410156249998
1.5758789062499998
1.4574462890625
1.53720703125
1.4252197265625
1.4236083984374999
1.477587890625
1.5009521484375
1.413134765625
1.509814453125
1.4928955078125
1.48564453125
3.0365478515624997
3.0381591796875
2.0633056640625
1.7257324218749999
1.3075927734375
1.16337890625
0.5115966796875
0.026586914062499998
0.033032226562499996
0.4648681640625
1.0409179687499999
1.3212890625
1.4364990234375
1.6886718749999998
1.7120361328125
1.7329833984374998
1.722509765625
1.7748779296875
1.6636962890625
1.66611328125
1.6177734375
0.0314208984375
0.02900390625
1.2721435546875
1.542041015625
1.8578613281249998
2.125341796875
2.5233398437499996
3.034130859375
2.9970703125
2.0858642578124997
1.72412109375
1.513037109375
1.5218994140625
1.4469726562499998
1.4816162109375
1.461474609375
1.4703369140625
1.7023681640625
1.4638916015624999
1.4928955078125
1.493701171875
1.51787109375
3.0309082031249996
2.096337890625
1.9198974609375
1.3792968749999999
1.158544921875
0.7146240234375
0.030615234374999998
0.033837890625
0.35690917968749997
0.8910644531249999
1.340625
1.4316650390624999
1.5839355468749998
1.780517578125
1.7813232421874998
1.7531249999999998
1.593603515625
1.6959228515625
1.69189453125
1.66611328125
0.0314208984375
0.0298095703125
1.100537109375
1.4397216796874999
1.8699462890624998
1.76279296875
2.3082275390625
3.0357421875
3.0333251953125
2.3436767578124997
1.8465820312499999
1.66611328125
1.577490234375
1.5919921874999998
1.5146484375
1.58232421875
1.506591796875
1.6951171875
1.5492919921875
1.5533203125
1.5315673828124998
1.5436523437499998
3.037353515625
2.4371337890625
2.0214111328124997
1.732177734375
1.7088134765624998
0.9063720703125
0.0314208984375
0.0298095703125
0.06606445312499999
0.6759521484375
1.0320556640625
1.2890625
1.4961181640624999
1.6322753906249998
1.7015624999999999
1.7208984374999998
1.6773925781249999
1.6886718749999998
1.6556396484375
1.641943359375
1.571044921875
0.030615234374999998
0.968408203125
1.2109130859375
1.4864501953125
1.7700439453124999
2.1060058593749997
3.0365478515624997
3.037353515625
2.466943359375
2.0504150390625
1.7660156249999999
1.5565429687499999
1.5686279296874999
1.5017578125
1.44052734375
1.493701171875
1.5114257812499998
1.5992431640625
1.5355957031249998
1.546875
1.5251220703125
3.0357421875
2.521728515625
2.0906982421875
1.948095703125
1.6306640625
1.1754638671875
0.030615234374999998
0.02900390625
0.02900390625
0.5043457031249999
0.8773681640625
1.2963134765625
1.3019531249999998
1.7217041015624999
1.7023681640625
1.6435546875
1.6733642578124999
1.6314697265625
1.662890625
1.662890625
1.6169677734374999
0.02900390625
0.58330078125
1.2020507812499999
1.448583984375
1.7740722656249999
2.0093261718749997
3.0357421875
3.0365478515624997
2.6675537109375
2.118896484375
1.791796875
1.6008544921874999
1.6669189453125
1.529150390625
1.4518066406249999
1.48564453125
1.5364013671874999
1.522705078125
1.5484863281249999
1.5090087890625
1.474365234375
3.0349365234374996
3.0357421875
2.1333984375
1.9875732421874999
1.4590576171874998
1.2181640624999999
0.19497070312499998
0.0298095703125
0.0298095703125
0.468896484375
0.8588378906249999
1.173046875
1.2350830078125
1.6612792968749999
1.738623046875
1.714453125
1.6991455078125
1.7120361328125
1.6733642578124999
1.6306640625
1.585546875
0.0281982421875
0.5583251953125
1.2286376953125
1.41796875
1.7660156249999999
2.0254394531249997
2.7328124999999996
3.0365478515624997
2.6337158203124997
2.1648193359375
1.861083984375
1.606494140625
1.6910888671875
1.445361328125
1.603271484375
1.4493896484375
1.4759765624999999
1.6491943359374999
1.53720703125
1.53720703125
1.533984375
3.0389648437499996
3.0357421875
2.1591796875
1.9956298828124999
1.4300537109375
1.1367919921875
0.66064453125
0.0281982421875
0.02900390625
0.2892333984375
0.7516845703124999
1.1754638671875
1.2052734375
1.4751708984374998
1.699951171875
1.7047851562499998
1.687060546875
1.7136474609374999
1.6620849609375
1.6862548828125
1.6540283203125
0.02900390625
0.033837890625
1.0650878906249999
1.3905761718749998
1.7152587890625
1.783740234375
2.5475097656249996
3.037353515625
3.0147949218749996
2.3404541015625
1.8344970703124999
1.658056640625
1.6379150390625
1.44052734375
1.6201904296874998
1.5460693359375
1.5138427734375
1.706396484375
1.513037109375
1.5460693359375
1.5275390624999998
1.6717529296875
3.0349365234374996
2.21396484375
2.028662109375
1.6322753906249998
1.2350830078125
0.7154296874999999
0.03544921875
0.030615234374999998
0.2618408203125
0.7299316406249999
1.0376953125
1.2334716796875
1.4791992187499998
1.6854492187499999
1.6967285156249998
1.7200927734375
1.4187744140624998
1.6975341796874999
1.6822265625
1.6266357421875
1.3414306640625
0.027392578124999997
1.029638671875
1.206884765625
1.5678222656249998
1.7579589843749999
2.2743896484375
3.0349365234374996
3.037353515625
2.437939453125
2.0020751953125
1.6532226562499999
1.5758789062499998
1.5541259765625
1.4993408203124998
1.5927978515624999
1.48564453125
1.29228515625
1.5146484375
1.5162597656249999
1.5162597656249999
1.5251220703125
3.0357421875
2.3984619140625
2.135009765625
1.699951171875
1.6781982421875
1.0884521484375
0.030615234374999998
0.030615234374999998
0.059619140625
0.562353515625
1.0030517578125
1.2439453125
1.3188720703124999
1.65
1.7410400390624998
1.706396484375
1.4155517578124999
1.6862548828125
1.658056640625
1.658056640625
1.5436523437499998
0.02578125
0.7500732421874999
1.1786865234375
1.5364013671874999
1.6306640625
2.2389404296874997
3.0389648437499996
3.0365478515624997
2.5636230468749996
2.0165771484375
1.7692382812499998
1.6201904296874998
1.5976318359375
1.52109375
1.5073974609374998
1.4945068359375
1.482421875
1.662890625
1.5315673828124998
1.4896728515625
1.50498046875
3.0333251953125
2.4129638671875
2.1003662109375
1.8981445312499998
1.6532226562499999
1.106982421875
0.02900390625
0.0281982421875
0.0362548828125
0.52529296875
0.8958984375
1.2745605468749999
1.384130859375
1.6556396484375
1.7257324218749999
1.6959228515625
1.7619873046874999
1.611328125
1.6508056640625
1.6572509765624999
1.574267578125
0.0298095703125
0.6985107421875
1.2181640624999999
1.4284423828125
1.6943115234375
1.9408447265625
2.956787109375
3.037353515625
2.624853515625
2.13984375
1.751513671875
1.5944091796875
1.6459716796875
1.4953124999999998
1.5017578125
1.5726562499999999
1.5122314453124999
1.5782958984375
1.4888671875
1.5017578125
1.5186767578125
3.0357421875
2.9664550781249996
2.164013671875
1.9666259765624998
1.4679199218749999
1.171435546875
0.0298095703125
0.0322265625
0.0298095703125
0.3424072265625
0.8685058593749999
1.1351806640625
1.139208984375
1.6290527343749999
1.7507080078125
1.7297607421874999
1.6991455078125
1.6403320312499998
1.6910888671875
1.6894775390624999
1.638720703125
0.027392578124999997
0.042700195312499994
1.190771484375
1.3204833984375
1.8465820312499999
2.1197021484375
2.860107421875
3.0325195312499997
2.94873046875
2.2002685546875
1.8747802734374999
1.65
1.6588623046875
1.4928955078125
1.5194824218749998
1.4977294921875
1.5589599609375
1.5243164062499999
1.5315673828124998
1.513037109375
1.4759765624999999
2.850439453125
3.0333251953125
2.165625
2.054443359375
1.6508056640625
1.1674072265625
0.5212646484375
0.0298095703125
0.0281982421875
0.275537109375
0.7275146484374999
1.045751953125
1.1480712890625
1.533984375
1.6040771484374998
1.72412109375
1.703173828125
1.6427490234375
1.6306640625
1.6290527343749999
1.60166015625
0.033032226562499996
0.026586914062499998
0.9482666015625
1.1480712890625
1.7619873046874999
2.022216796875
2.534619140625
3.0357421875
3.0010986328125
2.42666015625
2.0101318359375
1.6822265625
1.6322753906249998
1.5758789062499998
1.5799072265624998
1.506591796875
1.5001464843749999
1.5082031249999999
1.5202880859374999
1.5637939453124998
1.538818359375
2.463720703125
3.0349365234374996
2.3654296875
2.1382324218749997
1.7176757812499999
1.49853515625
0.5478515625
0.0298095703125
0.0249755859375
0.0322265625
0.605859375
0.9385986328125
1.1698242187499999
1.4630859374999998
1.662890625
1.7072021484375
1.7047851562499998
1.5863525390625
1.6556396484375
1.6475830078125
1.5992431640625
0.182080078125
0.0298095703125
0.8274169921875
1.10859375
1.5331787109375
1.5533203125
2.534619140625
3.034130859375
3.0333251953125
2.4548583984375
2.160791015625
1.8763916015625
1.662890625
1.5678222656249998
1.4477783203124999
1.4832275390624998
1.474365234375
1.32451171875
1.5243164062499999
1.5589599609375
1.554931640625
1.5589599609375
3.0357421875
2.4838623046875
2.2534423828125
2.0415527343749997
1.6830322265625
0.926513671875
0.030615234374999998
0.02578125
0.030615234374999998
0.3746337890625
0.6711181640624999
1.0006347656249999
1.1964111328125
1.5557373046874998
1.6798095703125
1.7249267578124998
1.9924072265625
1.6846435546874998
1.6749755859375
1.6564453124999998
1.5911865234375
0.030615234374999998
0.6815917968749999
1.0787841796875
1.4477783203124999
1.5090087890625
1.98515625
3.0365478515624997
3.0349365234374996
2.7094482421875
2.3001708984375
1.893310546875
1.69833984375
1.6798095703125
1.5235107421874998
1.5001464843749999
1.513037109375
1.4445556640625
1.5678222656249998
1.5396240234374998
1.529150390625
1.5436523437499998
3.0381591796875
2.99384765625
2.40732421875
2.1325927734375
1.9352050781249999
1.36962890625
0.02900390625
0.030615234374999998
0.02900390625
0.31259765624999997
0.5849121093749999
0.85400390625
0.9063720703125
1.405078125
1.5621826171875
1.6459716796875
2.044775390625
1.6363037109374998
1.7418457031249999
1.69189453125
1.6040771484374998
0.0298095703125
0.0298095703125
0.9273193359374999
1.06669921875
1.6209960937499999
1.8506103515624999
3.037353515625
3.0357421875
3.037353515625
2.4911132812499996
2.147900390625
1.8949218749999999
1.77890625
1.6451660156249999
1.4703369140625
1.480810546875
1.5444580078124999
1.3994384765624999
1.5218994140625
1.5484863281249999
1.506591796875
3.0357421875
3.0349365234374996
2.5305908203125
2.52978515625
1.9295654296875
1.5154541015624998
0.21269531249999998
0.02578125
0.02900390625
0.030615234374999998
0.275537109375
0.5607421874999999
0.6147216796875
1.168212890625
1.380908203125
1.6201904296874998
1.7015624999999999
1.9190917968749999
1.7257324218749999
1.6943115234375
1.60166015625
0.02900390625
0.02900390625
0.62197265625
0.7299316406249999
1.4679199218749999
1.8425537109374999
2.6240478515624996
3.0357421875
3.037353515625
2.76181640625
2.450830078125
2.064111328125
1.9907958984374998
1.6798095703125
1.5218994140625
1.62744140625
1.5879638671874998
1.9754882812499999
1.5492919921875
1.5243164062499999
1.5057861328125
3.0309082031249996
3.0325195312499997
2.882666015625
2.8939453124999996
2.2993652343749997
1.8369140625
0.9305419921875
0.02900390625
0.02578125
0.0314208984375
0.14018554687499998
0.38510742187499997
0.42136230468749997
0.69609375
1.003857421875
1.2995361328125
1.429248046875
1.85625
1.6072998046875
1.641943359375
1.6483886718749998
0.027392578124999997
0.02900390625
0.443115234375
0.6114990234375
1.0578369140625
1.2656982421874998
2.5982666015625
3.0413818359375
3.0357421875
3.0421875
2.6143798828125
2.3839599609374997
2.2292724609375
1.9513183593749999
1.944873046875
1.7829345703125
1.7039794921875
2.1100341796874997
1.5041748046874999
1.5887695312499999
1.5589599609375
1.490478515625
3.0349365234374996
2.9285888671875
2.9028076171875
2.599072265625
1.9634033203124999
1.1134277343749999
0.03544921875
0.0281982421875
0.027392578124999997
0.0249755859375
0.17482910156249998
0.33273925781249997
0.5857177734375
0.9482666015625
1.1641845703125
1.4622802734375
1.1432373046875
1.7345947265625
1.6773925781249999
1.6395263671875
1.58232421875
0.0314208984375
0.3633544921875
0.36496582031249997
0.700927734375
1.0352783203125
1.8812255859375
3.0349365234374996
3.0365478515624997
3.037353515625
2.7932373046874996
2.462109375
2.2486083984375
2.193017578125
1.9859619140625
1.85947265625
1.7297607421874999
1.7007568359374998
1.5347900390625
1.5992431640625
1.6048828124999999
1.5251220703125
3.0357421875
3.0333251953125
2.953564453125
2.7368408203124996
2.6860839843749997
1.8361083984375
0.033837890625
0.02900390625
0.0298095703125
0.030615234374999998
0.091845703125
0.21591796875
0.26828613281249997
0.8314453125
1.119873046875
1.276171875
1.2592529296875
1.6056884765625
1.5726562499999999
1.6209960937499999
1.5678222656249998
0.0298095703125
0.033032226562499996
0.3923583984375
0.7291259765625
0.881396484375
1.8256347656249998
3.0325195312499997
3.0325195312499997
3.0317138671875
2.8899169921874996
2.6844726562499996
2.4242431640624997
2.3074218749999997
2.07861328125
1.957763671875
1.7732666015624998
1.6959228515625
1.851416015625
1.5968261718749999
1.5678222656249998
1.5323730468749999
3.0333251953125
3.0365478515624997
3.0220458984375
3.0389648437499996
2.840771484375
2.002880859375
0.0298095703125
0.030615234374999998
0.030615234374999998
0.0314208984375
0.02900390625
0.09990234375
0.095068359375
0.71220703125
1.0014404296875
1.094091796875
1.3188720703124999
1.2221923828124999
1.6081054687499998
1.6459716796875
1.611328125
0.02900390625
0.02900390625
0.26828613281249997
0.29245605468749997
0.7130126953125
1.2705322265624999
2.5998779296874996
3.0389648437499996
3.0357421875
3.034130859375
2.8834716796874997
2.6691650390625
2.6780273437499997
2.3485107421875
2.180126953125
2.0898925781249997
1.9658203125
1.6129394531249999
1.690283203125
1.641943359375
1.5992431640625
3.0301025390625
3.0357421875
3.034130859375
3.0357421875
2.450830078125
2.125341796875
1.132763671875
0.030615234374999998
0.0346435546875
0.02900390625
0.0298095703125
0.02578125
0.030615234374999998
0.33676757812499997
0.8999267578125
1.007080078125
1.1134277343749999
1.1045654296875
1.4598632812499999
1.5114257812499998
1.5106201171875
0.02900390625
0.030615234374999998
0.0249755859375
0.078955078125
0.639697265625
0.865283203125
2.29775390625
3.0333251953125
3.0333251953125
3.0357421875
2.9825683593749996
2.7908203124999997
2.711865234375
2.3887939453125
2.4854736328125
2.2341064453125
2.01416015625
1.8635009765625
1.915869140625
1.8119384765625
1.6483886718749998
2.8133789062499996
3.0357421875
3.037353515625
3.0397705078125
2.8174072265624996
2.2792236328124997
1.2995361328125
0.0298095703125
0.033032226562499996
0.02900390625
0.030615234374999998
0.033032226562499996
0.030615234374999998
0.23203125
0.41572265625
0.630029296875
0.8854248046875
0.992578125
1.213330078125
1.3801025390625
1.4276367187499999
0.0281982421875
0.02900390625
0.0314208984375
0.02900390625
0.0878173828125
0.613916015625
1.4107177734374998
3.0357421875
3.0365478515624997
3.0317138671875
3.0405761718749997
3.0349365234374996
3.01962890625
2.9076416015624997
2.753759765625
2.6739990234374997
2.47822265625
2.0012695312499997
2.254248046875
2.1213134765625
2.002880859375
1.8860595703124998
3.0333251953125
3.0349365234374996
3.0357421875
3.034130859375
3.0397705078125
2.173681640625
0.02900390625
0.0298095703125
0.027392578124999997
0.0346435546875
0.0298095703125
0.0298095703125
0.0281982421875
0.265869140625
0.41008300781249996
0.5599365234375
1.26328125
0.7798828124999999
0.9394042968749999
1.04736328125
0.045117187499999996
0.02900390625
0.02900390625
0.024169921875
0.0281982421875
0.030615234374999998
0.5228759765625
3.0365478515624997
3.0357421875
3.0349365234374996
3.0333251953125
3.034130859375
3.0365478515624997
3.0325195312499997
2.8858886718749996
2.8657470703124996
2.7779296875
2.0504150390625
2.3791259765625
2.3718749999999997
2.23330078125
2.1116455078125
3.037353515625
3.0333251953125
3.0309082031249996
3.0357421875
3.0349365234374996
2.3904052734375
0.030615234374999998
0.030615234374999998
0.030615234374999998
0.02578125
0.033032226562499996
0.0298095703125
0.0281982421875
0.04833984375
0.15791015625
0.2263916015625
1.0239990234375
0.5220703125
0.6324462890625
0.7025390625
0.7637695312499999
0.030615234374999998
0.0314208984375
0.033032226562499996
0.026586914062499998
0.0281982421875
0.030615234374999998
1.91748046875
3.0325195312499997
3.034130859375
3.0325195312499997
3.0381591796875
3.034130859375
3.0333251953125
3.0349365234374996
3.034130859375
3.0389648437499996
3.0236572265625
2.7569824218749996
2.8093505859374996
2.7513427734375
2.6401611328124996
3.034130859375
3.0357421875
3.0349365234374996
3.0397705078125
3.0357421875
3.0357421875
2.27841796875
0.0298095703125
0.026586914062499998
0.033032226562499996
0.033032226562499996
0.0298095703125
0.02900390625
0.02900390625
0.027392578124999997
0.0298095703125
0.030615234374999998
0.30051269531249997
0.1297119140625
0.13212890624999998
0.14018554687499998
0.0298095703125
0.02900390625
0.026586914062499998
0.0322265625
0.0322265625
0.02900390625
0.0298095703125
0.061230468749999996
2.2743896484375
3.0365478515624997
3.037353515625
3.0333251953125
3.0317138671875
3.0389648437499996
3.034130859375
3.0357421875
3.0357421875
3.034130859375
2.9930419921875
3.01962890625
2.9761230468749997
3.034130859375
3.0333251953125
3.0357421875
3.034130859375
3.0357421875
3.0357421875
3.0357421875
0.3826904296875
0.0298095703125
0.0298095703125
0.0281982421875
0.02900390625
0.026586914062499998
0.0281982421875
0.0314208984375
0.0281982421875
0.0322265625
0.1377685546875
0.0298095703125
0.045117187499999996
0.0249755859375
0.0298095703125
0.0298095703125
0.027392578124999997
0.030615234374999998
0.0298095703125
0.02900390625
0.030615234374999998
0.0314208984375
1.3929931640625
2.4290771484375
3.0365478515624997
3.0357421875
3.0365478515624997
3.034130859375
3.0365478515624997
3.0381591796875
3.0357421875
3.037353515625
3.0228515624999996
3.0268798828124996
2.9906249999999996
2.8834716796874997
3.0349365234374996
3.037353515625
3.034130859375
3.0357421875
3.0309082031249996
3.0357421875
0.8209716796875
0.030615234374999998
0.0281982421875
0.0281982421875
0.02578125
0.0298095703125
0.0298095703125
0.0281982421875
0.02900390625
0.02900390625
0.0298095703125
0.0523681640625
0.0652587890625
0.07009277343749999
0.033837890625
0.02578125
0.030615234374999998
0.0298095703125
0.0346435546875
0.02900390625
0.030615234374999998
0.033032226562499996
0.9740478515625
2.1978515625
3.037353515625
3.0349365234374996
3.0333251953125
3.0357421875
3.0413818359375
3.0357421875
3.0349365234374996
3.0357421875
3.0365478515624997
3.0365478515624997
3.0365478515624997
3.037353515625
3.0357421875
3.0349365234374996
3.0357421875
3.037353515625
3.0357421875
3.0317138671875
1.6951171875
0.104736328125
0.02900390625
0.030615234374999998
0.0322265625
0.027392578124999997
0.02900390625
0.02900390625
0.027392578124999997
0.0281982421875
0.027392578124999997
0.0298095703125
0.033032226562499996
0.06767578125
0.037060546874999996
0.0281982421875
0.02900390625
0.0298095703125
0.026586914062499998
0.0362548828125
0.0298095703125
0.027392578124999997
0.030615234374999998
1.92392578125
2.737646484375
3.0349365234374996
3.0325195312499997
3.0365478515624997
3.0365478515624997
3.034130859375
3.029296875
3.0349365234374996
3.037353515625
3.0349365234374996
3.0301025390625
2.9688720703125
3.037353515625
3.0405761718749997
3.0357421875
3.0365478515624997
3.0365478515624997
3.0317138671875
3.0333251953125
0.185302734375
0.0298095703125
0.02578125
0.0298095703125
0.0298095703125
0.02900390625
0.02900390625
0.030615234374999998
0.0298095703125
0.030615234374999998
0.0281982421875
0.0298095703125
0.027392578124999997
0.041088867187499996
0.030615234374999998
0.0298095703125
0.030615234374999998
0.030615234374999998
0.0298095703125
0.02900390625
0.0298095703125
0.02900390625
1.490478515625
2.4234375
3.037353515625
3.0357421875
3.0357421875
3.0349365234374996
3.034130859375
3.0349365234374996
3.0405761718749997
3.0325195312499997
3.0365478515624997
3.0325195312499997
3.0389648437499996
3.0357421875
3.0349365234374996
3.0357421875
3.0365478515624997
3.0357421875
3.0381591796875
3.037353515625
0.710595703125
0.027392578124999997
0.0314208984375
0.02900390625
0.0314208984375
0.02900390625
0.0298095703125
0.0298095703125
0.030615234374999998
0.030615234374999998
0.0322265625
0.030615234374999998
0.0314208984375
0.0708984375
0.02900390625
0.0298095703125
0.02900390625
0.030615234374999998
0.0314208984375
0.030615234374999998
0.0314208984375
0.02900390625
1.1939941406249999
2.096337890625
2.9068359375
3.0325195312499997
3.037353515625
3.0333251953125
3.0389648437499996
3.0365478515624997
3.0421875
2.7448974609374996
3.0325195312499997
3.0349365234374996
3.0357421875
3.0349365234374996
3.0349365234374996
3.0333251953125
3.0349365234374996
3.0365478515624997
3.034130859375
3.034130859375
1.0884521484375
0.0314208984375
0.0281982421875
0.030615234374999998
0.030615234374999998
0.0298095703125
0.0314208984375
0.027392578124999997
0.0298095703125
0.0298095703125
0.44956054687499997
0.0322265625
0.0281982421875
0.02900390625
0.0298095703125
0.030615234374999998
0.0314208984375
0.0281982421875
0.0298095703125
0.0281982421875
0.030615234374999998
0.0346435546875
0.0322265625
2.1624023437499997
2.8351318359374997
3.034130859375
3.034130859375
3.034130859375
3.0413818359375
3.0357421875
3.0357421875
3.034130859375
3.0389648437499996
3.0365478515624997
3.034130859375
2.9664550781249996
3.0389648437499996
3.0365478515624997
3.034130859375
3.034130859375
3.0357421875
3.0381591796875
2.2663330078125
0.030615234374999998
0.02900390625
0.027392578124999997
0.0362548828125
0.0281982421875
0.0281982421875
0.030615234374999998
0.0314208984375
0.0298095703125
0.030615234374999998
0.0298095703125
0.022558593749999998
0.027392578124999997
0.02900390625
0.0298095703125
0.0281982421875
0.0298095703125
0.0322265625
0.0281982421875
0.0281982421875
0.0298095703125
0.0298095703125
1.593603515625
2.4548583984375
2.9930419921875
3.0357421875
3.0381591796875
3.0317138671875
3.037353515625
3.034130859375
3.0357421875
2.9624267578124996
3.0349365234374996
3.0349365234374996
3.029296875
3.0357421875
3.0325195312499997
3.0365478515624997
3.0357421875
3.0365478515624997
3.0357421875
2.63291015625
0.5244873046874999
0.030615234374999998
0.0298095703125
0.030615234374999998
0.030615234374999998
0.0298095703125
0.02900390625
0.033032226562499996
0.0298095703125
0.02900390625
0.153076171875
0.030615234374999998
0.0717041015625
0.0362548828125
0.0249755859375
0.024169921875
0.0281982421875
0.0298095703125
0.02900390625
0.02900390625
0.0281982421875
0.02900390625
1.0111083984375
2.1084228515625
2.937451171875
3.0381591796875
3.0333251953125
3.0365478515624997
3.0389648437499996
3.0365478515624997
3.037353515625
3.0357421875
3.037353515625
3.0365478515624997
3.0164062499999997
2.921337890625
3.0284912109374997
3.0349365234374996
3.0357421875
3.0349365234374996
3.0357421875
3.0349365234374996
1.0828125
0.0298095703125
0.030615234374999998
0.02900390625
0.0314208984375
0.024169921875
0.0298095703125
0.0298095703125
0.02578125
0.027392578124999997
0.0298095703125
0.0314208984375
0.057202148437499996
0.04189453125
0.033032226562499996
0.030615234374999998
0.0298095703125
0.0281982421875
0.030615234374999998
0.02900390625
0.0298095703125
0.0314208984375
0.5389892578125
2.1857666015625
2.8560791015625
3.0365478515624997
3.0357421875
3.0357421875
3.0349365234374996
3.0365478515624997
3.0381591796875
3.0083496093749997
3.0389648437499996
3.0357421875
3.0349365234374996
3.0325195312499997
3.034130859375
3.0365478515624997
3.0357421875
3.0309082031249996
3.034130859375
3.0357421875
1.5509033203125
0.0314208984375
0.0298095703125
0.0298095703125
0.0298095703125
0.027392578124999997
0.0314208984375
0.02900390625
0.0298095703125
0.0322265625
0.0298095703125
0.02900390625
0.0314208984375
0.030615234374999998
0.033032226562499996
0.0281982421875
0.0281982421875
0.02900390625
0.0281982421875
0.033837890625
0.0281982421875
0.0298095703125
0.31904296875
2.002880859375
2.7626220703124997
3.0365478515624997
3.0365478515624997
3.0357421875
3.037353515625
3.0357421875
3.0365478515624997
3.0325195312499997
3.0349365234374996
3.0357421875
3.0357421875
2.9946533203124996
3.034130859375
3.0333251953125
3.037353515625
3.0325195312499997
3.0357421875
3.0365478515624997
3.037353515625
0.575244140625
0.02900390625
0.0298095703125
0.027392578124999997
0.0298095703125
0.026586914062499998
0.0314208984375
0.030615234374999998
0.0298095703125
0.02900390625
0.02900390625
0.02900390625
0.02578125
0.0322265625
0.0281982421875
0.02900390625
0.0298095703125
0.02900390625
0.0314208984375
0.0314208984375
0.0298095703125
0.0281982421875
1.7394287109375
2.5966552734375
3.0357421875
3.0357421875
3.034130859375
3.0357421875
3.037353515625
3.0317138671875
3.037353515625
3.027685546875
3.0333251953125
3.0381591796875
2.9922363281249997
3.0349365234374996
3.0365478515624997
3.0397705078125
3.0365478515624997
3.0325195312499997
3.034130859375
3.034130859375
1.013525390625
0.030615234374999998
0.02578125
0.0298095703125
0.0281982421875
0.0298095703125
0.0298095703125
0.0281982421875
0.027392578124999997
0.0281982421875
0.027392578124999997
0.0298095703125
0.02578125
0.0281982421875
0.02900390625
0.0281982421875
0.024169921875
0.0281982421875
0.0298095703125
0.0281982421875
0.0281982421875
0.0314208984375
1.3100097656249998
2.586181640625
3.0357421875
3.034130859375
3.037353515625
3.034130859375
3.0397705078125
3.0365478515624997
3.034130859375
3.0357421875
3.0325195312499997
3.0389648437499996
3.0357421875
2.972900390625
3.0421875
3.0357421875
3.034130859375
3.0349365234374996
3.0389648437499996
3.0357421875
1.2721435546875
0.02900390625
0.02900390625
0.027392578124999997
0.0281982421875
0.0298095703125
0.02900390625
0.0298095703125
0.027392578124999997
0.033032226562499996
0.0668701171875
0.0298095703125
0.030615234374999998
0.049145507812499996
0.027392578124999997
0.0314208984375
0.030615234374999998
0.0281982421875
0.02900390625
0.038671874999999994
0.02900390625
0.02900390625
1.216552734375
2.1615966796875
2.8456054687499996
3.0365478515624997
3.034130859375
3.037353515625
3.0349365234374996
3.0381591796875
3.0333251953125
3.0357421875
3.0381591796875
3.0325195312499997
3.0365478515624997
2.9930419921875
3.0357421875
3.0357421875
3.0357421875
3.0357421875
3.0349365234374996
3.0333251953125
1.203662109375
0.045117187499999996
0.0298095703125
0.024169921875
0.030615234374999998
0.0281982421875
0.02900390625
0.0281982421875
0.0298095703125
0.0281982421875
0.39799804687499996
0.0281982421875
0.0298095703125
0.02900390625
0.0298095703125
0.0281982421875
0.0298095703125
0.0298095703125
0.02900390625
0.02900390625
0.026586914062499998
0.0298095703125
0.0314208984375
1.8111328125
2.65869140625
3.0357421875
3.0381591796875
3.034130859375
3.0357421875
3.0357421875
3.034130859375
3.0317138671875
3.0325195312499997
3.0357421875
3.0389648437499996
3.0043212890624997
3.0349365234374996
3.0357421875
3.0333251953125
3.0365478515624997
3.0317138671875
3.034130859375
3.0357421875
0.7371826171875
0.027392578124999997
0.0298095703125
0.0314208984375
0.02900390625
0.0298095703125
0.0298095703125
0.0298095703125
0.0298095703125
0.0298095703125
0.02900390625
0.02900390625
0.0298095703125
0.0314208984375
0.030615234374999998
0.030615234374999998
0.0281982421875
0.0298095703125
0.0298095703125
0.02900390625
0.0298095703125
0.02900390625
1.448583984375
2.698974609375
3.0357421875
3.0357421875
3.0333251953125
3.034130859375
3.0325195312499997
3.0333251953125
3.0349365234374996
3.034130859375
3.0220458984375
3.0349365234374996
3.0244628906249997
3.034130859375
3.0365478515624997
3.0357421875
3.0357421875
3.0349365234374996
3.0317138671875
3.034130859375
1.1375976562499999
0.0298095703125
0.02900390625
0.0281982421875
0.027392578124999997
0.02900390625
0.0281982421875
0.0298095703125
0.026586914062499998
0.02900390625
0.02578125
0.030615234374999998
0.0314208984375
0.0298095703125
0.030615234374999998
0.0298095703125
0.030615234374999998
0.0298095703125
0.02900390625
0.0281982421875
0.0281982421875
0.0298095703125
1.3768798828125
2.462109375
2.9978759765625
3.034130859375
3.0309082031249996
3.037353515625
3.0357421875
3.037353515625
3.034130859375
2.6764160156249996
3.0172119140625
3.0357421875
2.989013671875
2.8681640625
3.0381591796875
3.0357421875
3.0349365234374996
3.0357421875
3.0349365234374996
3.034130859375
1.2584472656249999
0.0298095703125
0.0298095703125
0.0298095703125
0.0314208984375
0.026586914062499998
0.02900390625
0.0281982421875
0.033837890625
0.033032226562499996
0.0314208984375
0.033837890625
0.0281982421875
0.0298095703125
0.033032226562499996
0.026586914062499998
0.0298095703125
0.030615234374999998
0.030615234374999998
0.0298095703125
0.02900390625
0.027392578124999997
0.6807861328125
1.960986328125
2.82626953125
3.0357421875
3.0349365234374996
3.0381591796875
3.0317138671875
3.0333251953125
3.0357421875
2.9302001953124996
3.0357421875
3.0357421875
3.0309082031249996
3.0043212890624997
3.0365478515624997
3.034130859375
3.0381591796875
3.0381591796875
3.0349365234374996
3.0317138671875
1.3744628906249998
0.23928222656249998
0.0298095703125
0.02900390625
0.020947265625
0.0298095703125
0.02900390625
0.02900390625
0.02900390625
0.0298095703125
0.0298095703125
0.0298095703125
0.030615234374999998
0.033837890625
0.02900390625
0.0314208984375
0.0281982421875
0.033837890625
0.02900390625
0.026586914062499998
0.027392578124999997
0.0298095703125
0.02900390625
1.8715576171875
2.5595947265624996
3.0325195312499997
3.0389648437499996
3.0349365234374996
3.0357421875
3.0333251953125
3.0381591796875
3.0397705078125
2.8681640625
3.0357421875
3.0365478515624997
2.9720947265624997
3.0381591796875
3.0405761718749997
3.0357421875
3.0357421875
3.034130859375
3.0357421875
3.0349365234374996
0.9305419921875
0.026586914062499998
0.0298095703125
0.0314208984375
0.0314208984375
0.0298095703125
0.0298095703125
0.0281982421875
0.0298095703125
0.0298095703125
0.03544921875
0.0298095703125
0.0281982421875
0.027392578124999997
0.02900390625
0.02900390625
0.02900390625
0.0281982421875
0.0298095703125
0.0314208984375
0.02900390625
0.026586914062499998
1.4920898437499999
2.3549560546875
2.89716796875
3.034130859375
3.0381591796875
3.0357421875
3.0333251953125
3.0333251953125
3.0357421875
3.034130859375
3.037353515625
3.0357421875
3.0083496093749997
3.0357421875
3.0381591796875
3.0349365234374996
3.037353515625
3.0357421875
3.0389648437499996
3.0349365234374996
0.8709228515624999
0.0298095703125
0.030615234374999998
0.02900390625
0.02900390625
0.0298095703125
0.030615234374999998
0.0314208984375
0.0298095703125
0.0298095703125
0.0298095703125
0.027392578124999997
0.02900390625
0.0322265625
0.0298095703125
0.026586914062499998
0.02578125
0.0298095703125
0.030615234374999998
0.027392578124999997
0.0298095703125
0.0298095703125
0.6968994140625
1.815966796875
2.68125
3.034130859375
3.0381591796875
3.0349365234374996
3.0333251953125
3.0381591796875
3.0349365234374996
3.0389648437499996
3.0325195312499997
3.0349365234374996
3.0349365234374996
2.9624267578124996
3.0317138671875
3.034130859375
3.0349365234374996
3.0357421875
3.0357421875
3.0365478515624997
1.2673095703125
0.0281982421875
0.0314208984375
0.027392578124999997
0.0281982421875
0.0298095703125
0.0281982421875
0.02900390625
0.02900390625
0.026586914062499998
0.0281982421875
0.02900390625
0.0249755859375
0.0298095703125
0.030615234374999998
0.0322265625
0.02900390625
0.030615234374999998
0.0298095703125
0.0281982421875
0.0298095703125
0.02900390625
0.030615234374999998
1.4816162109375
2.487890625
2.89716796875
3.0309082031249996
3.0317138671875
3.0357421875
3.037353515625
3.0365478515624997
3.0365478515624997
3.0357421875
3.0349365234374996
2.9978759765625
2.9181152343749996
3.0349365234374996
3.0357421875
3.0365478515624997
3.0365478515624997
3.0349365234374996
3.037353515625
3.001904296875
0.5921630859375
0.030615234374999998
0.033032226562499996
0.02900390625
0.0298095703125
0.026586914062499998
0.0298095703125
0.02900390625
0.020947265625
0.0281982421875
0.02900390625
0.0314208984375
0.030615234374999998
0.0298095703125
0.02578125
0.030615234374999998
0.0281982421875
0.030615234374999998
0.026586914062499998
0.02900390625
0.0314208984375
0.033032226562499996
2.1841552734375
2.8778320312499996
3.037353515625
3.034130859375
3.0381591796875
3.0365478515624997
3.0325195312499997
3.0365478515624997
3.034130859375
3.0389648437499996
3.0357421875
3.018017578125
2.9841796874999997
3.0357421875
3.0365478515624997
3.037353515625
3.0325195312499997
3.034130859375
3.0357421875
3.0349365234374996
0.6517822265625
0.024169921875
0.0298095703125
0.0322265625
0.02900390625
0.0298095703125
0.0362548828125
0.0298095703125
0.0314208984375
0.0322265625
0.0322265625
0.0298095703125
0.0298095703125
0.02900390625
0.0298095703125
0.030615234374999998
0.02900390625
0.02900390625
0.02578125
0.030615234374999998
0.030615234374999998
0.0281982421875
2.1503173828124997
3.018017578125
3.0349365234374996
3.0349365234374996
3.0349365234374996
3.037353515625
3.0389648437499996
3.034130859375
3.0365478515624997
3.0365478515624997
2.9704833984374996
2.9930419921875
2.95517578125
2.9205322265625
3.034130859375
3.0317138671875
3.0357421875
3.034130859375
3.0357421875
3.0365478515624997
1.0248046874999999
0.02900390625
0.0298095703125
0.0298095703125
0.030615234374999998
0.0314208984375
0.030615234374999998
0.030615234374999998
0.0281982421875
0.026586914062499998
0.0281982421875
0.0298095703125
0.0298095703125
0.02900390625
0.022558593749999998
0.02900390625
0.0281982421875
0.0281982421875
0.026586914062499998
0.0298095703125
0.030615234374999998
0.027392578124999997
1.60166015625
3.0365478515624997
3.0357421875
3.0365478515624997
3.037353515625
3.0309082031249996
3.0357421875
3.0365478515624997
3.0325195312499997
2.8294921874999996
3.0349365234374996
2.9253662109375
2.9076416015624997
2.9068359375
3.0357421875
3.0365478515624997
3.034130859375
3.0357421875
3.0317138671875
3.0381591796875
1.5654052734375
0.0314208984375
0.02900390625
0.02900390625
0.0281982421875
0.027392578124999997
0.02900390625
0.033032226562499996
0.0281982421875
0.0298095703125
0.0298095703125
0.033032226562499996
0.030615234374999998
0.02900390625
0.02900390625
0.0298095703125
0.030615234374999998
0.0281982421875
0.02900390625
0.02900390625
0.02900390625
0.0298095703125
1.522705078125
2.721533203125
3.0333251953125
3.034130859375
3.0349365234374996
3.034130859375
3.037353515625
3.0349365234374996
3.0357421875
3.0333251953125
3.0349365234374996
2.9463134765624996
2.9575927734375
2.8995849609374997
3.0349365234374996
3.037353515625
3.0333251953125
3.0389648437499996
3.0357421875
3.0349365234374996
1.87236328125
0.1571044921875
0.0298095703125
0.02578125
0.030615234374999998
0.02900390625
0.0298095703125
0.0298095703125
0.0298095703125
0.0298095703125
0.0322265625
0.0298095703125
0.026586914062499998
0.024169921875
0.026586914062499998
0.0298095703125
0.0281982421875
0.0298095703125
0.0298095703125
0.026586914062499998
0.024169921875
0.030615234374999998
0.027392578124999997
2.6280761718749996
3.0365478515624997
3.0357421875
3.0333251953125
3.0357421875
3.034130859375
3.0357421875
3.0381591796875
3.034130859375
2.83271484375
3.037353515625
2.9970703125
2.8673583984374997
3.034130859375
3.0365478515624997
3.0317138671875
3.0333251953125
3.0357421875
3.034130859375
3.0357421875
0.646142578125
0.026586914062499998
0.030615234374999998
0.026586914062499998
0.0281982421875
0.0298095703125
0.030615234374999998
0.02900390625
0.0298095703125
0.022558593749999998
0.027392578124999997
0.02578125
0.0298095703125
0.0346435546875
0.0281982421875
0.0298095703125
0.0298095703125
0.030615234374999998
0.0298095703125
0.030615234374999998
0.033032226562499996
0.0298095703125
2.2341064453125
3.034130859375
3.0357421875
3.034130859375
3.0365478515624997
3.034130859375
3.0349365234374996
3.0389648437499996
3.034130859375
3.0333251953125
2.8302978515625
2.9785400390624996
2.9068359375
2.8093505859374996
3.034130859375
3.037353515625
3.034130859375
3.0405761718749997
3.0333251953125
3.0365478515624997
1.2350830078125
0.02900390625
0.027392578124999997
0.02900390625
0.0314208984375
0.0298095703125
0.02900390625
0.0314208984375
0.0281982421875
0.030615234374999998
0.03544921875
0.0298095703125
0.0281982421875
0.023364257812499997
0.03544921875
0.02900390625
0.0314208984375
0.0314208984375
0.030615234374999998
0.02900390625
0.026586914062499998
0.02900390625
2.373486328125
3.034130859375
3.0381591796875
3.037353515625
3.0389648437499996
3.0349365234374996
3.0357421875
3.034130859375
3.034130859375
3.0365478515624997
2.89072265625
2.94873046875
2.8818603515624996
2.795654296875
3.0357421875
3.0381591796875
3.037353515625
3.0333251953125
3.0357421875
3.034130859375
0.992578125
0.026586914062499998
0.030615234374999998
0.0298095703125
0.0298095703125
0.0314208984375
0.0298095703125
0.030615234374999998
0.026586914062499998
0.0298095703125
0.0298095703125
0.027392578124999997
0.030615234374999998
0.033032226562499996
0.0298095703125
0.0298095703125
0.0314208984375
0.02900390625
0.02900390625
0.0249755859375
0.027392578124999997
0.0314208984375
1.93681640625
2.8399658203125
3.037353515625
3.0333251953125
3.0397705078125
3.034130859375
3.0357421875
3.034130859375
3.0357421875
3.0405761718749997
3.0365478515624997
2.9422851562499996
2.9583984374999996
2.874609375
3.0397705078125
3.0365478515624997
3.0357421875
3.0381591796875
3.037353515625
3.0381591796875
2.8617187499999996
0.4278076171875
0.02900390625
0.0298095703125
0.030615234374999998
0.027392578124999997
0.0298095703125
0.02900390625
0.02900390625
0.033837890625
0.027392578124999997
0.030615234374999998
0.0322265625
0.02900390625
0.026586914062499998
0.02900390625
0.027392578124999997
0.0298095703125
0.030615234374999998
0.0314208984375
0.02900390625
0.02578125
0.0314208984375
2.2727783203125
3.0333251953125
3.037353515625
3.0333251953125
3.0349365234374996
3.0349365234374996
3.034130859375
3.0325195312499997
3.0333251953125
3.0365478515624997
3.005126953125
2.9156982421874997
2.9020019531249996
3.0325195312499997
3.0357421875
3.0365478515624997
3.037353515625
3.037353515625
3.0365478515624997
3.0357421875
0.8282226562499999
0.030615234374999998
0.0314208984375
0.0298095703125
0.0298095703125
0.0314208984375
0.0281982421875
0.030615234374999998
0.0298095703125
0.0281982421875
0.0281982421875
0.0281982421875
0.0314208984375
0.030615234374999998
0.0281982421875
0.030615234374999998
0.02900390625
0.027392578124999997
0.030615234374999998
0.02900390625
0.026586914062499998
0.02900390625
2.4580810546875
3.034130859375
3.0405761718749997
3.0325195312499997
3.0357421875
3.0333251953125
3.037353515625
3.0349365234374996
3.034130859375
2.9326171875
2.9358398437499997
2.9849853515625
2.9116699218749997
2.7988769531249997
3.0349365234374996
3.0357421875
3.0333251953125
3.0365478515624997
3.0357421875
3.0357421875
0.8306396484374999
0.02900390625
0.0298095703125
0.02900390625
0.0281982421875
0.033032226562499996
0.02900390625
0.0281982421875
0.026586914062499998
0.02900390625
0.027392578124999997
0.0314208984375
0.0281982421875
0.027392578124999997
0.02900390625
0.0346435546875
0.0281982421875
0.027392578124999997
0.027392578124999997
0.0298095703125
0.0281982421875
0.026586914062499998
2.0117431640625
3.0357421875
3.0365478515624997
3.0357421875
3.0365478515624997
3.0349365234374996
3.0357421875
3.0397705078125
3.0357421875
2.9156982421874997
3.037353515625
2.9922363281249997
2.9994873046875
2.95517578125
3.0365478515624997
3.0325195312499997
3.0365478515624997
3.0333251953125
3.0365478515624997
3.0349365234374996
1.4171630859375
0.0443115234375
0.0281982421875
0.0298095703125
0.0298095703125
0.02578125
0.0298095703125
0.02900390625
0.02900390625
0.0298095703125
0.02900390625
0.0281982421875
0.02900390625
0.030615234374999998
0.026586914062499998
0.02900390625
0.0298095703125
0.0298095703125
0.0322265625
0.03544921875
0.0298095703125
0.02900390625
1.148876953125
2.9285888671875
3.0357421875
3.0357421875
3.0349365234374996
3.0357421875
3.037353515625
3.0349365234374996
3.034130859375
3.034130859375
2.72314453125
2.9882080078124997
2.9817626953125
2.908447265625
3.043798828125
3.0397705078125
3.0357421875
3.0333251953125
3.0349365234374996
3.037353515625
3.0333251953125
0.03544921875
0.030615234374999998
0.026586914062499998
0.030615234374999998
0.0314208984375
0.0281982421875
0.0281982421875
0.027392578124999997
0.02900390625
0.0314208984375
0.0281982421875
0.0281982421875
0.02578125
0.0281982421875
0.0314208984375
0.033032226562499996
0.027392578124999997
0.0281982421875
0.02900390625
0.0298095703125
0.02900390625
0.061230468749999996
2.8456054687499996
3.0357421875
3.0333251953125
3.0357421875
3.037353515625
3.0333251953125
3.0325195312499997
3.0301025390625
3.0365478515624997
3.0349365234374996
3.0333251953125
3.0244628906249997
2.9600097656249997
3.0349365234374996
3.037353515625
3.0365478515624997
3.043798828125
3.034130859375
3.034130859375
3.037353515625
0.472119140625
0.0322265625
0.030615234374999998
0.02900390625
0.030615234374999998
0.02900390625
0.026586914062499998
0.0281982421875
0.027392578124999997
0.0298095703125
0.0298095703125
0.02900390625
0.026586914062499998
0.02900390625
0.030615234374999998
0.02900390625
0.02900390625
0.02900390625
0.02900390625
0.0281982421875
0.026586914062499998
0.02900390625
2.5724853515625
3.0365478515624997
3.0333251953125
3.037353515625
3.0325195312499997
3.034130859375
3.0333251953125
3.0357421875
3.037353515625
3.0365478515624997
2.9036132812499997
3.018017578125
2.940673828125
2.8496337890624996
3.0349365234374996
3.0349365234374996
3.037353515625
3.0389648437499996
3.0333251953125
3.0357421875
1.0223876953125
0.0314208984375
0.030615234374999998
0.0298095703125
0.0362548828125
0.0281982421875
0.0314208984375
0.02578125
0.030615234374999998
0.02900390625
0.030615234374999998
0.0298095703125
0.0298095703125
0.0314208984375
0.0298095703125
0.02900390625
0.02900390625
0.02900390625
0.0298095703125
0.030615234374999998
0.0298095703125
0.0314208984375
1.972265625
3.0357421875
3.0349365234374996
3.0357421875
3.0325195312499997
3.0357421875
3.0357421875
3.0365478515624997
3.037353515625
3.0357421875
3.0357421875
2.9672607421875
2.9906249999999996
2.92294921875
3.0333251953125
3.0349365234374996
3.034130859375
3.034130859375
3.037353515625
3.0357421875
2.1624023437499997
0.0281982421875
0.026586914062499998
0.024169921875
0.03544921875
0.0281982421875
0.0314208984375
0.0298095703125
0.02900390625
0.02900390625
0.030615234374999998
0.02900390625
0.02900390625
0.026586914062499998
0.030615234374999998
0.02900390625
0.02900390625
0.0281982421875
0.0298095703125
0.027392578124999997
0.0281982421875
0.0322265625
1.9875732421874999
3.0325195312499997
3.0349365234374996
3.0333251953125
3.0397705078125
3.0365478515624997
3.0349365234374996
3.0365478515624997
3.037353515625
3.0357421875
3.0188232421874996
3.034130859375
2.9833740234375
2.9205322265625
3.0357421875
3.037353515625
3.0349365234374996
3.034130859375
3.0357421875
3.0357421875
2.4339111328125
0.2892333984375
0.0281982421875
0.0298095703125
0.02900390625
0.0298095703125
0.026586914062499998
0.0314208984375
0.02900390625
0.030615234374999998
0.0298095703125
0.02900390625
0.0298095703125
0.0281982421875
0.0298095703125
0.0281982421875
0.0281982421875
0.0298095703125
0.030615234374999998
0.02900390625
0.0314208984375
0.026586914062499998
0.2666748046875
2.8544677734375
3.0349365234374996
3.0349365234374996
3.0349365234374996
3.0357421875
3.0349365234374996
3.0365478515624997
3.0365478515624997
3.0365478515624997
3.0381591796875
3.0107666015624996
3.0333251953125
2.9712890625
3.0357421875
3.0365478515624997
3.0357421875
3.0349365234374996
3.0325195312499997
3.0365478515624997
3.0357421875
0.6912597656249999
0.0298095703125
0.0314208984375
0.02900390625
0.0322265625
0.02578125
0.02900390625
0.0314208984375
0.027392578124999997
0.0298095703125
0.0298095703125
0.0322265625
0.02900390625
0.030615234374999998
0.023364257812499997
0.0281982421875
0.027392578124999997
0.02900390625
0.02578125
0.02900390625
0.0314208984375
0.02900390625
2.4814453125
3.0325195312499997
3.0349365234374996
3.0357421875
3.037353515625
3.037353515625
3.0357421875
3.0357421875
3.034130859375
2.7585937499999997
3.0357421875
3.034130859375
2.956787109375
2.9608154296875
3.0333251953125
3.0357421875
3.0357421875
3.0333251953125
3.0325195312499997
3.034130859375
1.1512939453125
0.0298095703125
0.0281982421875
0.030615234374999998
0.0298095703125
0.0298095703125
0.030615234374999998
0.026586914062499998
0.033837890625
0.0298095703125
0.033032226562499996
0.027392578124999997
0.02900390625
0.0298095703125
0.02900390625
0.0298095703125
0.02578125
0.026586914062499998
0.0298095703125
0.0281982421875
0.02900390625
0.024169921875
2.4516357421875
3.0365478515624997
3.0317138671875
3.0365478515624997
3.0357421875
3.0349365234374996
3.0357421875
3.0405761718749997
3.034130859375
3.0357421875
3.0357421875
2.985791015625
2.995458984375
2.9527587890625
3.034130859375
3.0357421875
3.0349365234374996
3.037353515625
3.0397705078125
3.0349365234374996
1.3301513671874998
0.02900390625
0.0281982421875
0.0298095703125
0.0298095703125
0.026586914062499998
0.0281982421875
0.030615234374999998
0.030615234374999998
0.026586914062499998
0.0298095703125
0.02578125
0.0322265625
0.030615234374999998
0.027392578124999997
0.0322265625
0.02900390625
0.027392578124999997
0.02900390625
0.02900390625
0.02900390625
0.0314208984375
2.280029296875
3.0325195312499997
3.0349365234374996
3.0333251953125
3.034130859375
3.0357421875
3.0389648437499996
3.0357421875
3.0325195312499997
3.0325195312499997
2.6498291015624997
3.0043212890624997
2.9334228515625
2.866552734375
3.034130859375
3.0333251953125
3.0357421875
3.0333251953125
3.0389648437499996
3.034130859375
2.9543701171874996
0.49790039062499997
0.030615234374999998
0.0322265625
0.033032226562499996
0.0249755859375
0.02900390625
0.0298095703125
0.0322265625
0.02900390625
0.0281982421875
0.0249755859375
0.02578125
0.0298095703125
0.0281982421875
0.0298095703125
0.0298095703125
0.0281982421875
0.02900390625
0.02900390625
0.030615234374999998
0.02900390625
0.02900390625
3.0357421875
3.0357421875
3.0349365234374996
3.0357421875
3.0365478515624997
3.034130859375
3.0357421875
3.0357421875
3.0349365234374996
3.0325195312499997
3.0333251953125
3.0325195312499997
2.96484375
3.0357421875
3.034130859375
3.034130859375
3.0349365234374996
3.0357421875
3.034130859375
3.0357421875
0.5744384765625
0.0298095703125
0.0298095703125
0.030615234374999998
0.0314208984375
0.0281982421875
0.02578125
0.02900390625
0.02900390625
0.0298095703125
0.02900390625
0.027392578124999997
0.0298095703125
0.03544921875
0.026586914062499998
0.030615234374999998
0.0298095703125
0.02900390625
0.033032226562499996
0.024169921875
0.0322265625
0.02900390625
2.6619140624999997
3.0333251953125
3.0309082031249996
3.0325195312499997
3.0333251953125
3.0349365234374996
3.0349365234374996
3.0325195312499997
3.034130859375
3.0365478515624997
2.872998046875
2.9221435546874996
2.874609375
2.8294921874999996
3.0349365234374996
3.034130859375
3.0349365234374996
3.0325195312499997
3.0333251953125
3.034130859375
0.8290283203125
0.0298095703125
0.0314208984375
0.026586914062499998
0.030615234374999998
0.0322265625
0.027392578124999997
0.02900390625
0.0298095703125
0.0298095703125
0.02900390625
0.02900390625
0.027392578124999997
0.02900390625
0.0298095703125
0.02900390625
0.030615234374999998
0.024169921875
0.030615234374999998
0.033032226562499996
0.0314208984375
0.0298095703125
1.94970703125
3.0389648437499996
3.0389648437499996
3.034130859375
3.0381591796875
3.0333251953125
3.0389648437499996
3.0309082031249996
3.034130859375
3.0317138671875
3.0325195312499997
2.9817626953125
3.0188232421874996
2.9495361328125
3.0349365234374996
3.0333251953125
3.0357421875
3.043798828125
3.0365478515624997
3.0365478515624997
2.289697265625
0.0314208984375
0.0281982421875
0.0298095703125
0.0298095703125
0.0298095703125
0.02900390625
0.030615234374999998
0.027392578124999997
0.02900390625
0.0298095703125
0.0298095703125
0.0281982421875
0.0298095703125
0.02900390625
0.0322265625
0.02900390625
0.0281982421875
0.0322265625
0.026586914062499998
0.0314208984375
0.02900390625
1.9682373046875
3.0365478515624997
3.0349365234374996
3.0357421875
3.037353515625
3.0381591796875
3.0349365234374996
3.0357421875
3.0349365234374996
3.0365478515624997
3.034130859375
2.972900390625
2.9422851562499996
2.937451171875
3.0421875
3.0357421875
3.0357421875
3.0381591796875
3.0325195312499997
3.0333251953125
2.4306884765625
0.285205078125
0.0281982421875
0.030615234374999998
0.0298095703125
0.0281982421875
0.0249755859375
0.02900390625
0.027392578124999997
0.033837890625
0.0298095703125
0.02900390625
0.02578125
0.0281982421875
0.02900390625
0.02900390625
0.027392578124999997
0.0249755859375
0.033032226562499996
0.0249755859375
0.02900390625
0.0298095703125
0.6276123046875
2.9237548828124997
3.0325195312499997
3.0317138671875
3.0365478515624997
3.037353515625
3.034130859375
3.0349365234374996
3.0357421875
3.0357421875
3.0333251953125
3.0333251953125
3.0357421875
2.977734375
3.0365478515624997
3.037353515625
3.037353515625
3.0349365234374996
3.0365478515624997
3.0349365234374996
3.037353515625
0.708984375
0.02900390625
0.0298095703125
0.027392578124999997
0.0298095703125
0.0298095703125
0.027392578124999997
0.02900390625
0.030615234374999998
0.02900390625
0.0281982421875
0.0298095703125
0.026586914062499998
0.02900390625
0.0281982421875
0.0314208984375
0.02900390625
0.030615234374999998
0.027392578124999997
0.0281982421875
0.0314208984375
0.02900390625
2.6208251953125
3.0357421875
3.0349365234374996
3.0349365234374996
3.0357421875
3.0357421875
3.0365478515624997
3.0389648437499996
3.0349365234374996
2.8423828125
3.0381591796875
3.034130859375
2.9438964843749997
2.9366455078125
3.034130859375
3.034130859375
3.0349365234374996
3.0309082031249996
3.0349365234374996
3.034130859375
1.0304443359375
0.0281982421875
0.0281982421875
0.0298095703125
0.026586914062499998
0.0314208984375
0.0314208984375
0.0281982421875
0.0298095703125
0.0298095703125
0.02900390625
0.0314208984375
0.0298095703125
0.0298095703125
0.0281982421875
0.0281982421875
0.02900390625
0.02900390625
0.030615234374999998
0.02900390625
0.027392578124999997
0.02900390625
2.5112548828124996
3.034130859375
3.0357421875
3.0357421875
3.0357421875
3.0389648437499996
3.0357421875
3.0365478515624997
3.0349365234374996
3.0244628906249997
3.037353515625
2.963232421875
2.9656494140625
2.900390625
3.0357421875
3.0349365234374996
3.0365478515624997
3.0365478515624997
3.0365478515624997
3.0357421875
1.16015625
0.0298095703125
0.0298095703125
0.0346435546875
0.0281982421875
0.0314208984375
0.0281982421875
0.0298095703125
0.0314208984375
0.0298095703125
0.030615234374999998
0.02900390625
0.02578125
0.0298095703125
0.0298095703125
0.02900390625
0.030615234374999998
0.0298095703125
0.02578125
0.02900390625
0.023364257812499997
0.0322265625
2.2905029296875
3.0421875
3.0349365234374996
3.0357421875
3.0357421875
3.0357421875
3.0365478515624997
3.037353515625
3.0357421875
3.0357421875
2.7207275390624996
3.0349365234374996
2.9994873046875
2.9140869140624996
3.0357421875
3.0357421875
3.0301025390625
3.0365478515624997
3.0325195312499997
3.037353515625
3.027685546875
0.46083984375
0.02900390625
0.027392578124999997
0.0314208984375
0.030615234374999998
0.02900390625
0.02900390625
0.02900390625
0.033032226562499996
0.02578125
0.023364257812499997
0.0314208984375
0.02900390625
0.02900390625
0.030615234374999998
0.0298095703125
0.0298095703125
0.02900390625
0.02900390625
0.0281982421875
0.0314208984375
0.0298095703125
2.5902099609375
3.0317138671875
3.0357421875
3.0349365234374996
3.034130859375
3.0349365234374996
3.034130859375
3.034130859375
3.0381591796875
3.0357421875
2.8955566406249997
3.034130859375
2.9519531249999997
2.8697753906249996
3.0397705078125
3.0333251953125
3.0365478515624997
3.037353515625
3.0349365234374996
3.0357421875
0.7951904296875
0.02900390625
0.0281982421875
0.0281982421875
0.027392578124999997
0.0298095703125
0.0314208984375
0.0298095703125
0.0281982421875
0.026586914062499998
0.030615234374999998
0.0298095703125
0.027392578124999997
0.026586914062499998
0.0314208984375
0.030615234374999998
0.0298095703125
0.033837890625
0.027392578124999997
0.0281982421875
0.027392578124999997
0.0298095703125
2.8399658203125
3.0349365234374996
3.0333251953125
3.0357421875
3.0357421875
3.037353515625
3.0357421875
3.034130859375
3.0325195312499997
3.0357421875
2.9108642578125
2.96484375
2.9519531249999997
2.8625244140625
3.0365478515624997
3.0365478515624997
3.0429931640624996
3.0405761718749997
3.0365478515624997
3.034130859375
0.8612548828125
0.027392578124999997
0.0298095703125
0.030615234374999998
0.0314208984375
0.030615234374999998
0.026586914062499998
0.0314208984375
0.0298095703125
0.030615234374999998
0.030615234374999998
0.02900390625
0.0314208984375
0.033032226562499996
0.02900390625
0.0281982421875
0.0281982421875
0.02578125
0.02900390625
0.02900390625
0.0298095703125
0.03544921875
2.05927734375
3.0365478515624997
3.0357421875
3.037353515625
3.0357421875
3.0325195312499997
3.0349365234374996
3.0349365234374996
3.034130859375
3.0325195312499997
3.0325195312499997
2.9720947265624997
3.003515625
2.9181152343749996
3.0357421875
3.0325195312499997
3.0317138671875
3.0357421875
3.0349365234374996
3.0333251953125
2.128564453125
0.13615722656249998
0.0281982421875
0.0298095703125
0.02900390625
0.0281982421875
0.033032226562499996
0.030615234374999998
0.0314208984375
0.030615234374999998
0.02900390625
0.030615234374999998
0.030615234374999998
0.0298095703125
0.033032226562499996
0.0298095703125
0.030615234374999998
0.026586914062499998
0.0298095703125
0.0281982421875
0.0298095703125
0.0314208984375
0.7194580078124999
2.86494140625
3.0349365234374996
3.0389648437499996
3.0357421875
3.0357421875
3.037353515625
3.0389648437499996
3.0357421875
3.0357421875
3.037353515625
3.0236572265625
2.9334228515625
2.8858886718749996
3.034130859375
3.037353515625
3.0349365234374996
3.034130859375
3.0405761718749997
3.0333251953125
3.0389648437499996
0.578466796875
0.0298095703125
0.0281982421875
0.02900390625
0.0281982421875
0.02900390625
0.0217529296875
0.0298095703125
0.027392578124999997
0.030615234374999998
0.02900390625
0.02578125
0.026586914062499998
0.0314208984375
0.030615234374999998
0.0281982421875
0.0322265625
0.02900390625
0.0281982421875
0.0314208984375
0.0281982421875
0.02900390625
3.0244628906249997
3.0333251953125
3.0357421875
3.0365478515624997
3.0333251953125
3.0325195312499997
3.0333251953125
3.034130859375
3.0389648437499996
2.6901123046874997
2.995458984375
3.018017578125
2.9334228515625
3.0365478515624997
3.037353515625
3.0389648437499996
3.0357421875
3.0357421875
3.0349365234374996
3.0349365234374996
0.6711181640624999
0.0281982421875
0.030615234374999998
0.0281982421875
0.0281982421875
0.0298095703125
0.030615234374999998
0.030615234374999998
0.033837890625
0.0298095703125
0.027392578124999997
0.02900390625
0.0314208984375
0.027392578124999997
0.030615234374999998
0.030615234374999998
0.026586914062499998
0.0314208984375
0.0314208984375
0.02900390625
0.02900390625
0.0281982421875
3.034130859375
3.0365478515624997
3.0333251953125
3.0357421875
3.0365478515624997
3.0357421875
3.034130859375
3.0357421875
3.0349365234374996
3.0188232421874996
3.0389648437499996
3.037353515625
3.0333251953125
3.0357421875
3.0333251953125
3.0389648437499996
3.0357421875
3.0357421875
3.037353515625
3.0365478515624997
3.034130859375
1.2640869140625
0.0346435546875
0.027392578124999997
0.030615234374999998
0.02900390625
0.0298095703125
0.0281982421875
0.030615234374999998
0.08137207031249999
0.5389892578125
0.1345458984375
0.372216796875
0.4680908203125
0.5003173828124999
0.0298095703125
0.027392578124999997
0.02900390625
0.033032226562499996
0.0362548828125
0.0298095703125
0.11279296875
3.0357421875
3.034130859375
3.0357421875
3.0357421875
3.0365478515624997
3.0365478515624997
3.0357421875
3.034130859375
3.0349365234374996
3.0309082031249996
3.0325195312499997
3.0381591796875
3.0365478515624997
3.0357421875
3.037353515625
3.037353515625
3.0365478515624997
3.0333251953125
3.034130859375
3.0325195312499997
3.034130859375
1.9948242187499998
0.49387207031249997
0.0281982421875
0.030615234374999998
0.02900390625
0.0298095703125
0.030615234374999998
0.2827880859375
0.43344726562499997
0.726708984375
0.9152343749999999
1.3639892578125
1.5565429687499999
1.7732666015624998
0.030615234374999998
0.026586914062499998
0.02900390625
0.030615234374999998
0.030615234374999998
0.4447265625
1.641943359375
3.0333251953125
3.0357421875
3.0397705078125
3.0349365234374996
3.0357421875
3.0349365234374996
3.0397705078125
3.0301025390625
3.0357421875
3.0365478515624997
3.0349365234374996
3.0389648437499996
3.0357421875
3.037353515625
3.0381591796875
3.0349365234374996
3.0365478515624997
3.0357421875
3.0325195312499997
3.037353515625
2.3630126953125
0.15227050781249998
0.0298095703125
0.030615234374999998
0.0298095703125
0.033032226562499996
0.027392578124999997
0.0314208984375
0.0314208984375
0.033837890625
0.17080078124999998
0.6751464843749999
0.343212890625
0.472119140625
0.605859375
0.02900390625
0.0298095703125
0.030615234374999998
0.0281982421875
0.026586914062499998
0.033032226562499996
0.849169921875
3.0365478515624997
3.0309082031249996
3.0325195312499997
3.0389648437499996
3.0365478515624997
3.0349365234374996
3.0349365234374996
3.0357421875
3.0357421875
3.034130859375
3.0349365234374996
3.034130859375
3.0317138671875
3.029296875
2.9575927734375
3.0309082031249996
3.037353515625
3.0357421875
3.034130859375
3.0397705078125
2.6466064453125
0.2296142578125
0.0322265625
0.0298095703125
0.0322265625
0.0298095703125
0.0281982421875
0.02900390625
0.02578125
0.0281982421875
0.0717041015625
0.027392578124999997
0.36899414062499997
0.3343505859375
0.38913574218749997
0.4149169921875
0.027392578124999997
0.02900390625
0.02900390625
0.0298095703125
0.030615234374999998
0.136962890625
3.034130859375
3.0317138671875
3.0389648437499996
3.037353515625
3.0357421875
3.0357421875
3.0333251953125
3.037353515625
3.0381591796875
3.0365478515624997
3.0317138671875
2.7706787109374997
2.8383544921875
2.7650390624999996
