0.233642578125
0.7307373046875
1.252001953125
1.4703369140625
1.5146484375
1.7748779296875
1.7821289062499999
1.7684326171875
1.51787109375
1.7039794921875
1.674169921875
1.6612792968749999
1.4107177734374998
0.033032226562499996
1.0401123046875
1.44052734375
1.835302734375
1.851416015625
2.3662353515625
3.0365478515624997
3.037353515625
2.373486328125
1.74345703125
1.5154541015624998
1.4735595703125
1.4783935546875
1.456640625
1.4203857421875
1.4872558593749998
1.27294921875
1.5476806640624998
1.5106201171875
1.477587890625
1.4477783203124999
3.037353515625
2.2421630859375
1.8199951171875
1.5863525390625
1.4767822265625
0.978076171875
0.030615234374999998
0.0298095703125
0.246533203125
0.7758544921874999
1.1641845703125
1.493701171875
1.493701171875
1.7724609375
1.7474853515625
1.735400390625
1.861083984375
1.6306640625
1.662890625
1.6685302734374998
1.6169677734374999
0.02578125
0.9321533203125
1.46630859375
1.6371093749999999
1.844970703125
2.0778076171874997
2.8947509765625
3.0381591796875
2.4097412109375
1.9142578124999998
1.5275390624999998
1.4300537109375
1.5218994140625
1.4123291015625
1.4187744140624998
1.4348876953124998
1.474365234375
1.529150390625
1.477587890625
1.4920898437499999
1.4735595703125
3.034130859375
2.6643310546874996
1.8739746093749998
1.5678222656249998
1.2318603515625
1.018359375
0.0201416015625
0.024169921875
0.088623046875
0.6098876953125
1.19560546875
1.4300537109375
1.4501953125
1.783740234375
1.72734375
1.8014648437499998
1.8465820312499999
1.6403320312499998
1.674169921875
1.6435546875
1.6121337890624998
0.0281982421875
0.4125
1.5927978515624999
1.5807128906249999
2.0616943359374997
2.1648193359375
2.8818603515624996
3.0357421875
2.5853759765624997
1.9053955078125
1.587158203125
1.4381103515625
1.53720703125
1.442138671875
1.538818359375
1.533984375
1.477587890625
1.4429443359374998
1.4896728515625
1.5033691406249998
1.474365234375
2.914892578125
2.69091796875
1.87236328125
1.667724609375
1.3253173828125
1.007080078125
0.49790039062499997
0.0298095703125
0.1409912109375
0.6131103515624999
1.0610595703124999
1.3591552734374999
1.3962158203125
1.7120361328125
1.7531249999999998
1.740234375
1.7176757812499999
1.7458740234374999
1.687060546875
1.67900390625
1.6234130859375
0.0322265625
0.459228515625
1.3462646484374998
1.5750732421875
2.02060546875
2.1100341796874997
2.5144775390625
3.037353515625
2.56201171875
2.012548828125
1.667724609375
1.4493896484375
1.4953124999999998
1.4437499999999999
1.533984375
1.5275390624999998
1.5114257812499998
1.4115234374999999
1.4832275390624998
1.5033691406249998
1.4719482421874999
2.69736328125
3.0365478515624997
2.038330078125
1.7072021484375
1.3390136718749999
1.219775390625
0.5518798828125
0.030615234374999998
0.0604248046875
0.4149169921875
1.0570312499999999
1.3857421875
1.45341796875
1.706396484375
1.7345947265625
1.7345947265625
1.7233154296875
1.7104248046875
1.6798095703125
1.6733642578124999
1.6540283203125
0.3158203125
0.026586914062499998
1.2665039062499999
1.574267578125
1.912646484375
1.8393310546875
2.4846679687499997
3.0357421875
3.0365478515624997
2.0842529296875
1.714453125
1.5033691406249998
1.4800048828124999
1.4300537109375
1.4381103515625
1.4759765624999999
1.4759765624999999
1.5645996093749999
1.4630859374999998
1.4800048828124999
1.4872558593749998
1.4912841796874998
3.0325195312499997
2.086669921875
1.7337890624999999
1.4469726562499998
1.2624755859374999
0.791162109375
0.0322265625
0.0362548828125
0.36496582031249997
0.9273193359374999
1.3365966796875
1.4469726562499998
1.55009765625
1.6910888671875
1.7603759765625
1.7208984374999998
1.6798095703125
1.6717529296875
1.658056640625
1.6290527343749999
1.6056884765625
0.027392578124999997
1.184326171875
1.5557373046874998
1.8586669921874999
1.80791015625
2.1978515625
3.0333251953125
3.037353515625
2.281640625
1.8570556640625
1.50498046875
1.4679199218749999
1.4630859374999998
1.4058837890625
1.4203857421875
1.477587890625
1.361572265625
1.458251953125
1.4397216796874999
1.45341796875
1.4558349609374999
3.0365478515624997
2.29775390625
1.716064453125
1.4445556640625
1.3792968749999999
0.797607421875
0.030615234374999998
0.02900390625
0.193359375
0.903955078125
1.2503906249999999
1.44052734375
1.542041015625
1.7168701171874998
1.796630859375
1.748291015625
1.8095214843749998
1.670947265625
1.6781982421875
1.67900390625
1.6435546875
0.030615234374999998
1.1045654296875
1.522705078125
1.7466796875
1.960986328125
2.13662109375
3.037353515625
3.037353515625
2.273583984375
1.8683349609375
1.5782958984375
1.4389160156249998
1.53720703125
1.445361328125
1.464697265625
1.4228027343749998
1.46630859375
1.490478515625
1.5090087890625
1.490478515625
1.4888671875
3.037353515625
2.33642578125
1.8143554687499999
1.6612792968749999
1.3986328124999998
1.0320556640625
0.3069580078125
0.0346435546875
0.19497070312499998
0.6968994140625
1.0771728515624999
1.432470703125
1.46953125
1.8135498046874998
1.8344970703124999
1.7692382812499998
1.714453125
1.6814208984374999
1.6814208984374999
1.6475830078125
1.6218017578125
0.0298095703125
0.7476562499999999
1.4171630859375
1.7345947265625
2.0020751953125
2.15595703125
3.0349365234374996
3.0357421875
2.502392578125
1.9706542968749998
1.5589599609375
1.4356933593749999
1.4912841796874998
1.47275390625
1.5001464843749999
1.4558349609374999
1.474365234375
1.4767822265625
1.5009521484375
1.5170654296875
1.4993408203124998
3.0405761718749997
2.9712890625
1.7934082031249998
1.6209960937499999
1.2181640624999999
1.052197265625
0.3875244140625
0.0298095703125
0.0604248046875
0.6993164062499999
1.0900634765625
1.348681640625
1.40185546875
1.77890625
1.7023681640625
1.7474853515625
1.7893798828124998
1.7426513671875
1.674169921875
1.6532226562499999
1.61455078125
0.027392578124999997
0.6372802734374999
1.3881591796875
1.558154296875
1.9617919921875
2.1664306640624997
2.63935546875
3.0357421875
2.56201171875
2.012548828125
1.6218017578125
1.4630859374999998
1.5090087890625
1.3301513671874998
1.4373046875
1.4638916015624999
1.48564453125
1.658056640625
1.4920898437499999
1.4767822265625
1.4671142578124998
3.0349365234374996
3.0164062499999997
2.00771484375
1.7490966796874998
1.2262207031249999
1.0272216796875
0.5865234375
0.02900390625
0.04833984375
0.46567382812499997
0.990966796875
1.3865478515624998
1.45341796875
1.6991455078125
1.722509765625
1.7426513671875
1.7394287109375
1.7587646484375
1.683837890625
1.6572509765624999
1.6483886718749998
0.0281982421875
0.0281982421875
1.2254150390625
1.6185791015625
1.9215087890625
1.9779052734375
2.602294921875
3.0357421875
2.9342285156249996
2.15595703125
1.7015624999999999
1.4501953125
1.416357421875
1.3309570312499999
1.4276367187499999
1.458251953125
1.4574462890625
1.6572509765624999
1.4791992187499998
1.48564453125
1.464697265625
1.5597656249999998
3.0349365234374996
2.0254394531249997
1.7345947265625
1.3736572265625
1.0376953125
0.6187499999999999
0.0322265625
0.0322265625
0.4552001953125
0.9990234375
1.3100097656249998
1.464697265625
1.667724609375
1.7692382812499998
1.7982421874999999
1.7257324218749999
1.474365234375
1.6878662109375
1.6959228515625
1.6927001953124998
1.5428466796875
0.0298095703125
1.24072265625
1.5597656249999998
1.851416015625
1.8941162109374998
2.354150390625
3.0349365234374996
2.96162109375
2.1760986328125
1.7410400390624998
1.4687255859375
1.4373046875
1.4896728515625
1.4356933593749999
1.429248046875
1.46953125
1.4034667968749999
1.4703369140625
1.509814453125
1.493701171875
1.48564453125
3.0357421875
2.19140625
1.812744140625
1.4034667968749999
1.4276367187499999
0.9369873046874999
0.0298095703125
0.0322265625
0.3053466796875
0.8193603515625
1.3083984375
1.5025634765625
1.5734619140625
1.7692382812499998
1.82724609375
1.7684326171875
1.4896728515625
1.7208984374999998
1.6991455078125
1.67900390625
1.6121337890624998
0.030615234374999998
0.93779296875
1.480810546875
1.8369140625
1.8062988281249999
2.2590820312499997
3.0365478515624997
3.0413818359375
2.421826171875
1.7700439453124999
1.5315673828124998
1.4034667968749999
1.4518066406249999
1.4026611328124998
1.4171630859375
1.4759765624999999
1.3825195312499998
1.5573486328125
1.5299560546875
1.490478515625
1.506591796875
3.0381591796875
2.21396484375
1.7942138671874999
1.5879638671874998
1.4364990234375
0.9853271484374999
0.013696289062499999
0.0298095703125
0.278759765625
0.781494140625
1.1722412109375
1.4816162109375
1.52109375
1.7603759765625
1.703173828125
1.7442626953125
1.8264404296874999
1.674169921875
1.7072021484375
1.658056640625
1.6008544921874999
0.02900390625
0.9216796875
1.5122314453124999
1.6411376953124999
1.8385253906249999
2.0778076171874997
2.7481201171875
3.0333251953125
2.4355224609375
1.9730712890625
1.6234130859375
1.4364990234375
1.4920898437499999
1.4139404296875
1.4195800781249999
1.4308593749999998
1.4703369140625
1.5251220703125
1.4510009765624998
1.4719482421874999
1.456640625
3.037353515625
2.7102539062499997
1.8780029296874998
1.5863525390625
1.2028564453125
1.0078857421875
0.0523681640625
0.030615234374999998
0.11359863281249999
0.5438232421875
1.16015625
1.4356933593749999
1.426025390625
1.8062988281249999
1.735400390625
1.7378173828124999
1.738623046875
1.65
1.6435546875
1.6306640625
1.6137451171875
0.0298095703125
0.265869140625
1.493701171875
1.625830078125
2.0246337890625
2.126953125
2.663525390625
3.0381591796875
2.7561767578125
1.9658203125
1.6201904296874998
1.43408203125
1.5186767578125
1.3857421875
1.4816162109375
1.4397216796874999
1.4622802734375
1.4429443359374998
1.513037109375
1.5082031249999999
1.4888671875
2.5233398437499996
2.753759765625
1.864306640625
1.7249267578124998
1.3124267578125
1.0127197265624999
0.5551025390625
0.033032226562499996
0.14018554687499998
0.6098876953125
1.0658935546875
1.3341796874999998
1.45341796875
1.71123046875
1.7257324218749999
1.690283203125
1.7039794921875
1.7055908203124999
1.683837890625
1.6532226562499999
1.65
0.0298095703125
0.19094238281249998
1.2028564453125
1.5170654296875
1.9529296875
2.093115234375
2.4911132812499996
3.0365478515624997
2.7142822265624997
2.118896484375
1.7120361328125
1.4501953125
1.4816162109375
1.432470703125
1.46630859375
1.5033691406249998
1.4920898437499999
1.4816162109375
1.464697265625
1.4679199218749999
1.4638916015624999
2.23330078125
3.0357421875
2.1076171875
1.7313720703125
1.3849365234375
1.3220947265624998
0.5736328125
0.0298095703125
0.037060546874999996
0.39638671875
1.0610595703124999
1.3792968749999999
1.4469726562499998
1.6306640625
1.7249267578124998
1.7982421874999999
1.7152587890625
1.6290527343749999
1.6959228515625
1.7055908203124999
1.638720703125
0.7879394531249999
0.033837890625
1.2383056640624999
1.5057861328125
1.8328857421875
1.7668212890625
2.40087890625
3.0349365234374996
3.037353515625
2.11083984375
1.719287109375
1.5122314453124999
1.4606689453125
1.4679199218749999
1.442138671875
1.400244140625
1.445361328125
1.4026611328124998
1.45341796875
1.5267333984375
1.5138427734375
1.50498046875
3.0365478515624997
2.1140624999999997
1.8087158203125
1.522705078125
1.351904296875
0.84755859375
0.030615234374999998
0.0298095703125
0.378662109375
0.8741455078125
1.2463623046874999
1.4920898437499999
1.5589599609375
1.7660156249999999
1.7668212890625
1.7200927734375
1.8780029296874998
1.6701416015625
1.6451660156249999
1.66611328125
1.6185791015625
0.027392578124999997
1.09892578125
1.5073974609374998
1.8546386718749999
1.7684326171875
2.13984375
3.0365478515624997
3.0357421875
2.30419921875
1.832080078125
1.5347900390625
1.4687255859375
1.5315673828124998
1.4276367187499999
1.4123291015625
1.4679199218749999
1.2721435546875
1.5436523437499998
1.5114257812499998
1.4912841796874998
1.4945068359375
3.0357421875
2.4548583984375
1.7845458984375
1.5251220703125
1.3599609375
0.93779296875
0.0322265625
0.033837890625
0.193359375
0.8427246093749999
1.2286376953125
1.4228027343749998
1.546875
1.7474853515625
1.7982421874999999
1.7450683593749998
1.9303710937499998
1.6588623046875
1.6701416015625
1.654833984375
1.606494140625
0.037060546874999996
1.0489746093749999
1.4840332031249999
1.7249267578124998
2.0520263671875
2.0906982421875
3.0333251953125
3.0357421875
2.31708984375
1.8796142578125
1.6048828124999999
1.40830078125
1.4574462890625
1.4171630859375
1.5275390624999998
1.4606689453125
1.4550292968749998
1.432470703125
1.51787109375
1.4920898437499999
1.5025634765625
3.0349365234374996
2.4709716796875
1.80791015625
1.73056640625
1.327734375
1.06669921875
0.42941894531249997
0.030615234374999998
0.17644042968749998
0.6968994140625
1.106982421875
1.41796875
1.36962890625
1.7072021484375
1.7990478515625
1.7466796875
1.7176757812499999
1.6459716796875
1.7120361328125
1.658056640625
1.6081054687499998
0.030615234374999998
0.5776611328125
1.3801025390625
1.7055908203124999
2.023828125
2.147900390625
2.9906249999999996
3.034130859375
2.5877929687499996
2.070556640625
1.5799072265624998
1.4308593749999998
1.5170654296875
1.442138671875
1.533984375
1.4912841796874998
1.5033691406249998
1.3825195312499998
1.4679199218749999
1.5202880859374999
1.4816162109375
3.037353515625
3.0349365234374996
1.877197265625
1.7104248046875
1.1899658203124999
0.9796874999999999
0.3762451171875
0.02900390625
0.02900390625
0.6260009765625
1.087646484375
1.393798828125
1.4066894531249998
1.7096191406249999
1.7942138671874999
1.7813232421874998
1.71123046875
1.7523193359375
1.6435546875
1.6314697265625
1.6282470703124998
0.026586914062499998
0.4648681640625
1.3583496093749998
1.6024658203125
1.9489013671875
2.2026855468749997
2.6304931640625
3.037353515625
2.6047119140625
2.0149658203125
1.6475830078125
1.47275390625
1.4630859374999998
1.3688232421875
1.4187744140624998
1.4123291015625
1.3865478515624998
1.7208984374999998
1.5057861328125
1.5114257812499998
1.4679199218749999
3.037353515625
3.037353515625
2.031884765625
1.699951171875
1.22783203125
1.069921875
0.6469482421874999
0.0298095703125
0.0322265625
0.4439208984375
0.936181640625
1.3510986328124999
1.44052734375
1.635498046875
1.7893798828124998
1.7990478515625
1.748291015625
1.812744140625
1.69833984375
1.6773925781249999
1.6604736328124998
0.0346435546875
0.027392578124999997
1.2374999999999998
1.65
1.9537353515625
1.944873046875
2.34287109375
3.034130859375
3.0357421875
2.2083251953125
1.6572509765624999
1.4429443359374998
1.3237060546875
1.36962890625
1.3792968749999999
1.405078125
1.44052734375
1.593603515625
1.4429443359374998
1.4574462890625
1.4953124999999998
1.4606689453125
3.0333251953125
2.0729736328125
1.7362060546875
1.3857421875
1.4147460937499998
0.6791748046874999
0.026586914062499998
0.026586914062499998
0.388330078125
0.910400390625
1.2616699218749998
1.4542236328125
1.6588623046875
1.796630859375
1.8788085937499999
1.75634765625
1.5839355468749998
1.716064453125
1.7015624999999999
1.6508056640625
1.6024658203125
0.033032226562499996
1.2181640624999999
1.5202880859374999
1.8232177734375
1.90458984375
2.29453125
3.037353515625
3.0325195312499997
2.2518310546875
1.7571533203124998
1.4638916015624999
1.380908203125
1.4187744140624998
1.351904296875
1.3833251953124999
1.4300537109375
1.4437499999999999
1.4687255859375
1.490478515625
1.4872558593749998
1.4751708984374998
3.0357421875
2.3033935546874997
1.8465820312499999
1.4091064453125
1.3736572265625
0.9337646484375
0.026586914062499998
0.02900390625
0.1973876953125
0.7395996093749999
1.2584472656249999
1.4767822265625
1.5525146484374999
1.82080078125
1.85302734375
1.796630859375
1.8369140625
1.7797119140625
1.7136474609374999
1.66611328125
1.58232421875
0.026586914062499998
0.80888671875
1.5807128906249999
1.8868652343749999
2.022216796875
2.2212158203125
3.0365478515624997
3.0365478515624997
2.457275390625
1.740234375
1.4469726562499998
1.3881591796875
1.4284423828125
1.351904296875
1.3881591796875
1.3897705078125
1.43408203125
1.53076171875
1.4590576171874998
1.5073974609374998
1.49853515625
3.0365478515624997
2.3372314453125
1.8014648437499998
1.6105224609375
1.029638671875
0.9466552734375
0.0394775390625
0.026586914062499998
0.17482910156249998
0.6872314453124999
1.1432373046875
1.4961181640624999
1.5662109375
1.8618896484374998
1.75634765625
1.8328857421875
1.7587646484375
1.683837890625
1.7023681640625
1.6991455078125
1.6427490234375
0.0281982421875
0.7734375
1.5726562499999999
1.719287109375
2.077001953125
2.2518310546875
2.872998046875
3.0429931640624996
2.4766113281249997
1.957763671875
1.5799072265624998
1.3067871093749999
1.4155517578124999
1.3011474609375
1.4429443359374998
1.4469726562499998
1.4574462890625
1.5436523437499998
1.51787109375
1.4864501953125
1.4864501953125
3.0357421875
2.9680664062499997
1.8763916015625
1.590380859375
1.0634765625
0.90556640625
0.11279296875
0.030615234374999998
0.059619140625
0.4962890625
1.1287353515625
1.4203857421875
1.4526123046875
1.9376220703125
1.8135498046874998
1.8183837890624999
1.815966796875
1.6781982421875
1.651611328125
1.670947265625
1.61455078125
0.0298095703125
0.0443115234375
1.5170654296875
1.7217041015624999
2.1374267578125
2.2147705078124997
2.8222412109375
3.0357421875
2.834326171875
1.869140625
1.5033691406249998
1.313232421875
1.3849365234375
1.2769775390625
1.397021484375
1.4268310546874998
1.4308593749999998
1.538818359375
1.4598632812499999
1.5009521484375
1.5186767578125
2.0181884765625
3.0357421875
1.9360107421875
1.658056640625
1.2689208984375
0.90234375
0.459228515625
0.030615234374999998
0.030615234374999998
0.46970214843749997
0.9958007812499999
1.3551269531249999
1.545263671875
1.75634765625
1.8747802734374999
1.8522216796875
1.832080078125
1.6177734375
1.7571533203124998
1.7015624999999999
1.6540283203125
1.1045654296875
0.027392578124999997
1.1456542968749999
1.5887695312499999
2.12373046875
2.1374267578125
2.570068359375
3.0365478515624997
2.8480224609375
2.109228515625
1.6403320312499998
1.3502929687499998
1.3494873046875
1.3527099609375
1.3712402343749999
1.4042724609375
1.3897705078125
1.2101074218749999
1.4574462890625
1.5009521484375
1.5331787109375
1.7893798828124998
3.0365478515624997
2.147900390625
1.7531249999999998
1.2963134765625
1.34384765625
0.7871337890625
0.02900390625
0.0298095703125
0.3230712890625
0.833056640625
1.3365966796875
1.5114257812499998
1.6290527343749999
1.82724609375
1.828857421875
1.803076171875
1.5533203125
1.77568359375
1.73056640625
1.662890625
1.3148437499999999
0.02900390625
1.03125
1.603271484375
2.022216796875
1.9142578124999998
2.5708740234375
3.0357421875
3.0357421875
2.354150390625
1.6427490234375
1.4115234374999999
1.332568359375
1.3752685546874999
1.3639892578125
1.3285400390625
1.474365234375
1.2705322265624999
1.5766845703124999
1.5025634765625
1.5283447265624999
1.4953124999999998
3.0357421875
2.205908203125
1.7909912109375
1.4332763671875
1.3551269531249999
0.833056640625
0.033032226562499996
0.0298095703125
0.27231445312499997
0.7782714843749999
1.2109130859375
1.5122314453124999
1.5895751953125
1.8344970703124999
1.8280517578125
1.8232177734375
2.0423583984375
1.7128417968749998
1.786962890625
1.7072021484375
1.6048828124999999
0.0298095703125
1.0207763671874999
1.5879638671874998
1.7692382812499998
1.877197265625
2.1986572265624997
3.0365478515624997
3.0349365234374996
2.4629150390625
1.9392333984374999
1.4920898437499999
1.3792968749999999
1.4880615234374999
1.4953124999999998
1.4606689453125
1.5492919921875
1.5492919921875
1.590380859375
1.522705078125
1.5235107421874998
1.58232421875
3.037353515625
2.83271484375
2.0616943359374997
1.716064453125
1.3027587890624999
0.9514892578124999
0.033837890625
0.02900390625
0.0298095703125
0.4165283203125
0.9949951171875
1.31162109375
1.33740234375
1.8957275390625
1.90458984375
1.8876708984375
2.006103515625
1.7039794921875
1.74345703125
1.7208984374999998
1.6266357421875
0.0298095703125
0.11359863281249999
1.3833251953124999
1.5645996093749999
2.180126953125
2.241357421875
3.0357421875
3.037353515625
2.9060302734374996
2.0133544921874997
1.6129394531249999
1.4332763671875
1.4518066406249999
1.3897705078125
1.493701171875
1.3422363281249998
1.380908203125
1.1625732421875
1.4147460937499998
1.4840332031249999
1.5791015625
3.037353515625
3.037353515625
2.5330078124999997
2.5152832031249996
1.925537109375
1.4429443359374998
0.456005859375
0.02900390625
0.0322265625
0.0515625
0.4229736328125
0.7661865234374999
0.7734375
1.2310546875
1.5154541015624998
1.6234130859375
1.714453125
1.9118408203125
1.7297607421874999
1.7039794921875
1.6371093749999999
0.0298095703125
0.02900390625
0.5994140625
0.807275390625
1.4888671875
1.848193359375
2.4911132812499996
3.034130859375
3.037353515625
2.6836669921875
2.270361328125
2.0689453125
1.9811279296875
1.7724609375
1.7716552734375
1.609716796875
1.5734619140625
1.3591552734374999
1.6024658203125
1.58232421875
1.5734619140625
3.0397705078125
3.0365478515624997
2.747314453125
2.65869140625
2.1470947265625
1.799853515625
0.56396484375
0.027392578124999997
0.02900390625
0.026586914062499998
0.23203125
0.45439453124999996
0.57041015625
1.0030517578125
1.316455078125
1.4429443359374998
1.5194824218749998
1.8111328125
1.5960205078124998
1.6564453124999998
1.6475830078125
0.0322265625
0.0322265625
0.451171875
0.6759521484375
1.10859375
1.2753662109375
2.4161865234374997
3.034130859375
3.0365478515624997
2.85205078125
2.5757080078124996
2.3009765625
2.125341796875
1.9142578124999998
1.76279296875
1.6846435546874998
1.6346923828125
1.7499023437499999
1.48564453125
1.546875
1.506591796875
1.482421875
3.0365478515624997
2.7658447265625
2.63291015625
2.358984375
1.8844482421875
1.0707275390625
0.0281982421875
0.0298095703125
0.027392578124999997
0.116015625
0.3150146484375
0.5365722656249999
0.8104980468749999
1.103759765625
1.3913818359374999
1.525927734375
1.5154541015624998
1.6451660156249999
1.6508056640625
1.6491943359374999
1.5726562499999999
0.0314208984375
0.5115966796875
0.5953857421875
1.1408203125
1.123095703125
1.893310546875
3.0349365234374996
3.0357421875
2.9269775390625
2.6361328124999996
2.28486328125
2.075390625
1.9867675781249998
1.7942138671874999
1.7176757812499999
1.6822265625
1.5831298828125
1.5194824218749998
1.5799072265624998
1.5645996093749999
1.5533203125
3.0413818359375
3.0349365234374996
2.7086425781249996
2.4113525390625
2.3420654296875
1.6234130859375
0.0298095703125
0.0298095703125
0.026586914062499998
0.0314208984375
0.3053466796875
0.53173828125
0.5663818359375
1.1077880859375
1.432470703125
1.5170654296875
1.65966796875
1.7176757812499999
1.69189453125
1.6717529296875
1.56943359375
0.0298095703125
0.0322265625
0.610693359375
0.903955078125
1.184326171875
1.754736328125
3.034130859375
3.0365478515624997
3.034130859375
2.695751953125
2.4032958984375
2.2018798828125
2.0979492187499997
1.925537109375
1.8054931640624998
1.66611328125
1.6282470703124998
1.7015624999999999
1.622607421875
1.5637939453124998
1.5017578125
3.0357421875
3.0413818359375
2.65546875
2.6296874999999997
1.9472900390624999
1.609716796875
0.049951171875
0.0298095703125
0.0281982421875
0.0314208984375
0.13615722656249998
0.3585205078125
0.5019287109375
1.155322265625
1.1287353515625
1.5041748046874999
1.5597656249999998
1.5662109375
1.6854492187499999
1.6830322265625
1.6564453124999998
0.030615234374999998
0.033032226562499996
0.662255859375
0.6082763671875
1.2536132812499998
1.53076171875
2.60068359375
3.0325195312499997
3.037353515625
2.8206298828125
2.57490234375
2.2969482421875
2.25263671875
1.8820312499999998
1.8949218749999999
1.6636962890625
1.5927978515624999
1.66611328125
1.5678222656249998
1.5533203125
1.5033691406249998
3.0349365234374996
3.037353515625
2.7577880859375
2.7787353515624997
2.115673828125
1.7249267578124998
0.784716796875
0.0298095703125
0.0298095703125
0.02900390625
0.088623046875
0.31743164062499996
0.3117919921875
0.734765625
1.0771728515624999
1.2995361328125
1.490478515625
1.606494140625
1.6427490234375
1.716064453125
1.6701416015625
0.030615234374999998
0.0314208984375
0.2634521484375
0.610693359375
1.1061767578125
1.429248046875
2.6369384765625
3.0357421875
3.0357421875
2.843994140625
2.5877929687499996
2.3162841796875
2.1591796875
1.7619873046874999
1.8240234375
1.7313720703125
1.65
1.82080078125
1.6089111328124999
1.6943115234375
1.5927978515624999
1.9859619140625
3.0349365234374996
2.8133789062499996
2.7884033203125
2.40087890625
1.770849609375
0.8741455078125
0.030615234374999998
0.027392578124999997
0.0314208984375
0.0797607421875
0.23122558593749998
0.281982421875
0.7259033203124999
1.058642578125
1.2262207031249999
1.426025390625
1.2238037109375
1.6322753906249998
1.7080078125
1.683837890625
1.197216796875
0.02900390625
0.3875244140625
0.5132080078125
1.0489746093749999
1.3422363281249998
2.215576171875
3.037353515625
3.0325195312499997
3.0325195312499997
2.7730957031249996
2.49755859375
2.276806640625
2.1487060546875
1.9343994140624998
1.88525390625
1.74345703125
1.3011474609375
1.61455078125
1.5766845703124999
1.50498046875
1.4888671875
3.0365478515624997
3.034130859375
2.924560546875
2.566845703125
2.4774169921875
1.5106201171875
0.0298095703125
0.030615234374999998
0.02900390625
0.033837890625
0.1812744140625
0.270703125
0.375439453125
0.9192626953124999
1.1367919921875
1.2979248046874998
1.8892822265625
1.6048828124999999
1.6129394531249999
1.6653076171874999
1.3768798828125
0.0281982421875
0.0281982421875
0.5325439453124999
0.849169921875
0.8507812499999999
1.5863525390625
3.034130859375
3.037353515625
3.0397705078125
2.8754150390624997
2.5877929687499996
2.367041015625
2.292919921875
1.9916015624999999
1.7764892578125
1.7635986328125
1.31162109375
1.7208984374999998
1.6105224609375
1.587158203125
1.5678222656249998
3.0357421875
3.0349365234374996
2.9930419921875
2.8254638671874996
2.591015625
1.6717529296875
0.0298095703125
0.02900390625
0.02578125
0.033032226562499996
0.072509765625
0.1812744140625
0.3029296875
0.7420166015624999
1.0320556640625
1.2270263671875
1.7595703125
1.368017578125
1.641943359375
1.6830322265625
1.635498046875
0.02900390625
0.030615234374999998
0.423779296875
0.48178710937499997
1.1666015625
1.4348876953124998
3.0357421875
3.0333251953125
3.0357421875
2.9946533203124996
2.7722900390625
2.5716796874999996
2.470166015625
2.2880859375
2.2115478515625
1.828857421875
1.7692382812499998
1.4276367187499999
1.6363037109374998
1.5815185546875
1.5146484375
3.0325195312499997
3.0317138671875
2.963232421875
3.0429931640624996
2.5724853515625
2.0737792968749997
0.7959960937499999
0.0281982421875
0.0298095703125
0.0298095703125
0.0298095703125
0.143408203125
0.0314208984375
0.510791015625
0.8612548828125
1.061865234375
1.2447509765625
1.7168701171874998
1.5492919921875
1.5839355468749998
1.58232421875
0.02900390625
0.033032226562499996
0.030615234374999998
0.29245605468749997
1.058642578125
1.2342773437499999
2.1922119140625
3.037353515625
3.0365478515624997
3.0333251953125
2.8270751953124997
2.616796875
2.6353271484375
2.4298828125
2.39765625
2.1325927734375
1.9150634765624999
1.4493896484375
1.7595703125
1.674169921875
1.6806152343749998
3.037353515625
3.034130859375
3.034130859375
3.0397705078125
2.679638671875
2.3436767578124997
0.9885498046875
0.0298095703125
0.02900390625
0.0298095703125
0.0298095703125
0.030615234374999998
0.02900390625
0.3504638671875
0.575244140625
0.7822998046874999
1.023193359375
1.6532226562499999
1.3494873046875
1.4630859374999998
1.5090087890625
0.0298095703125
0.0298095703125
0.0298095703125
0.09345703124999999
0.44150390624999997
0.5406005859374999
1.9545410156249998
3.037353515625
3.034130859375
3.0333251953125
3.02607421875
2.8947509765625
2.753759765625
2.5805419921875
2.4919189453125
2.421826171875
2.14951171875
2.5410644531249997
1.8409423828125
1.8538330078124998
1.77890625
1.6951171875
3.0349365234374996
3.037353515625
3.0349365234374996
2.900390625
2.457275390625
1.561376953125
0.030615234374999998
0.0298095703125
0.0298095703125
0.030615234374999998
0.0298095703125
0.030615234374999998
0.11843261718749999
0.46083984375
0.8032470703125
0.9740478515625
0.734765625
1.319677734375
1.3672119140624999
1.4638916015624999
1.4606689453125
0.030615234374999998
0.0298095703125
0.0314208984375
0.15629882812499998
0.37302246093749997
1.4203857421875
3.0357421875
3.0381591796875
3.0357421875
3.037353515625
2.9253662109375
2.8617187499999996
2.7980712890625
2.56201171875
2.4629150390625
2.2840576171875
2.11728515625
1.8844482421875
1.8441650390625
1.8103271484374999
1.7337890624999999
3.02607421875
3.0357421875
3.0381591796875
3.0301025390625
3.0381591796875
2.238134765625
0.02900390625
0.0314208984375
0.0362548828125
0.0298095703125
0.0281982421875
0.0346435546875
0.033032226562499996
0.38349609375
0.71865234375
0.8306396484374999
1.0167480468749999
1.2503906249999999
1.2930908203125
1.41796875
1.42119140625
0.027392578124999997
0.0298095703125
0.033837890625
0.2054443359375
0.3955810546875
0.8177490234375
3.0357421875
3.0357421875
3.0357421875
3.0333251953125
3.0083496093749997
2.8818603515624996
2.9930419921875
2.6280761718749996
2.46533203125
2.3001708984375
2.141455078125
2.2743896484375
1.9182861328124998
1.8522216796875
1.770849609375
3.0357421875
3.037353515625
3.034130859375
3.037353515625
2.6039062499999996
2.3146728515625
0.2135009765625
0.02900390625
0.0281982421875
0.027392578124999997
0.02578125
0.026586914062499998
0.0298095703125
0.4519775390625
0.40202636718749996
0.708984375
0.9990234375
0.894287109375
1.2463623046874999
1.35673828125
1.3656005859375
0.030615234374999998
0.02900390625
0.0249755859375
0.033837890625
0.5373779296875
0.8677001953125
2.167236328125
3.0333251953125
3.0381591796875
3.0349365234374996
3.0357421875
3.018017578125
3.027685546875
2.6876953125
2.6200195312499996
2.33642578125
2.209130859375
1.893310546875
1.94970703125
1.864306640625
1.7635986328125
3.0357421875
3.0357421875
3.0333251953125
3.034130859375
2.6385498046875
2.4339111328125
1.3639892578125
0.0298095703125
0.024169921875
0.027392578124999997
0.02900390625
0.02900390625
0.0298095703125
0.2344482421875
0.31340332031249996
0.636474609375
0.8314453125
1.0078857421875
1.203662109375
1.276171875
1.3301513671874998
0.027392578124999997
0.033032226562499996
0.0298095703125
0.02900390625
0.40202636718749996
0.6614501953124999
1.5911865234375
3.0357421875
3.0349365234374996
3.0357421875
3.0357421875
2.92939453125
2.9390625
2.848828125
2.695751953125
2.505615234375
2.3356201171874997
2.0504150390625
2.0262451171875
1.912646484375
1.7507080078125
2.5676513671874996
3.034130859375
3.0349365234374996
3.0365478515624997
2.9116699218749997
2.908447265625
1.4066894531249998
0.02900390625
0.02900390625
0.027392578124999997
0.02900390625
0.0298095703125
0.027392578124999997
0.24331054687499998
0.5115966796875
0.6131103515624999
0.8644775390624999
0.9128173828124999
1.147265625
1.2890625
1.3527099609375
0.33515625
0.02900390625
0.02900390625
0.0298095703125
0.25217285156249997
0.12165527343749999
1.558154296875
3.0381591796875
3.0333251953125
3.0357421875
3.0389648437499996
2.985791015625
2.9495361328125
2.811767578125
2.6143798828125
2.457275390625
2.3017822265625
1.8199951171875
1.996435546875
1.9553466796874999
1.8570556640625
1.7378173828124999
3.034130859375
3.0357421875
3.0317138671875
3.034130859375
3.01318359375
1.9940185546875
0.0298095703125
0.0298095703125
0.02578125
0.0298095703125
0.026586914062499998
0.0322265625
0.030615234374999998
0.35771484374999996
0.62841796875
0.768603515625
1.5243164062499999
1.11826171875
1.29228515625
1.3639892578125
1.3559326171875
0.0314208984375
0.02900390625
0.0314208984375
0.2537841796875
0.1297119140625
0.8870361328124999
3.0349365234374996
3.0357421875
3.037353515625
3.0357421875
3.027685546875
2.9398681640624997
2.924560546875
2.6965576171874996
2.5467041015625
2.4725830078124997
2.2905029296875
2.1454833984375
2.002880859375
1.8820312499999998
1.7523193359375
3.0357421875
3.0357421875
3.0349365234374996
3.037353515625
3.0188232421874996
2.46533203125
0.030615234374999998
0.0314208984375
0.026586914062499998
0.0322265625
0.030615234374999998
0.0298095703125
0.033032226562499996
0.2634521484375
0.5937744140625
0.6904541015625
1.3124267578125
0.9732421874999999
1.17626953125
1.2254150390625
1.3156494140625
0.02900390625
0.0346435546875
0.030615234374999998
0.030615234374999998
0.5986083984375
0.7726318359375
2.9181152343749996
3.0349365234374996
3.0365478515624997
3.0389648437499996
3.034130859375
3.01318359375
3.034130859375
2.9020019531249996
2.8786376953125
2.5555664062499996
2.3340087890625
1.9142578124999998
2.038330078125
1.8876708984375
1.740234375
3.0389648437499996
3.0365478515624997
3.0325195312499997
3.0365478515624997
2.747314453125
2.54267578125
1.0513916015625
0.0298095703125
0.0298095703125
0.030615234374999998
0.030615234374999998
0.0298095703125
0.027392578124999997
0.20705566406249998
0.3955810546875
0.6678955078125
0.7661865234374999
1.235888671875
1.0691162109374999
1.213330078125
1.3253173828125
0.02578125
0.0322265625
0.02900390625
0.030615234374999998
0.30937499999999996
0.6469482421874999
1.791796875
3.0381591796875
3.0325195312499997
3.0357421875
3.0365478515624997
3.0325195312499997
3.0333251953125
2.876220703125
2.8778320312499996
2.6256591796874997
2.4194091796875
2.8456054687499996
2.0439697265625
1.8973388671875
1.7877685546875
1.6427490234375
3.0349365234374996
3.0365478515624997
3.037353515625
2.80048828125
2.55234375
1.6951171875
0.0346435546875
0.0314208984375
0.0298095703125
0.033837890625
0.0346435546875
0.02900390625
0.08540039062499999
0.41330566406249997
0.6268066406249999
0.7726318359375
0.25458984375
1.045751953125
1.190771484375
1.300341796875
0.0298095703125
0.02900390625
0.026586914062499998
0.030615234374999998
0.252978515625
0.307763671875
1.2318603515625
3.0349365234374996
3.037353515625
3.034130859375
3.0365478515624997
3.034130859375
3.037353515625
3.0220458984375
2.769873046875
2.65869140625
2.502392578125
2.8641357421875
2.075390625
1.9916015624999999
1.89169921875
1.719287109375
3.0357421875
3.0357421875
3.034130859375
3.034130859375
3.034130859375
1.799853515625
0.02900390625
0.030615234374999998
0.02900390625
0.02900390625
0.026586914062499998
0.030615234374999998
0.0765380859375
0.343212890625
0.5534912109375
0.7097900390624999
0.42216796874999996
1.1287353515625
1.1698242187499999
1.3390136718749999
1.3156494140625
0.033032226562499996
0.026586914062499998
0.0281982421875
0.06767578125
0.1168212890625
1.15693359375
3.037353515625
3.0357421875
3.0349365234374996
3.0357421875
3.0381591796875
3.0309082031249996
2.9922363281249997
2.8230468749999997
2.521728515625
2.5080322265625
2.281640625
2.3968505859375
2.038330078125
1.9166748046875
1.796630859375
3.0365478515624997
3.0365478515624997
3.0357421875
3.0365478515624997
3.0349365234374996
2.3243408203125
0.21672363281249998
0.02900390625
0.030615234374999998
0.0298095703125
0.0281982421875
0.0298095703125
0.02900390625
0.42861328125
0.581689453125
0.6840087890625
0.8096923828125
0.6888427734375
1.1617675781249999
1.2536132812499998
1.3043701171875
0.026586914062499998
0.0322265625
0.0322265625
0.0298095703125
0.28439941406249997
0.69609375
2.167236328125
3.0389648437499996
3.0349365234374996
3.0349365234374996
3.0325195312499997
2.9366455078125
3.0333251953125
2.7497314453125
2.5475097656249996
2.466943359375
2.358984375
2.441162109375
2.0133544921874997
1.9062011718749998
1.7474853515625
3.037353515625
3.0365478515624997
3.034130859375
3.0365478515624997
2.6675537109375
2.450830078125
0.3665771484375
0.030615234374999998
0.0322265625
0.026586914062499998
0.030615234374999998
0.02900390625
0.026586914062499998
0.4922607421875
0.2908447265625
0.5986083984375
0.845947265625
0.720263671875
1.12470703125
1.213330078125
1.3349853515624999
0.0281982421875
0.0322265625
0.02900390625
0.0281982421875
0.49951171875
0.72509765625
2.21396484375
3.0333251953125
3.0357421875
3.0357421875
3.037353515625
3.011572265625
2.989013671875
2.771484375
2.689306640625
2.631298828125
2.3267578125
1.96904296875
2.070556640625
1.915869140625
1.7990478515625
3.0333251953125
3.034130859375
3.0349365234374996
3.0349365234374996
2.8963623046875
2.4322998046874997
1.3744628906249998
0.0281982421875
0.030615234374999998
0.02900390625
0.0298095703125
0.02900390625
0.02900390625
0.20866699218749998
0.42216796874999996
0.6340576171875
0.7927734375
0.9869384765625
1.061865234375
1.2769775390625
1.3237060546875
0.033032226562499996
0.030615234374999998
0.0298095703125
0.027392578124999997
0.2892333984375
0.7669921875
1.6089111328124999
3.0389648437499996
3.0333251953125
3.0365478515624997
3.034130859375
3.0139892578125
2.977734375
2.85849609375
2.7908203124999997
2.6208251953125
2.4210205078125
2.0665283203125
2.1543457031249997
2.054443359375
1.877197265625
2.715087890625
3.0333251953125
3.0357421875
3.0357421875
2.9326171875
2.8311035156249997
1.9078125
0.0281982421875
0.02900390625
0.030615234374999998
0.0298095703125
0.0298095703125
0.026586914062499998
0.02578125
0.42136230468749997
0.51884765625
0.6590332031249999
0.7097900390624999
0.9885498046875
1.18271484375
1.2737548828124998
0.44553222656249997
0.030615234374999998
0.02900390625
0.0298095703125
0.2771484375
0.10634765624999999
0.942626953125
3.0381591796875
3.0357421875
3.0381591796875
3.037353515625
3.034130859375
3.0172119140625
3.0156005859375
2.7223388671874997
2.56845703125
2.487890625
1.8022705078124999
2.031884765625
1.9352050781249999
1.8143554687499999
1.722509765625
3.0357421875
3.037353515625
3.0357421875
3.0357421875
3.0317138671875
1.9835449218749999
0.02900390625
0.027392578124999997
0.02578125
0.024169921875
0.0298095703125
0.0322265625
0.030615234374999998
0.23122558593749998
0.5953857421875
0.6340576171875
1.3817138671875
1.023193359375
1.184326171875
1.3180664062499998
1.3140380859374998
0.0298095703125
0.0298095703125
0.0298095703125
0.030615234374999998
0.5454345703125
0.9152343749999999
3.034130859375
3.0325195312499997
3.0397705078125
3.0357421875
3.0365478515624997
2.9898193359375
3.0220458984375
2.8464111328125
2.8294921874999996
2.466943359375
2.2993652343749997
2.1140624999999997
2.0334960937499997
1.9062011718749998
1.7660156249999999
3.0365478515624997
3.0357421875
3.037353515625
3.0325195312499997
2.9994873046875
2.454052734375
0.93779296875
0.0298095703125
0.02900390625
0.027392578124999997
0.0322265625
0.0298095703125
0.02900390625
0.21511230468749998
0.5824951171875
0.7057617187499999
0.8161376953124999
1.1657958984374999
1.173046875
1.29228515625
1.345458984375
0.0298095703125
0.026586914062499998
0.0298095703125
0.033032226562499996
0.5744384765625
0.8032470703125
1.9714599609374999
3.0389648437499996
3.0309082031249996
3.037353515625
3.0333251953125
2.9503417968749996
3.037353515625
2.8294921874999996
2.8899169921874996
2.5813476562499997
2.3388427734375
1.9134521484375
1.993212890625
1.88525390625
1.7732666015624998
3.0349365234374996
3.0357421875
3.0365478515624997
3.0365478515624997
2.7158935546875
2.4991699218749996
1.0691162109374999
0.0298095703125
0.030615234374999998
0.02900390625
0.0298095703125
0.02900390625
0.030615234374999998
0.24814453125
0.4600341796875
0.6276123046875
0.8322509765624999
1.2947021484374999
1.0973144531249999
1.2028564453125
1.3341796874999998
0.02900390625
0.0298095703125
0.02900390625
0.0314208984375
0.2771484375
0.4390869140625
1.8425537109374999
3.034130859375
3.0365478515624997
3.0365478515624997
3.034130859375
2.995458984375
3.0043212890624997
2.8359375
2.7545654296874997
2.67158203125
2.4613037109375
2.874609375
2.0842529296875
1.9811279296875
1.8506103515624999
1.6959228515625
3.0357421875
3.0357421875
3.0405761718749997
3.0365478515624997
2.5354248046874996
1.6862548828125
0.030615234374999998
0.033837890625
0.0281982421875
0.0298095703125
0.0298095703125
0.033032226562499996
0.0580078125
0.36416015625
0.5768554687499999
0.749267578125
0.23928222656249998
1.0417236328125
1.1641845703125
1.271337890625
1.2455566406249998
0.030615234374999998
0.0298095703125
0.017724609375
0.270703125
0.44230957031249996
1.19560546875
3.0349365234374996
3.034130859375
3.0405761718749997
3.0389648437499996
2.9986816406249996
2.9326171875
2.900390625
2.7368408203124996
2.6522460937499996
2.4677490234375
2.1938232421875
2.0826416015625
2.0391357421875
1.9505126953124998
1.8216064453124998
3.0365478515624997
3.0349365234374996
3.0365478515624997
3.0357421875
3.037353515625
2.3259521484375
0.02900390625
0.030615234374999998
0.02900390625
0.030615234374999998
0.02900390625
0.0322265625
0.0314208984375
0.420556640625
0.5341552734375
0.69287109375
0.327099609375
1.0481689453125
1.1408203125
1.2592529296875
1.2221923828124999
0.027392578124999997
0.0322265625
0.0322265625
0.0636474609375
0.1571044921875
0.7355712890624999
3.0349365234374996
3.034130859375
3.0317138671875
3.0357421875
3.034130859375
3.0010986328125
3.0365478515624997
2.7932373046874996
2.5595947265624996
2.4774169921875
2.2429687499999997
2.384765625
1.989990234375
1.8731689453125
1.7901855468749999
3.0357421875
3.0357421875
3.0365478515624997
3.0381591796875
2.7287841796874996
2.344482421875
0.10151367187499999
0.0298095703125
0.033837890625
0.030615234374999998
0.030615234374999998
0.030615234374999998
0.0249755859375
0.3424072265625
0.28439941406249997
0.6533935546874999
0.7871337890625
0.646142578125
1.0932861328124999
1.2455566406249998
1.300341796875
0.0281982421875
0.033837890625
0.030615234374999998
0.033032226562499996
0.5671875
0.8322509765624999
2.3074218749999997
3.037353515625
3.0357421875
3.0333251953125
3.0333251953125
2.9664550781249996
3.0107666015624996
2.795654296875
2.7569824218749996
2.4556640625
2.350927734375
1.8780029296874998
2.070556640625
1.996435546875
1.85625
3.0317138671875
3.0357421875
3.0357421875
3.034130859375
2.6619140624999997
2.4226318359375
1.2012451171875
0.0314208984375
0.02900390625
0.0281982421875
0.02900390625
0.0281982421875
0.0298095703125
0.2586181640625
0.3021240234375
0.610693359375
0.8765624999999999
1.268115234375
1.2656982421874998
1.32451171875
1.3736572265625
0.02900390625
0.0314208984375
0.033032226562499996
0.026586914062499998
0.5164306640624999
0.7299316406249999
1.740234375
3.034130859375
3.034130859375
3.0357421875
3.0349365234374996
2.9583984374999996
2.9334228515625
2.7803466796875
2.6280761718749996
2.4935302734375
2.3033935546874997
1.8780029296874998
2.0407470703125
1.9279541015625
1.7458740234374999
3.0333251953125
3.0357421875
3.0365478515624997
3.037353515625
2.8512451171874997
2.715087890625
1.3027587890624999
0.0346435546875
0.030615234374999998
0.0298095703125
0.0249755859375
0.0346435546875
0.02900390625
0.19497070312499998
0.44956054687499997
0.61552734375
0.8507812499999999
1.0570312499999999
1.148876953125
1.2769775390625
1.3962158203125
0.0362548828125
0.0322265625
0.0201416015625
0.0281982421875
0.285205078125
0.281982421875
1.6878662109375
3.0389648437499996
3.0349365234374996
3.037353515625
3.0349365234374996
2.9737060546875
2.969677734375
2.7892089843749996
2.705419921875
2.5918212890624996
2.3775146484375
1.88525390625
1.9730712890625
1.9215087890625
1.8151611328125
1.722509765625
3.0357421875
3.0365478515624997
3.0365478515624997
3.0357421875
2.7392578125
1.8046875
0.030615234374999998
0.030615234374999998
0.0298095703125
0.0298095703125
0.02900390625
0.0298095703125
0.0298095703125
0.314208984375
0.56396484375
0.71865234375
1.3954101562499999
1.1077880859375
1.255224609375
1.3269287109374999
1.377685546875
0.0281982421875
0.02578125
0.02900390625
0.1409912109375
0.21511230468749998
1.04736328125
3.0357421875
3.0333251953125
3.0357421875
3.0333251953125
3.018017578125
2.9237548828124997
2.8633300781249997
2.7779296875
2.5402587890625
2.425048828125
2.2614990234375
1.9231201171874999
1.8739746093749998
1.783740234375
1.6636962890625
3.0333251953125
3.0365478515624997
3.037353515625
3.0301025390625
2.94873046875
2.2727783203125
0.0314208984375
0.02900390625
0.0322265625
0.0298095703125
0.02900390625
0.02900390625
0.0281982421875
0.3424072265625
0.7927734375
0.894287109375
1.0256103515625
1.2366943359375
1.3712402343749999
1.480810546875
1.5194824218749998
0.0298095703125
0.0314208984375
0.072509765625
0.2715087890625
0.775048828125
1.1110107421875
3.0357421875
3.037353515625
3.0357421875
3.0349365234374996
2.9986816406249996
2.8431884765624997
2.8931396484375
2.6353271484375
2.5644287109375
2.281640625
2.0681396484375
1.8796142578125
1.8264404296874999
1.7281494140625
1.6169677734374999
3.0357421875
3.0365478515624997
3.0357421875
3.0365478515624997
2.5193115234374996
2.1777099609375
0.6695068359374999
0.033032226562499996
0.0298095703125
0.026586914062499998
0.0281982421875
0.0322265625
0.0298095703125
0.3601318359375
0.5373779296875
0.9249023437499999
1.023193359375
1.4042724609375
1.327734375
1.4848388671875
1.5251220703125
0.030615234374999998
0.0281982421875
0.02900390625
0.10634765624999999
0.5406005859374999
1.1609619140625
2.34931640625
3.0389648437499996
3.0325195312499997
3.0365478515624997
2.9583984374999996
2.8464111328125
2.795654296875
2.4564697265624997
2.389599609375
2.247802734375
2.067333984375
2.4548583984375
1.8135498046874998
1.7184814453125
1.6411376953124999
1.5404296874999999
3.0365478515624997
3.0381591796875
3.0349365234374996
2.5072265624999996
2.1720703125
1.2826171874999999
0.033032226562499996
0.0298095703125
0.02900390625
0.0322265625
0.0298095703125
0.0314208984375
0.3029296875
0.6340576171875
0.8830078124999999
1.0884521484375
0.6413085937499999
1.4187744140624998
1.5726562499999999
1.60166015625
0.026586914062499998
0.02578125
0.033032226562499996
0.078955078125
0.6872314453124999
1.00224609375
1.912646484375
3.0365478515624997
3.0365478515624997
3.0381591796875
2.9108642578125
2.7690673828124996
2.6296874999999997
2.578125
2.3235351562499997
2.1744873046874997
2.0391357421875
2.3871826171875
1.6854492187499999
1.6806152343749998
1.6089111328124999
1.4300537109375
3.037353515625
3.0349365234374996
3.0325195312499997
2.747314453125
2.7166992187499996
1.1448486328125
0.0314208984375
0.0322265625
0.0281982421875
0.033032226562499996
0.033837890625
0.1248779296875
0.33757324218749996
0.7379882812499999
0.9643798828125
1.1432373046875
0.8121093749999999
1.5839355468749998
1.6330810546874999
1.7039794921875
1.667724609375
0.02578125
0.0298095703125
0.34965820312499996
0.7355712890624999
0.8741455078125
2.07861328125
3.037353515625
3.0365478515624997
3.037353515625
2.8576904296874996
2.63935546875
2.4604980468749997
2.38154296875
2.1003662109375
1.8473876953125
1.8739746093749998
1.7055908203124999
1.8763916015625
1.590380859375
1.5573486328125
1.5243164062499999
3.0357421875
3.0357421875
2.9753173828125
2.843994140625
2.618408203125
1.7023681640625
0.0314208984375
0.02900390625
0.0298095703125
0.033032226562499996
0.0459228515625
0.22880859374999998
0.285205078125
0.7742431640624999
1.0868408203125
1.281005859375
1.4848388671875
1.361572265625
1.6403320312499998
1.7047851562499998
1.690283203125
0.0298095703125
0.030615234374999998
0.604248046875
0.8241943359374999
0.952294921875
1.5605712890624999
3.0365478515624997
3.034130859375
3.0381591796875
2.9108642578125
2.6192138671875
2.341259765625
2.3823486328125
2.1003662109375
1.7797119140625
1.7080078125
1.625830078125
1.7265380859375
1.4630859374999998
1.474365234375
1.4864501953125
3.0349365234374996
3.034130859375
2.79404296875
2.763427734375
2.204296875
1.7821289062499999
0.02900390625
0.0298095703125
0.0314208984375
0.02900390625
0.09023437499999999
0.1861083984375
0.136962890625
0.7984130859374999
0.87978515625
1.2052734375
1.4993408203124998
1.3865478515624998
1.6991455078125
1.7587646484375
1.7426513671875
0.0298095703125
0.0298095703125
0.6711181640624999
0.7299316406249999
1.4236083984374999
1.69833984375
3.034130859375
3.0357421875
3.0365478515624997
2.840771484375
2.5007812499999997
2.2969482421875
2.180126953125
1.9062011718749998
1.8425537109374999
1.619384765625
1.5847412109374999
1.3220947265624998
1.6024658203125
1.5315673828124998
1.4888671875
3.034130859375
3.0365478515624997
2.776318359375
2.7996826171875
2.3227294921875
1.6363037109374998
0.580078125
0.027392578124999997
0.026586914062499998
0.033837890625
0.116015625
0.348046875
0.35368652343749996
0.889453125
1.2560302734375
1.5033691406249998
1.6129394531249999
1.8385253906249999
1.7587646484375
1.7901855468749999
1.7208984374999998
0.03544921875
0.0298095703125
0.3182373046875
0.69609375
1.3865478515624998
1.7813232421874998
2.5708740234375
3.0389648437499996
3.0357421875
2.8858886718749996
2.5168945312499997
2.118896484375
2.0165771484375
1.8119384765625
1.7088134765624998
1.6475830078125
1.5654052734375
1.3833251953124999
1.56943359375
1.56298828125
1.5662109375
2.808544921875
3.0365478515624997
2.850439453125
2.6627197265625
2.2179931640625
1.960986328125
0.57041015625
0.0281982421875
0.0298095703125
0.0298095703125
0.17080078124999998
0.3601318359375
0.49306640625
0.9007324218749999
1.271337890625
1.458251953125
1.5791015625
1.7055908203124999
1.748291015625
1.7797119140625
1.716064453125
0.0829833984375
0.027392578124999997
0.323876953125
0.8048583984375
1.1480712890625
1.2125244140625
2.4306884765625
3.034130859375
3.0357421875
2.8399658203125
2.5144775390625
2.215576171875
2.0254394531249997
1.8361083984375
1.6959228515625
1.6040771484374998
1.5533203125
1.316455078125
1.5194824218749998
1.5557373046874998
1.5057861328125
1.4840332031249999
3.0357421875
2.874609375
2.70380859375
2.4500244140625
2.0616943359374997
1.1190673828125
0.0298095703125
0.030615234374999998
0.0298095703125
0.13212890624999998
0.2771484375
0.5035400390625
0.7242919921875
1.1150390625
1.4091064453125
1.53076171875
2.0133544921874997
1.7716552734375
1.7740722656249999
1.7595703125
1.6653076171874999
0.02900390625
0.3520751953125
0.717041015625
1.0401123046875
1.198828125
1.9247314453125
3.0365478515624997
3.037353515625
3.0357421875
2.6232421875
2.2196044921875
2.038330078125
1.977099609375
1.7877685546875
1.5275390624999998
1.542041015625
1.4888671875
1.4783935546875
1.496923828125
1.5597656249999998
1.5637939453124998
3.0357421875
3.0349365234374996
2.6337158203124997
2.367041015625
2.2171875
1.5428466796875
0.030615234374999998
0.030615234374999998
0.027392578124999997
0.03544921875
0.323876953125
0.533349609375
0.5357666015625
1.1416259765624999
1.5839355468749998
1.6556396484375
2.109228515625
1.6894775390624999
1.74345703125
1.6846435546874998
1.6153564453125
0.033032226562499996
0.030615234374999998
0.79921875
0.942626953125
1.5138427734375
1.8328857421875
3.0357421875
3.0349365234374996
3.0333251953125
2.6055175781249997
2.3146728515625
2.0600830078125
1.941650390625
1.8022705078124999
1.8054931640624998
1.622607421875
1.5484863281249999
1.351904296875
1.506591796875
1.603271484375
1.5750732421875
3.037353515625
3.0389648437499996
2.578125
2.54267578125
1.8385253906249999
1.5670166015625
0.24089355468749998
0.02900390625
0.0281982421875
0.02578125
0.2666748046875
0.491455078125
0.639697265625
1.147265625
1.327734375
1.6129394531249999
1.651611328125
1.8925048828125
1.69833984375
1.6620849609375
1.6346923828125
0.0298095703125
0.0314208984375
0.6743408203125
0.8338623046875
1.4840332031249999
1.7474853515625
2.7142822265624997
3.0357421875
3.0357421875
2.6997802734375
2.3557617187499997
2.05927734375
2.0278564453125
1.683837890625
1.8554443359375
1.65966796875
1.5597656249999998
1.996435546875
1.538818359375
1.5605712890624999
1.554931640625
3.034130859375
3.0421875
2.6876953125
2.56201171875
1.93681640625
1.5992431640625
0.816943359375
0.0322265625
0.02900390625
0.026586914062499998
0.249755859375
0.4680908203125
0.5454345703125
0.8934814453125
1.303564453125
1.4920898437499999
1.6403320312499998
1.9601806640625
1.6967285156249998
1.74345703125
1.6725585937499998
0.0298095703125
0.0314208984375
0.6090820312499999
0.8564208984374999
1.2987304687499999
1.4711425781249998
2.582958984375
3.0357421875
3.037353515625
2.695751953125
2.4355224609375
2.147900390625
1.998046875
1.7926025390625
1.767626953125
1.6765869140624998
1.5517089843749998
1.94970703125
1.5170654296875
1.5492919921875
1.493701171875
1.4550292968749998
3.0357421875
2.7529541015624996
2.5918212890624996
2.20751953125
1.6725585937499998
0.8838134765625
0.0298095703125
0.0362548828125
0.0298095703125
0.1458251953125
0.4189453125
0.631640625
0.9176513671875
1.2697265624999998
1.4816162109375
1.5960205078124998
1.239111328125
1.74345703125
1.66611328125
1.658056640625
1.56298828125
0.0298095703125
0.594580078125
0.7315429687499999
1.2076904296875
1.4348876953124998
2.2171875
3.0357421875
3.0357421875
2.7908203124999997
2.502392578125
2.23330078125
1.9835449218749999
1.899755859375
1.72734375
1.611328125
1.6242187499999998
1.5412353515625
1.533984375
1.5154541015624998
1.5275390624999998
1.5041748046874999
3.0317138671875
2.8995849609374997
2.5885986328125
2.1986572265624997
2.1954345703125
1.3494873046875
0.0298095703125
0.0298095703125
0.02578125
0.1474365234375
0.44230957031249996
0.6260009765625
0.7395996093749999
1.2745605468749999
1.5186767578125
1.5992431640625
1.6886718749999998
1.7136474609374999
1.6572509765624999
1.6475830078125
1.5654052734375
0.02900390625
0.2586181640625
0.7468505859375
1.1657958984374999
1.3083984375
1.7104248046875
3.0381591796875
3.0349365234374996
3.0325195312499997
2.513671875
2.18818359375
1.9795166015624999
1.8699462890624998
1.7539306640624999
1.6290527343749999
1.58232421875
1.48564453125
1.7426513671875
1.561376953125
1.5267333984375
1.5364013671874999
3.0349365234374996
2.900390625
2.4943359375
2.3759033203124997
1.8111328125
1.413134765625
0.0298095703125
0.0298095703125
0.02900390625
0.11923828125
0.323876953125
0.5671875
0.7371826171875
1.2858398437499998
1.3510986328124999
1.6483886718749998
1.7120361328125
1.546875
1.7128417968749998
1.6806152343749998
1.6185791015625
0.0298095703125
0.1796630859375
0.9144287109375
0.9490722656249999
1.2802001953125
1.7055908203124999
2.9060302734374996
3.0405761718749997
3.0357421875
2.615185546875
2.31708984375
2.0133544921874997
1.9956298828124999
1.799853515625
1.6081054687499998
1.5758789062499998
1.5460693359375
1.3897705078125
1.5734619140625
1.56943359375
1.5146484375
3.0365478515624997
3.0349365234374996
2.4951416015624996
2.4016845703125
1.7893798828124998
1.49853515625
0.5824951171875
0.027392578124999997
0.02900390625
0.0314208984375
0.322265625
0.6340576171875
0.6251953124999999
1.0973144531249999
1.2906738281249999
1.513037109375
1.609716796875
1.6089111328124999
1.7474853515625
1.6943115234375
1.625830078125
0.030615234374999998
0.02900390625
0.5293212890625
0.8749511718749999
1.4679199218749999
1.7152587890625
2.792431640625
3.0349365234374996
3.0325195312499997
2.6538574218749997
2.3291748046875
2.064111328125
1.93681640625
1.7700439453124999
1.7611816406249998
1.683837890625
1.5396240234374998
1.4268310546874998
1.5444580078124999
1.5041748046874999
1.4735595703125
2.7400634765625
3.0365478515624997
2.566845703125
2.5273681640624996
2.07861328125
1.4832275390624998
0.6251953124999999
0.02900390625
0.0298095703125
0.030615234374999998
0.2263916015625
0.42216796874999996
0.5406005859374999
1.0836181640625
1.353515625
1.49853515625
1.6636962890625
1.59521484375
1.714453125
1.690283203125
1.6508056640625
0.36496582031249997
0.0314208984375
0.5438232421875
0.8443359374999999
1.26328125
1.7104248046875
2.3565673828125
3.037353515625
3.0365478515624997
2.7755126953125
2.399267578125
2.0584716796875
1.9053955078125
1.7821289062499999
1.687060546875
1.6645019531249998
1.6024658203125
1.43408203125
1.574267578125
1.59521484375
1.56943359375
2.338037109375
3.0349365234374996
2.618408203125
2.4371337890625
2.023828125
1.893310546875
1.09248046875
0.030615234374999998
0.0298095703125
0.0298095703125
0.20061035156249998
0.5309326171875
0.7049560546875
0.952294921875
1.400244140625
1.5170654296875
1.587158203125
1.4413330078125
1.6564453124999998
1.722509765625
1.6854492187499999
0.7968017578125
0.0298095703125
0.5478515625
0.7935791015625
1.2528076171875
1.2584472656249999
2.26875
3.034130859375
3.034130859375
2.860107421875
2.3960449218749997
2.1841552734375
1.98837890625
1.8304687499999999
1.6886718749999998
1.5976318359375
1.5718505859374998
1.2495849609374998
1.5750732421875
1.5243164062499999
1.5323730468749999
1.5041748046874999
3.0365478515624997
2.719921875
2.5225341796875
2.247802734375
1.973876953125
1.1577392578124999
0.030615234374999998
0.0346435546875
0.0322265625
0.1619384765625
0.41411132812499996
0.684814453125
0.8934814453125
1.3067871093749999
1.5323730468749999
1.577490234375
2.022216796875
1.5944091796875
1.6395263671875
1.625830078125
1.5589599609375
0.02900390625
0.49951171875
0.8145263671874999
1.06025390625
1.1641845703125
1.828857421875
3.0349365234374996
3.0357421875
2.8810546875
2.5483154296875
2.2260498046875
1.9875732421874999
1.9537353515625
1.7772949218749998
1.5621826171875
1.6105224609375
1.5404296874999999
1.6250244140624999
1.5347900390625
1.5444580078124999
1.5364013671874999
3.0357421875
3.0357421875
2.457275390625
2.2373291015625
2.0230224609375
1.513037109375
0.0314208984375
0.0322265625
0.027392578124999997
0.033837890625
0.3955810546875
0.6509765624999999
0.7218749999999999
1.239111328125
1.545263671875
1.6379150390625
1.6798095703125
1.5799072265624998
1.674169921875
1.61455078125
1.5831298828125
0.02900390625
0.027392578124999997
0.8588378906249999
0.958740234375
1.5267333984375
1.7781005859374999
3.034130859375
3.0309082031249996
3.037353515625
2.578125
2.29453125
2.0496093749999997
1.9360107421875
1.8240234375
1.8409423828125
1.6411376953124999
1.542041015625
1.3954101562499999
1.5621826171875
1.5815185546875
1.558154296875
3.0357421875
3.0365478515624997
2.5386474609375
2.513671875
1.9327880859375
1.5170654296875
0.217529296875
0.0281982421875
0.02900390625
0.0322265625
0.3158203125
0.5526855468749999
0.5873291015625
1.061865234375
1.3269287109374999
1.5637939453124998
1.6443603515624998
1.8892822265625
1.6411376953124999
1.6435546875
1.6250244140624999
0.0314208984375
0.0298095703125
0.652587890625
0.8322509765624999
1.368017578125
1.7813232421874998
2.6522460937499996
3.0357421875
3.037353515625
2.7046142578124996
2.3404541015625
2.031884765625
1.98193359375
1.7426513671875
1.7466796875
1.6508056640625
1.574267578125
1.9440673828125
1.5436523437499998
1.5984375
1.574267578125
3.0349365234374996
3.0365478515624997
2.679638671875
2.5015869140625
1.9432617187499999
1.6072998046875
0.833056640625
0.02900390625
0.0281982421875
0.0298095703125
0.1812744140625
0.5325439453124999
0.7017333984374999
0.9394042968749999
1.3929931640625
1.5186767578125
1.5968261718749999
1.867529296875
1.6669189453125
1.69189453125
1.6636962890625
0.0298095703125
0.030615234374999998
0.6388916015624999
0.8765624999999999
1.3664062499999998
1.3946044921874998
2.592626953125
3.0357421875
3.0349365234374996
2.7787353515624997
2.4468017578125
2.14951171875
1.941650390625
1.7474853515625
1.6765869140624998
1.6040771484374998
1.5839355468749998
1.8949218749999999
1.4759765624999999
1.5267333984375
1.5267333984375
1.4896728515625
3.037353515625
2.6675537109375
2.5072265624999996
2.2502197265625
2.1954345703125
0.8958984375
0.030615234374999998
0.02900390625
0.0298095703125
0.24814453125
0.43022460937499996
0.6566162109375
0.920068359375
1.2447509765625
1.4872558593749998
1.6024658203125
1.4493896484375
1.7934082031249998
1.7096191406249999
1.6830322265625
1.5839355468749998
0.02578125
0.597802734375
0.7033447265624999
1.139208984375
1.3656005859375
2.1333984375
3.0333251953125
3.034130859375
2.8423828125
2.521728515625
2.2324951171875
1.9569580078125
1.8908935546874999
1.6975341796874999
1.5984375
1.625830078125
1.5847412109374999
1.4759765624999999
1.5041748046874999
1.53720703125
1.5283447265624999
3.0349365234374996
2.8754150390624997
2.5515380859374996
2.1567626953125
2.1615966796875
1.3946044921874998
0.026586914062499998
0.033837890625
0.0298095703125
0.11359863281249999
0.42539062499999997
0.6469482421874999
0.7541015624999999
1.26005859375
1.56298828125
1.6306640625
1.703173828125
1.786962890625
1.7257324218749999
1.6806152343749998
1.59521484375
0.0281982421875
0.1619384765625
0.7669921875
1.09892578125
1.3172607421875
1.74345703125
3.0357421875
3.0357421875
3.034130859375
2.5048095703124997
2.2163818359375
1.9843505859375
1.85625
1.7208984374999998
1.6491943359374999
1.6266357421875
1.5517089843749998
1.6588623046875
1.5041748046874999
1.5218994140625
1.5654052734375
3.0357421875
2.9769287109375
2.5402587890625
2.4339111328125
1.815966796875
1.45341796875
0.02900390625
0.0281982421875
0.0298095703125
0.1168212890625
0.3907470703125
0.6614501953124999
0.7565185546875
1.2898681640624998
1.2544189453124999
1.5815185546875
1.6798095703125
1.609716796875
1.7200927734375
1.73056640625
1.7023681640625
0.0298095703125
0.0708984375
0.839501953125
0.8709228515624999
1.3607666015625
1.7571533203124998
2.7730957031249996
3.0349365234374996
3.037353515625
2.6739990234374997
2.34287109375
2.006103515625
1.9907958984374998
1.6773925781249999
1.7047851562499998
1.654833984375
1.585546875
1.6234130859375
1.5082031249999999
1.5090087890625
1.5275390624999998
3.037353515625
3.0357421875
2.5692626953124997
2.4363281249999997
1.7926025390625
1.4920898437499999
0.0958740234375
0.02900390625
0.0249755859375
0.02900390625
0.323876953125
0.578466796875
0.5857177734375
1.29228515625
1.24716796875
1.4953124999999998
1.6411376953124999
1.6483886718749998
1.6910888671875
1.674169921875
1.6604736328124998
0.02900390625
0.0314208984375
0.7887451171875
0.8596435546875
1.3768798828125
1.6322753906249998
2.7400634765625
3.0333251953125
3.037353515625
2.682861328125
2.3887939453125
2.1060058593749997
1.9384277343749998
1.706396484375
1.735400390625
1.6693359374999999
1.538818359375
1.6967285156249998
1.5275390624999998
1.5444580078124999
1.5364013671874999
2.126953125
3.0349365234374996
2.6272705078125
2.5241455078125
2.1052001953125
1.5299560546875
0.7065673828125
0.02900390625
0.030615234374999998
0.030615234374999998
0.23203125
0.42619628906249996
0.5687988281249999
0.9732421874999999
1.3100097656249998
1.4912841796874998
1.5944091796875
1.3309570312499999
1.67578125
1.6910888671875
1.638720703125
1.0852294921874999
0.0298095703125
0.4640625
0.710595703125
1.30517578125
1.590380859375
2.281640625
3.0365478515624997
3.0357421875
2.8045166015625
2.4822509765625
2.0898925781249997
1.996435546875
1.8788085937499999
1.740234375
1.6314697265625
1.5782958984375
1.2834228515625
1.6008544921874999
1.59521484375
1.5541259765625
1.8409423828125
3.0333251953125
2.7183105468749997
2.5394531249999996
2.1567626953125
2.0109375
1.2028564453125
0.0322265625
0.0298095703125
0.0298095703125
0.24814453125
0.42941894531249997
0.6405029296875
0.807275390625
1.3019531249999998
1.4816162109375
1.5791015625
1.3180664062499998
1.6975341796874999
1.6733642578124999
1.658056640625
1.2374999999999998
0.0346435546875
0.44956054687499997
0.7532958984375
1.1802978515625
1.168212890625
2.1825439453124997
3.034130859375
3.0365478515624997
2.9898193359375
2.5289794921874997
2.2671386718749997
2.0359130859375
1.9198974609375
1.72734375
1.7233154296875
1.5702392578125
1.1859374999999999
1.63388671875
1.5364013671874999
1.5509033203125
1.5428466796875
3.0349365234374996
2.745703125
2.5418701171875
2.384765625
2.1333984375
1.2963134765625
0.0322265625
0.02900390625
0.033837890625
0.130517578125
0.36093749999999997
0.580078125
0.813720703125
1.1609619140625
1.4228027343749998
1.51787109375
1.8385253906249999
1.53076171875
1.6894775390624999
1.654833984375
1.606494140625
0.0298095703125
0.42539062499999997
0.8427246093749999
0.97001953125
1.18916015625
1.8103271484374999
3.0349365234374996
3.0381591796875
2.953564453125
2.5845703125
2.3001708984375
2.0214111328124997
1.9924072265625
1.867529296875
1.7724609375
1.64677734375
1.5517089843749998
1.6314697265625
1.4864501953125
1.480810546875
1.482421875
3.0349365234374996
3.0325195312499997
2.5015869140625
2.3839599609374997
1.9996582031249999
1.5686279296874999
0.026586914062499998
0.033032226562499996
0.027392578124999997
0.030615234374999998
0.3424072265625
0.6082763671875
0.5792724609375
1.1786865234375
1.48564453125
1.533984375
1.603271484375
1.5275390624999998
1.69833984375
1.6685302734374998
1.6218017578125
0.0314208984375
0.026586914062499998
0.8749511718749999
0.9756591796874999
1.5186767578125
1.7442626953125
3.037353515625
3.0317138671875
3.037353515625
2.62646484375
2.3178955078125
2.0906982421875
1.9811279296875
1.8393310546875
1.6427490234375
1.6024658203125
1.56943359375
1.31162109375
1.5364013671874999
1.51787109375
1.4679199218749999
3.037353515625
3.0365478515624997
2.5628173828125
2.578125
1.9754882812499999
1.5073974609374998
0.49870605468749996
0.030615234374999998
0.02578125
0.02900390625
0.2537841796875
0.49467773437499996
0.6066650390625
1.09248046875
1.1939941406249999
1.5565429687499999
1.6330810546874999
1.8635009765625
1.6636962890625
1.6991455078125
1.6532226562499999
0.0314208984375
0.0298095703125
0.559130859375
0.8362792968749999
1.56298828125
1.754736328125
2.5249511718749997
3.0357421875
3.0357421875
2.7892089843749996
2.4564697265624997
2.0520263671875
1.9472900390624999
1.7660156249999999
1.5895751953125
1.5364013671874999
1.55009765625
1.670947265625
1.546875
1.5621826171875
1.5444580078124999
3.0397705078125
3.0357421875
2.698974609375
2.586181640625
2.0455810546874997
1.7128417968749998
0.942626953125
0.02900390625
0.0298095703125
0.02900390625
0.2513671875
0.47856445312499996
0.6429199218749999
0.9208740234374999
1.18271484375
1.4920898437499999
1.6363037109374998
1.7748779296875
1.69833984375
1.7265380859375
1.6330810546874999
0.02900390625
0.02900390625
0.5631591796875
0.7677978515624999
1.2536132812499998
1.3333740234375
2.5724853515625
3.0349365234374996
3.0357421875
2.8238525390625
2.4427734375
2.1245361328125
1.9569580078125
1.7926025390625
1.7829345703125
1.7080078125
1.6290527343749999
1.7233154296875
1.49853515625
1.4671142578124998
1.5025634765625
1.4687255859375
3.0333251953125
2.7328124999999996
2.5837646484374996
2.2913085937499997
1.7990478515625
0.8950927734374999
0.02900390625
0.0281982421875
0.0314208984375
0.1611328125
0.37705078124999997
0.6251953124999999
0.9192626953124999
1.216552734375
1.4155517578124999
1.638720703125
1.78857421875
1.796630859375
1.7023681640625
1.6749755859375
1.5782958984375
0.0298095703125
0.58330078125
0.6896484374999999
1.0409179687499999
1.2576416015624998
1.98515625
3.0357421875
3.037353515625
2.9318115234374997
2.550732421875
2.1809326171875
1.9078125
1.8659179687499998
1.7289550781249998
1.7104248046875
1.6177734375
1.5992431640625
1.529150390625
1.4993408203124998
1.5170654296875
1.46953125
3.037353515625
3.0325195312499997
2.60068359375
2.292919921875
2.2341064453125
1.4961181640624999
0.0298095703125
0.02900390625
0.0298095703125
0.0314208984375
0.394775390625
0.623583984375
0.6823974609375
1.173046875
1.3817138671875
1.5025634765625
1.6330810546874999
1.7370117187499998
1.7507080078125
1.7217041015624999
1.6379150390625
0.0298095703125
0.027392578124999997
0.6977050781249999
1.0401123046875
1.3905761718749998
1.72734375
3.0357421875
3.0365478515624997
3.034130859375
2.5475097656249996
2.238134765625
2.0109375
1.977099609375
1.7635986328125
1.6346923828125
1.651611328125
1.5863525390625
1.5283447265624999
1.542041015625
1.51787109375
1.4872558593749998
3.0357421875
3.0389648437499996
2.5966552734375
2.4983642578125
1.8175781249999998
1.4791992187499998
0.10231933593749999
0.030615234374999998
0.02900390625
0.0314208984375
0.2779541015625
0.554296875
0.662255859375
1.2423339843749999
