1.8715576171875
1.5315673828124998
1.0433349609375
0.581689453125
0.02900390625
0.02900390625
0.2280029296875
0.7565185546875
1.1126220703125
1.332568359375
1.585546875
1.7289550781249998
1.7571533203124998
1.7619873046874999
1.62744140625
1.764404296875
1.722509765625
1.69833984375
1.62744140625
0.0249755859375
1.052197265625
1.2769775390625
1.6910888671875
1.9762939453125
2.40087890625
3.0349365234374996
3.034130859375
2.4387451171875
1.998046875
1.6854492187499999
1.4953124999999998
1.4977294921875
1.4816162109375
1.4671142578124998
1.4429443359374998
1.413134765625
1.4574462890625
1.4493896484375
1.4574462890625
1.4510009765624998
3.037353515625
2.4991699218749996
2.002880859375
1.5758789062499998
1.4638916015624999
0.9257080078125
0.02900390625
0.0298095703125
0.06767578125
0.5132080078125
1.0401123046875
1.3011474609375
1.3962158203125
1.7257324218749999
1.7926025390625
1.7853515624999998
1.7764892578125
1.7426513671875
1.7249267578124998
1.6959228515625
1.625830078125
0.02900390625
0.8193603515625
1.2930908203125
1.667724609375
1.8788085937499999
2.193017578125
3.0357421875
3.034130859375
2.5612060546874997
1.94970703125
1.7015624999999999
1.5347900390625
1.5758789062499998
1.4791992187499998
1.3446533203125
1.448583984375
1.4348876953124998
1.49853515625
1.4687255859375
1.4791992187499998
1.4719482421874999
3.034130859375
3.0325195312499997
1.9891845703125
1.735400390625
1.2503906249999999
0.9611572265624999
0.0281982421875
0.0314208984375
0.02900390625
0.5148193359375
0.9418212890625
1.268115234375
1.4091064453125
1.77568359375
1.654833984375
1.7861572265624999
1.767626953125
1.699951171875
1.7233154296875
1.6951171875
1.6483886718749998
0.02900390625
0.736376953125
1.2826171874999999
1.5041748046874999
1.9311767578124999
2.2107421874999997
2.9036132812499997
3.0365478515624997
2.6659423828124997
2.160791015625
1.764404296875
1.522705078125
1.571044921875
1.3929931640625
1.332568359375
1.445361328125
1.4139404296875
1.4195800781249999
1.448583984375
1.48564453125
1.474365234375
3.0357421875
3.034130859375
2.1760986328125
1.7692382812499998
1.2141357421874999
1.0159423828125
0.378662109375
0.030615234374999998
0.030615234374999998
0.298095703125
0.9192626953124999
1.268115234375
1.27294921875
1.5960205078124998
1.622607421875
1.7635986328125
1.7845458984375
1.72734375
1.7539306640624999
1.7096191406249999
1.670947265625
0.02900390625
0.054785156249999994
1.04736328125
1.5186767578125
1.9585693359374998
2.2671386718749997
2.8536621093749996
3.0357421875
2.9720947265624997
2.3452880859375
1.85302734375
1.60166015625
1.4953124999999998
1.3478759765625
1.4171630859375
1.4300537109375
1.4171630859375
1.4437499999999999
1.4719482421874999
1.4679199218749999
1.4469726562499998
2.1116455078125
3.0317138671875
2.160791015625
1.8570556640625
1.464697265625
0.9837158203124999
0.407666015625
0.0281982421875
0.0249755859375
0.26828613281249997
0.7702148437499999
1.1279296875
1.3188720703124999
1.6363037109374998
1.7555419921875
1.7442626953125
1.7660156249999999
1.6717529296875
1.75634765625
1.706396484375
1.6556396484375
0.78310546875
0.02578125
1.123095703125
1.3229003906249999
1.75634765625
2.1865722656249997
2.6055175781249997
3.0357421875
3.0228515624999996
2.357373046875
1.92392578125
1.5791015625
1.4510009765624998
1.43408203125
1.3865478515624998
1.4058837890625
1.4316650390624999
1.3212890625
1.52109375
1.522705078125
1.482421875
1.8224121093749999
3.0349365234374996
2.341259765625
1.9537353515625
1.51787109375
1.29228515625
0.733154296875
0.023364257812499997
0.0281982421875
0.141796875
0.6050537109374999
1.1174560546874999
1.3140380859374998
1.4888671875
1.748291015625
1.77890625
1.77568359375
1.6451660156249999
1.74345703125
1.7128417968749998
1.6830322265625
1.213330078125
0.0322265625
0.926513671875
1.30517578125
1.7877685546875
1.7958251953125
2.5177001953125
3.037353515625
3.0309082031249996
2.5515380859374996
1.9617919921875
1.6781982421875
1.5396240234374998
1.4356933593749999
1.397021484375
1.3688232421875
1.38896484375
1.2431396484375
1.4308593749999998
1.4558349609374999
1.448583984375
1.445361328125
3.034130859375
2.386376953125
1.9489013671875
1.6604736328124998
1.348681640625
0.7943847656249999
0.02900390625
0.030615234374999998
0.13615722656249998
0.62197265625
1.0159423828125
1.3398193359375
1.4671142578124998
1.7015624999999999
1.9013671875
1.8087158203125
2.0004638671875
1.7418457031249999
1.740234375
1.7015624999999999
1.6532226562499999
0.02900390625
0.920068359375
1.3317626953125
1.5243164062499999
1.80791015625
2.2590820312499997
3.0365478515624997
3.0357421875
2.5233398437499996
2.086669921875
1.6137451171875
1.458251953125
1.5122314453124999
1.4397216796874999
1.3664062499999998
1.3978271484375
1.432470703125
1.4816162109375
1.474365234375
1.4501953125
1.4800048828124999
3.0365478515624997
2.795654296875
2.0310791015625
1.6137451171875
1.3075927734375
0.9982177734375
0.026586914062499998
0.02900390625
0.0322265625
0.41411132812499996
1.0078857421875
1.2938964843749998
1.332568359375
1.73056640625
1.9102294921874998
1.8417480468749998
1.8884765625
1.7249267578124998
1.7072021484375
1.6822265625
1.63388671875
0.0298095703125
0.41572265625
1.335791015625
1.5444580078124999
2.067333984375
2.2373291015625
3.0325195312499997
3.034130859375
2.784375
2.044775390625
1.7426513671875
1.50498046875
1.4598632812499999
1.40830078125
1.558154296875
1.4469726562499998
1.4364990234375
1.4373046875
1.4816162109375
1.493701171875
1.4888671875
3.0365478515624997
2.8447998046875
2.0214111328124997
1.7579589843749999
1.2431396484375
0.9716308593749999
0.2795654296875
0.026586914062499998
0.0314208984375
0.42619628906249996
0.8870361328124999
1.2938964843749998
1.3220947265624998
1.6612792968749999
1.7507080078125
1.78857421875
1.796630859375
1.79501953125
1.7507080078125
1.7337890624999999
1.6612792968749999
0.02578125
0.3520751953125
1.155322265625
1.4848388671875
2.0842529296875
2.26552734375
2.7384521484374997
3.0357421875
2.7819580078125
2.19140625
1.683837890625
1.4928955078125
1.4759765624999999
1.3865478515624998
1.55009765625
1.4477783203124999
1.413134765625
1.3946044921874998
1.458251953125
1.4751708984374998
1.4945068359375
3.003515625
3.0357421875
2.21396484375
1.7490966796874998
1.3108154296874999
1.052197265625
0.3069580078125
0.0298095703125
0.02900390625
0.26425781249999997
0.9071777343749999
1.248779296875
1.4268310546874998
1.7015624999999999
1.7700439453124999
1.8038818359375
1.8111328125
1.7845458984375
1.714453125
1.6943115234375
1.6636962890625
0.030615234374999998
0.026586914062499998
1.1617675781249999
1.509814453125
1.87236328125
2.3154785156249997
2.745703125
3.0357421875
3.0357421875
2.1849609375
1.738623046875
1.4783935546875
1.4373046875
1.40830078125
1.445361328125
1.448583984375
1.4091064453125
1.538818359375
1.4171630859375
1.4711425781249998
1.4679199218749999
1.44052734375
3.034130859375
2.231689453125
1.8304687499999999
1.3333740234375
1.095703125
0.6187499999999999
0.02900390625
0.02900390625
0.2827880859375
0.7822998046874999
1.2366943359375
1.397021484375
1.5879638671874998
1.754736328125
1.7926025390625
1.7845458984375
1.7571533203124998
1.7668212890625
1.7345947265625
1.6693359374999999
0.02900390625
0.027392578124999997
1.1126220703125
1.35673828125
1.9005615234375
1.944873046875
2.38154296875
3.034130859375
3.0357421875
2.344482421875
1.7684326171875
1.5057861328125
1.426025390625
1.4711425781249998
1.4091064453125
1.4034667968749999
1.4348876953124998
1.4896728515625
1.4800048828124999
1.4953124999999998
1.5033691406249998
1.4800048828124999
3.034130859375
2.4774169921875
1.7724609375
1.4928955078125
1.40185546875
0.6227783203124999
0.0298095703125
0.030615234374999998
0.1200439453125
0.7452392578125
1.1883544921875
1.380908203125
1.558154296875
1.7764892578125
1.8699462890624998
1.8224121093749999
1.8369140625
1.738623046875
1.722509765625
1.6806152343749998
1.6411376953124999
0.0298095703125
1.084423828125
1.384130859375
1.7168701171874998
1.931982421875
2.370263671875
3.0413818359375
3.034130859375
2.386376953125
1.8892822265625
1.5807128906249999
1.397021484375
1.4316650390624999
1.3736572265625
1.4373046875
1.4437499999999999
1.4590576171874998
1.48564453125
1.442138671875
1.456640625
1.4767822265625
3.037353515625
2.5088378906249997
1.93681640625
1.638720703125
1.3913818359374999
0.984521484375
0.1490478515625
0.027392578124999997
0.0958740234375
0.6034423828125
1.1706298828125
1.4074951171874999
1.42119140625
1.8296630859374998
1.8788085937499999
1.8095214843749998
1.780517578125
1.7571533203124998
1.7200927734375
1.6991455078125
1.6443603515624998
0.02900390625
0.733154296875
1.345458984375
1.6854492187499999
2.044775390625
2.22041015625
3.0389648437499996
3.0381591796875
2.5966552734375
2.0496093749999997
1.6169677734374999
1.4638916015624999
1.5162597656249999
1.4171630859375
1.4123291015625
1.4155517578124999
1.4308593749999998
1.4920898437499999
1.47275390625
1.4711425781249998
1.4308593749999998
3.037353515625
3.0349365234374996
1.957763671875
1.706396484375
1.155322265625
1.0175537109375
0.193359375
0.033032226562499996
0.0281982421875
0.6050537109374999
1.0078857421875
1.3204833984375
1.405078125
1.8409423828125
1.6798095703125
1.7200927734375
1.7555419921875
1.7345947265625
1.7233154296875
1.7072021484375
1.6435546875
0.0298095703125
0.7259033203124999
1.368017578125
1.5637939453124998
1.9972412109375
2.2163818359375
2.771484375
3.0357421875
2.5732910156249997
2.0665283203125
1.6886718749999998
1.4091064453125
1.4622802734375
1.3365966796875
1.416357421875
1.3825195312499998
1.4034667968749999
1.4896728515625
1.4759765624999999
1.4920898437499999
1.5122314453124999
3.034130859375
3.0365478515624997
2.1261474609374997
1.7329833984374998
1.1657958984374999
0.94423828125
0.46970214843749997
0.0298095703125
0.030615234374999998
0.3673828125
0.887841796875
1.3954101562499999
1.4550292968749998
1.6717529296875
1.7047851562499998
1.80791015625
1.7974365234374998
1.796630859375
1.7257324218749999
1.687060546875
1.6411376953124999
0.0346435546875
0.0298095703125
1.1923828125
1.577490234375
1.93359375
2.1551513671875
2.7497314453125
3.0389648437499996
2.9986816406249996
2.2623046875
1.67578125
1.4703369140625
1.4638916015624999
1.327734375
1.413134765625
1.4034667968749999
1.4091064453125
1.506591796875
1.4630859374999998
1.474365234375
1.4735595703125
1.5799072265624998
3.0309082031249996
2.152734375
1.7507080078125
1.4236083984374999
0.9732421874999999
0.46647949218749996
0.027392578124999997
0.0322265625
0.359326171875
0.8902587890625
1.2423339843749999
1.4759765624999999
1.6653076171874999
1.7724609375
1.786962890625
1.7716552734375
1.6105224609375
1.7337890624999999
1.703173828125
1.6612792968749999
1.5041748046874999
0.026586914062499998
1.187548828125
1.361572265625
1.8304687499999999
2.11728515625
2.4951416015624996
3.0333251953125
3.0349365234374996
2.2880859375
1.8312744140625
1.4735595703125
1.3954101562499999
1.397021484375
1.3817138671875
1.4461669921875
1.480810546875
1.4171630859375
1.456640625
1.4719482421874999
1.46953125
1.5122314453124999
3.0357421875
2.3452880859375
1.8788085937499999
1.42119140625
1.3382080078124998
0.816943359375
0.0298095703125
0.0281982421875
0.22075195312499998
0.7275146484374999
1.2109130859375
1.4268310546874998
1.5275390624999998
1.770849609375
1.8046875
1.8062988281249999
1.6540283203125
1.7249267578124998
1.7096191406249999
1.7007568359374998
1.6209960937499999
0.0298095703125
0.9240966796875
1.3857421875
1.79501953125
1.8731689453125
2.1760986328125
3.0349365234374996
3.0357421875
2.4886962890624997
1.8417480468749998
1.6072998046875
1.4679199218749999
1.4228027343749998
1.3921875
1.34384765625
1.4074951171874999
1.364794921875
1.4703369140625
1.43408203125
1.4622802734375
1.4550292968749998
3.0349365234374996
2.367041015625
1.88525390625
1.5662109375
1.21494140625
0.8983154296875
0.0322265625
0.0298095703125
0.21269531249999998
0.7234863281249999
1.1537109374999999
1.4630859374999998
1.5267333984375
1.7281494140625
1.77890625
1.7829345703125
1.8377197265624998
1.7410400390624998
1.7128417968749998
1.67900390625
1.6322753906249998
0.026586914062499998
0.9466552734375
1.3559326171875
1.5815185546875
1.8731689453125
2.20751953125
2.963232421875
3.0357421875
2.489501953125
2.002880859375
1.635498046875
1.413134765625
1.4912841796874998
1.3784912109374998
1.2769775390625
1.397021484375
1.413134765625
1.5090087890625
1.480810546875
1.4953124999999998
1.4872558593749998
3.037353515625
2.8593017578124997
1.9698486328125
1.590380859375
1.2173583984375
0.9611572265624999
0.0281982421875
0.033032226562499996
0.0604248046875
0.4729248046875
1.0948974609375
1.3744628906249998
1.3873535156249999
1.7797119140625
1.764404296875
1.8022705078124999
1.796630859375
1.7184814453125
1.7281494140625
1.6967285156249998
1.6282470703124998
0.0281982421875
0.29648437499999997
1.3752685546874999
1.5831298828125
2.115673828125
2.2969482421875
2.9092529296875
3.0357421875
2.785986328125
1.95615234375
1.606494140625
1.4300537109375
1.4759765624999999
1.3639892578125
1.464697265625
1.4034667968749999
1.4034667968749999
1.40830078125
1.4703369140625
1.4800048828124999
1.482421875
2.6127685546875
2.9358398437499997
2.0036865234375
1.69833984375
1.2930908203125
0.9063720703125
0.34562988281249996
0.033032226562499996
0.0362548828125
0.42136230468749997
0.958740234375
1.351904296875
1.456640625
1.7152587890625
1.79501953125
1.8022705078124999
1.8465820312499999
1.7611816406249998
1.7152587890625
1.706396484375
1.6532226562499999
0.0378662109375
0.23525390624999998
1.2415283203124998
1.5645996093749999
2.1293701171875
2.2880859375
2.66513671875
3.029296875
2.8093505859374996
2.1785156249999997
1.77890625
1.5017578125
1.5033691406249998
1.41796875
1.4711425781249998
1.4397216796874999
1.4203857421875
1.44052734375
1.4767822265625
1.490478515625
1.4671142578124998
2.305810546875
3.0357421875
2.1052001953125
1.5541259765625
1.22138671875
1.1029541015625
0.4084716796875
0.02900390625
0.041088867187499996
0.378662109375
1.0836181640625
1.4026611328124998
1.56298828125
1.7619873046874999
1.8119384765625
1.7652099609374998
1.7724609375
1.732177734375
1.7184814453125
1.7176757812499999
1.6371093749999999
0.55107421875
0.0281982421875
1.3180664062499998
1.609716796875
2.038330078125
1.9787109374999998
2.6159912109374996
3.0325195312499997
3.037353515625
2.0246337890625
1.5879638671874998
1.3446533203125
1.2737548828124998
1.27294921875
1.3237060546875
1.3390136718749999
1.3446533203125
1.35673828125
1.4187744140624998
1.426025390625
1.4510009765624998
1.4381103515625
3.037353515625
2.1116455078125
1.6483886718749998
1.3414306640625
1.0803955078125
0.6356689453125
0.0298095703125
0.033837890625
0.3988037109375
0.93779296875
1.3382080078124998
1.542041015625
1.6717529296875
1.8361083984375
1.82080078125
1.7716552734375
1.9110351562499999
1.7394287109375
1.7249267578124998
1.6798095703125
1.533984375
0.0281982421875
1.18271484375
1.5347900390625
1.9762939453125
1.9400390625
2.321923828125
3.0365478515624997
3.034130859375
2.2566650390625
1.69833984375
1.3253173828125
1.24716796875
1.3365966796875
1.3349853515624999
1.377685546875
1.397021484375
1.313232421875
1.4461669921875
1.458251953125
1.4445556640625
1.4284423828125
3.034130859375
2.47822265625
1.6798095703125
1.3253173828125
1.2052734375
0.6767578125
0.030615234374999998
0.0298095703125
0.22478027343749998
0.928125
1.329345703125
1.5984375
1.6943115234375
1.8715576171875
1.98837890625
1.8369140625
1.9674316406249999
1.7329833984374998
1.7289550781249998
1.651611328125
1.6242187499999998
0.02900390625
1.1698242187499999
1.5807128906249999
1.791796875
2.2502197265625
2.344482421875
3.0389648437499996
3.037353515625
2.225244140625
1.6242187499999998
1.3470703124999999
1.29228515625
1.3736572265625
1.3913818359374999
1.47275390625
1.4332763671875
1.4389160156249998
1.4920898437499999
1.4791992187499998
1.5073974609374998
1.477587890625
3.0389648437499996
2.5128662109374997
1.7692382812499998
1.4896728515625
1.1480712890625
0.881396484375
0.259423828125
0.0322265625
0.2263916015625
0.720263671875
1.3398193359375
1.59521484375
1.5831298828125
1.869140625
1.9400390625
1.8626953124999999
1.832080078125
1.719287109375
1.7289550781249998
1.6862548828125
1.6322753906249998
0.027392578124999997
0.7291259765625
1.458251953125
1.7909912109375
2.196240234375
2.31064453125
3.0349365234374996
3.037353515625
2.495947265625
1.8498046874999998
1.361572265625
1.2455566406249998
1.3575439453125
1.3341796874999998
1.5025634765625
1.3994384765624999
1.4381103515625
1.4413330078125
1.4501953125
1.5001464843749999
1.4767822265625
3.0357421875
3.0389648437499996
1.7781005859374999
1.4767822265625
1.003857421875
0.871728515625
0.29326171875
0.02578125
0.14501953125
0.7943847656249999
1.2665039062499999
1.5412353515625
1.5557373046874998
1.8377197265624998
1.8361083984375
1.7740722656249999
1.7619873046874999
1.7571533203124998
1.6967285156249998
1.7281494140625
1.6878662109375
0.027392578124999997
0.6090820312499999
1.4397216796874999
1.722509765625
2.115673828125
2.3807373046875
2.76826171875
3.0349365234374996
2.5394531249999996
1.867529296875
1.4477783203124999
1.2342773437499999
1.329345703125
1.3148437499999999
1.4268310546874998
1.4348876953124998
1.429248046875
1.5782958984375
1.5009521484375
1.4888671875
1.448583984375
3.0365478515624997
3.0389648437499996
2.0181884765625
1.5879638671874998
1.10859375
0.8934814453125
0.5019287109375
0.02900390625
0.08137207031249999
0.475341796875
1.0771728515624999
1.5364013671874999
1.6379150390625
1.812744140625
1.8626953124999999
1.8232177734375
1.7660156249999999
1.735400390625
1.714453125
1.7281494140625
1.6959228515625
0.0298095703125
0.0281982421875
1.303564453125
1.6886718749999998
2.09150390625
2.1583740234374997
2.7263671874999997
3.0349365234374996
3.027685546875
2.115673828125
1.5057861328125
1.3083984375
1.2705322265624999
1.3075927734375
1.37607421875
1.4074951171874999
1.4115234374999999
1.5750732421875
1.4276367187499999
1.4928955078125
1.4711425781249998
1.4687255859375
3.0325195312499997
2.1503173828124997
1.7072021484375
1.3704345703124998
0.9273193359374999
0.42136230468749997
0.0298095703125
0.0298095703125
0.23525390624999998
0.6437255859375
0.984521484375
1.2511962890625
1.4945068359375
1.716064453125
1.7740722656249999
1.803076171875
1.6572509765624999
1.7692382812499998
1.7490966796874998
1.69833984375
1.6620849609375
0.027392578124999997
1.01513671875
1.24072265625
1.6524169921874998
2.01416015625
2.5249511718749997
3.0357421875
3.037353515625
2.4814453125
2.03994140625
1.66611328125
1.5621826171875
1.4977294921875
1.3817138671875
1.3986328124999998
1.3857421875
1.4316650390624999
1.4518066406249999
1.474365234375
1.490478515625
1.4679199218749999
3.0397705078125
2.5716796874999996
2.0794189453125
1.6169677734374999
1.49853515625
0.9007324218749999
0.0298095703125
0.02900390625
0.0322265625
0.607470703125
0.9885498046875
1.2656982421874998
1.37607421875
1.7571533203124998
1.8522216796875
1.832080078125
1.7297607421874999
1.7619873046874999
1.7297607421874999
1.6951171875
1.6395263671875
0.0298095703125
0.694482421875
1.206884765625
1.6081054687499998
1.8844482421875
2.4749999999999996
3.0365478515624997
3.034130859375
2.6885009765624996
2.0689453125
1.751513671875
1.5863525390625
1.587158203125
1.480810546875
1.3873535156249999
1.40185546875
1.3792968749999999
1.4518066406249999
1.4316650390624999
1.448583984375
1.46630859375
3.0357421875
2.6594970703125
2.135009765625
1.8369140625
1.5202880859374999
0.9555175781249999
0.030615234374999998
0.030615234374999998
0.0314208984375
0.33193359375
0.7621582031249999
1.2318603515625
1.3237060546875
1.706396484375
1.64677734375
1.8062988281249999
1.8538330078124998
1.796630859375
1.8409423828125
1.8224121093749999
1.6894775390624999
0.0281982421875
0.6098876953125
1.1303466796875
1.353515625
1.85947265625
2.1841552734375
3.0188232421874996
3.037353515625
2.7867919921874997
2.3082275390625
1.8860595703124998
1.5718505859374998
1.590380859375
1.3946044921874998
1.332568359375
1.3905761718749998
1.4244140625
1.5347900390625
1.4276367187499999
1.4864501953125
1.461474609375
3.034130859375
3.037353515625
2.270361328125
1.883642578125
1.3059814453124998
0.9821044921875
0.02578125
0.026586914062499998
0.02900390625
0.191748046875
0.752490234375
1.0642822265625
1.13115234375
1.6459716796875
1.5750732421875
1.764404296875
1.8296630859374998
1.76279296875
1.7611816406249998
1.722509765625
1.6588623046875
0.0249755859375
0.02900390625
1.0642822265625
1.27939453125
1.8699462890624998
2.280029296875
3.0333251953125
3.034130859375
3.034130859375
2.4081298828124997
1.998046875
1.7015624999999999
1.6121337890624998
1.3873535156249999
1.480810546875
1.445361328125
1.4284423828125
1.4510009765624998
1.4228027343749998
1.4477783203124999
1.4356933593749999
2.212353515625
3.0333251953125
2.3436767578124997
2.0149658203125
1.5839355468749998
0.97646484375
0.29970703125
0.02900390625
0.0249755859375
0.120849609375
0.5309326171875
1.0006347656249999
1.119873046875
1.4759765624999999
1.7120361328125
1.8304687499999999
1.851416015625
1.738623046875
1.8224121093749999
1.77890625
1.732177734375
0.59619140625
0.02578125
0.8999267578125
1.1899658203124999
1.9150634765624999
2.273583984375
2.8166015625
3.0325195312499997
3.037353515625
2.5152832031249996
2.0552490234375
1.69833984375
1.5758789062499998
1.4711425781249998
1.4308593749999998
1.3792968749999999
1.405078125
1.4429443359374998
1.43408203125
1.45341796875
1.4598632812499999
1.9537353515625
3.0381591796875
2.4983642578125
1.973876953125
1.5847412109374999
1.35673828125
0.343212890625
0.024169921875
0.026586914062499998
0.030615234374999998
0.580078125
0.9385986328125
1.16337890625
1.4381103515625
1.6491943359374999
1.7668212890625
1.8216064453124998
1.7426513671875
1.791796875
1.7934082031249998
1.7378173828124999
1.0828125
0.030615234374999998
0.9249023437499999
1.158544921875
1.6604736328124998
1.7619873046874999
2.7094482421875
3.0309082031249996
3.0357421875
2.521728515625
2.0987548828125
1.7732666015624998
1.6177734375
1.5170654296875
1.4316650390624999
1.4332763671875
1.377685546875
1.1770751953125
1.4195800781249999
1.5082031249999999
1.4816162109375
1.4437499999999999
3.034130859375
2.5007812499999997
2.0536376953124997
1.7023681640625
1.368017578125
0.6630615234374999
0.030615234374999998
0.0322265625
0.030615234374999998
0.42216796874999996
0.7879394531249999
1.1754638671875
1.3204833984375
1.6572509765624999
1.832080078125
1.8973388671875
2.125341796875
1.8820312499999998
1.7934082031249998
1.7329833984374998
1.6943115234375
0.0281982421875
0.7710205078125
1.16337890625
1.6653076171874999
1.7813232421874998
2.3162841796875
3.0333251953125
3.0405761718749997
2.6546630859375
2.2099365234375
1.8054931640624998
1.5895751953125
1.5492919921875
1.409912109375
1.332568359375
1.353515625
1.158544921875
1.3994384765624999
1.4139404296875
1.477587890625
1.4252197265625
3.0357421875
2.9575927734375
2.102783203125
1.7595703125
1.4203857421875
0.7226806640625
0.0298095703125
0.0322265625
0.02900390625
0.37302246093749997
0.7661865234374999
1.123095703125
1.3664062499999998
1.7136474609374999
1.925537109375
1.861083984375
2.0576660156249997
1.8304687499999999
1.8232177734375
1.7490966796874998
1.7023681640625
0.0298095703125
0.7774658203125
1.19560546875
1.426025390625
2.126953125
2.389599609375
3.0357421875
3.0357421875
2.6739990234374997
2.204296875
1.8175781249999998
1.5073974609374998
1.493701171875
1.413134765625
1.5662109375
1.4091064453125
1.4026611328124998
1.3527099609375
1.3921875
1.4147460937499998
1.3978271484375
3.0397705078125
3.011572265625
2.173681640625
1.8659179687499998
1.3688232421875
0.9249023437499999
0.0298095703125
0.0322265625
0.02900390625
0.26022949218749997
0.71220703125
1.1158447265625
1.1923828125
1.6435546875
1.9037841796875
1.9384277343749998
1.909423828125
1.819189453125
1.8417480468749998
1.7555419921875
1.699951171875
0.02900390625
0.159521484375
0.992578125
1.4195800781249999
2.1624023437499997
2.437939453125
3.0333251953125
3.0357421875
3.0220458984375
2.360595703125
1.78857421875
1.5041748046874999
1.456640625
1.340625
1.5186767578125
1.38896484375
1.405078125
1.3172607421875
1.3978271484375
1.456640625
1.4518066406249999
3.0365478515624997
3.0349365234374996
2.1744873046874997
1.941650390625
1.3462646484374998
0.8749511718749999
0.043505859375
0.030615234374999998
0.0281982421875
0.18046874999999998
0.639697265625
0.9917724609374999
1.1674072265625
1.641943359375
1.8377197265624998
1.989990234375
1.9714599609374999
1.996435546875
1.8868652343749999
1.7990478515625
1.7128417968749998
0.027392578124999997
0.09829101562499999
1.0376953125
1.3946044921874998
1.909423828125
2.4911132812499996
3.0333251953125
3.0381591796875
3.0002929687499997
2.334814453125
1.851416015625
1.4800048828124999
1.4373046875
1.3043701171875
1.2963134765625
1.2818115234374998
1.303564453125
1.4767822265625
1.3954101562499999
1.4284423828125
1.41796875
3.034130859375
3.0365478515624997
2.405712890625
1.960986328125
1.3664062499999998
0.94423828125
0.30051269531249997
0.02900390625
0.0298095703125
0.072509765625
0.539794921875
1.0272216796875
1.2753662109375
1.5517089843749998
1.8586669921874999
1.9311767578124999
1.9634033203124999
1.9231201171874999
1.844970703125
1.8361083984375
1.7974365234374998
0.0322265625
0.030615234374999998
0.9160400390625
1.3817138671875
1.925537109375
2.1889892578125
3.0333251953125
3.034130859375
3.0357421875
2.5305908203125
1.8489990234375
1.529150390625
1.335791015625
1.2423339843749999
1.268115234375
1.27939453125
1.303564453125
1.4219970703125
1.3865478515624998
1.4316650390624999
1.4445556640625
1.45341796875
3.034130859375
2.3952392578125
1.9110351562499999
1.5267333984375
0.9555175781249999
0.314208984375
0.030615234374999998
0.033032226562499996
0.0443115234375
0.59619140625
1.0030517578125
1.3639892578125
1.590380859375
1.84013671875
2.0036865234375
2.0101318359375
1.9545410156249998
1.9432617187499999
1.880419921875
1.7982421874999999
1.7047851562499998
0.0281982421875
1.0127197265624999
1.3583496093749998
1.7652099609374998
2.164013671875
2.85205078125
3.0325195312499997
3.0365478515624997
2.4685546874999997
1.9352050781249999
1.448583984375
1.2850341796875
1.300341796875
1.2439453125
1.3229003906249999
1.3478759765625
1.3921875
1.426025390625
1.4687255859375
1.5170654296875
1.5138427734375
3.0357421875
2.70380859375
2.083447265625
1.51787109375
1.3599609375
0.7822998046874999
0.02900390625
0.02900390625
0.0298095703125
0.594580078125
0.984521484375
1.3301513671874998
1.474365234375
1.9545410156249998
2.1785156249999997
2.126953125
2.1535400390625
1.94970703125
1.8119384765625
1.6894775390624999
1.4783935546875
0.0298095703125
0.41008300781249996
1.0739501953125
1.5509033203125
1.9835449218749999
2.602294921875
3.0357421875
3.0349365234374996
2.7569824218749996
2.0004638671875
1.58232421875
1.3333740234375
1.2938964843749998
1.2374999999999998
1.16337890625
1.2866455078124999
1.3430419921874999
1.48564453125
1.4236083984374999
1.4606689453125
1.461474609375
3.0317138671875
2.8456054687499996
2.1712646484375
1.8586669921874999
1.3986328124999998
0.7484619140625
0.0322265625
0.0298095703125
0.0298095703125
0.30615234375
0.7404052734375
1.219775390625
1.3607666015625
1.9223144531249998
1.7732666015624998
2.077001953125
2.0923095703125
2.0012695312499997
1.9376220703125
1.8892822265625
1.7716552734375
0.026586914062499998
0.33515625
1.1496826171874999
1.4477783203124999
2.1704589843749997
2.5724853515625
3.0317138671875
3.037353515625
2.8536621093749996
2.199462890625
1.5621826171875
1.2777832031249998
1.2511962890625
1.02158203125
1.18271484375
1.219775390625
1.2334716796875
1.3591552734374999
1.34384765625
1.4066894531249998
1.4493896484375
3.0357421875
3.0333251953125
2.3501220703125
1.8941162109374998
1.0731445312499999
0.6896484374999999
0.026586914062499998
0.02900390625
0.0322265625
0.08701171875
0.7645751953125
1.164990234375
1.2697265624999998
1.8812255859375
1.812744140625
2.1019775390624997
2.1293701171875
2.07861328125
1.9698486328125
1.928759765625
1.8054931640624998
0.0281982421875
0.027392578124999997
1.0739501953125
1.361572265625
2.05283203125
2.5950439453125
3.0365478515624997
3.0325195312499997
3.0357421875
2.205908203125
1.6564453124999998
1.3100097656249998
1.1947998046875
0.9482666015625
1.1931884765625
1.198828125
1.2205810546875
1.3349853515624999
1.3204833984375
1.3881591796875
1.429248046875
1.74345703125
3.0349365234374996
2.418603515625
2.002880859375
1.4518066406249999
0.6936767578124999
0.02900390625
0.02900390625
0.0298095703125
0.030615234374999998
0.5373779296875
0.9547119140625
1.2890625
1.7555419921875
2.0302734375
2.1342041015624997
2.165625
1.9343994140624998
2.0334960937499997
1.9432617187499999
1.799853515625
1.27939453125
0.0281982421875
0.9144287109375
1.1674072265625
2.05283203125
2.53623046875
3.0357421875
3.0381591796875
3.037353515625
2.421826171875
1.8336914062499998
1.3108154296874999
1.1158447265625
1.0771728515624999
1.0868408203125
1.1045654296875
1.1641845703125
1.4896728515625
1.3599609375
1.4058837890625
1.4518066406249999
1.5895751953125
3.0357421875
2.6361328124999996
1.9472900390624999
1.456640625
1.20849609375
0.027392578124999997
0.02900390625
0.026586914062499998
0.0298095703125
0.5204589843749999
0.9313476562499999
1.276171875
1.7337890624999999
2.0471923828125
2.128564453125
2.19140625
1.851416015625
2.064111328125
2.012548828125
1.8699462890624998
1.5517089843749998
0.0298095703125
0.8967041015624999
1.0973144531249999
1.8369140625
2.0496093749999997
3.037353515625
3.0349365234374996
3.0397705078125
2.5233398437499996
1.9529296875
1.5218994140625
1.2439453125
1.17626953125
1.1021484375
1.0119140625
1.134375
0.9772705078124999
1.303564453125
1.400244140625
1.4276367187499999
1.4437499999999999
3.034130859375
2.650634765625
2.128564453125
1.75634765625
1.2447509765625
0.40122070312499997
0.033032226562499996
0.02578125
0.030615234374999998
0.375439453125
0.823388671875
1.3309570312499999
1.4872558593749998
1.920703125
2.115673828125
2.1938232421875
2.2566650390625
2.0689453125
1.9867675781249998
1.8578613281249998
1.7458740234374999
0.033032226562499996
0.752490234375
1.2938964843749998
1.96904296875
2.1704589843749997
2.8077392578125
3.0349365234374996
3.0357421875
2.566845703125
1.9198974609375
1.384130859375
1.1029541015625
1.15693359375
1.0626708984375
0.9579345703125
1.1851318359375
1.206884765625
1.351904296875
1.3494873046875
1.4155517578124999
1.4550292968749998
3.0357421875
3.0349365234374996
2.14306640625
1.716064453125
1.1738525390624999
0.6380859375
0.033032226562499996
0.02900390625
0.0281982421875
0.35771484374999996
0.7935791015625
1.2366943359375
1.3317626953125
1.9714599609374999
2.151123046875
2.1889892578125
2.1664306640624997
2.0214111328124997
2.054443359375
1.944873046875
1.77890625
0.0298095703125
0.0298095703125
1.24716796875
1.5114257812499998
2.386376953125
2.7328124999999996
3.0325195312499997
3.034130859375
2.67158203125
2.064111328125
1.5436523437499998
1.1617675781249999
1.06669921875
0.9434326171874999
1.152099609375
1.100537109375
1.203662109375
1.1480712890625
1.3672119140624999
1.458251953125
1.4751708984374998
3.0357421875
3.0381591796875
2.2437744140625
1.8844482421875
1.087646484375
0.6227783203124999
0.0281982421875
0.0298095703125
0.0298095703125
0.2102783203125
0.7194580078124999
1.248779296875
1.34384765625
1.8626953124999999
2.0818359374999997
2.2365234375
2.225244140625
2.2341064453125
2.044775390625
1.9360107421875
1.799853515625
0.030615234374999998
0.02900390625
0.9531005859374999
1.4638916015624999
2.3952392578125
2.80048828125
3.0357421875
3.037353515625
3.034130859375
2.27197265625
1.5146484375
1.1174560546874999
1.0256103515625
0.9007324218749999
1.0828125
1.0578369140625
1.14404296875
1.2173583984375
1.4139404296875
1.4912841796874998
1.5001464843749999
3.037353515625
3.0317138671875
2.4758056640625
1.869140625
1.2455566406249998
0.7839111328124999
0.030615234374999998
0.02900390625
0.0281982421875
0.030615234374999998
0.6485595703125
1.1295410156249999
1.4219970703125
1.8602783203125
2.04638671875
2.2171875
2.204296875
2.2115478515625
2.0745849609375
1.9924072265625
1.8626953124999999
0.030615234374999998
0.030615234374999998
0.9152343749999999
1.4195800781249999
2.0101318359375
2.79404296875
3.034130859375
3.0365478515624997
3.0325195312499997
2.2880859375
1.69833984375
1.252001953125
1.0336669921875
0.968408203125
0.9756591796874999
1.0723388671875
1.132763671875
1.198828125
1.3180664062499998
1.4477783203124999
1.4880615234374999
1.4872558593749998
3.0365478515624997
2.4927246093749997
2.0173828124999997
1.3341796874999998
0.9015380859375
0.0765380859375
0.0281982421875
0.0281982421875
0.026586914062499998
0.5349609375
1.1053710937499999
1.44052734375
1.67578125
2.0044921875
2.204296875
2.222021484375
2.2832519531249997
2.02705078125
1.9569580078125
1.8755859375
0.0298095703125
0.030615234374999998
0.833056640625
1.2383056640624999
1.9762939453125
2.247802734375
2.8931396484375
3.0357421875
3.034130859375
2.4983642578125
1.7507080078125
1.3269287109374999
1.06025390625
1.04736328125
0.966796875
1.1239013671875
1.10859375
1.16015625
1.2785888671874999
1.4228027343749998
1.482421875
1.4920898437499999
3.0365478515624997
2.9841796874999997
1.98515625
1.5299560546875
1.276171875
0.116015625
0.0314208984375
0.02900390625
0.0281982421875
0.5003173828124999
0.9450439453124999
1.3430419921874999
1.6024658203125
1.9754882812499999
2.29775390625
2.2268554687499997
2.4226318359375
2.1076171875
1.998046875
1.8707519531249999
1.7257324218749999
0.02900390625
0.8000244140624999
1.2906738281249999
1.767626953125
2.2212158203125
2.9108642578125
3.0333251953125
3.0325195312499997
2.52978515625
1.9102294921874998
1.4091064453125
1.0594482421875
1.0650878906249999
0.9812988281249999
1.09248046875
1.119873046875
1.190771484375
1.3583496093749998
1.3897705078125
1.482421875
1.4832275390624998
3.0349365234374996
3.0091552734375
2.1865722656249997
1.60166015625
1.30517578125
0.6380859375
0.02900390625
0.030615234374999998
0.0201416015625
0.2586181640625
0.878173828125
1.284228515625
1.4888671875
2.044775390625
2.36220703125
2.2163818359375
2.204296875
2.101171875
2.0214111328124997
1.928759765625
1.7724609375
0.030615234374999998
0.2263916015625
1.1384033203125
1.6322753906249998
2.389599609375
2.7078369140625
3.034130859375
3.037353515625
2.9398681640624997
1.9940185546875
1.50498046875
1.173046875
1.116650390625
0.9821044921875
1.1384033203125
1.0900634765625
1.187548828125
1.2181640624999999
1.3414306640625
1.40185546875
1.4276367187499999
3.0413818359375
3.037353515625
2.205908203125
1.9384277343749998
1.0820068359375
0.6388916015624999
0.0281982421875
0.0281982421875
0.0322265625
0.26022949218749997
0.7323486328125
1.16337890625
1.377685546875
1.9263427734374998
2.0214111328124997
2.2727783203125
2.2147705078124997
2.1970458984375
2.0294677734374997
1.8989501953124999
1.754736328125
0.0298095703125
0.1119873046875
1.1303466796875
1.5082031249999999
2.405712890625
2.727978515625
3.034130859375
3.0357421875
2.96162109375
2.14951171875
1.5960205078124998
1.155322265625
1.135986328125
0.8805908203124999
1.071533203125
1.132763671875
1.197216796875
1.416357421875
1.4308593749999998
1.464697265625
1.4622802734375
3.0349365234374996
3.0365478515624997
2.421826171875
1.9327880859375
1.1214843749999999
0.6195556640625
0.026586914062499998
0.02900390625
0.0322265625
0.0555908203125
0.58974609375
1.1351806640625
1.332568359375
1.699951171875
2.054443359375
2.18173828125
2.2115478515625
2.1978515625
2.064111328125
1.9505126953124998
1.844970703125
0.030615234374999998
0.02900390625
0.9635742187499999
1.50498046875
2.0842529296875
2.5418701171875
3.0357421875
3.034130859375
3.0357421875
2.4016845703125
1.6451660156249999
1.2584472656249999
1.09248046875
0.9772705078124999
1.06025390625
1.0626708984375
1.1214843749999999
1.5041748046874999
1.3075927734375
1.4147460937499998
1.4316650390624999
1.4896728515625
3.0357421875
2.4741943359375
1.9376220703125
1.4461669921875
1.2399169921875
0.02900390625
0.030615234374999998
0.0298095703125
0.043505859375
0.5567138671874999
0.9547119140625
1.3744628906249998
1.7426513671875
2.0625
2.1213134765625
2.2244384765625
1.8498046874999998
2.0826416015625
1.9529296875
1.8151611328125
1.6822265625
0.0298095703125
0.9224853515625
1.2012451171875
1.8731689453125
2.518505859375
3.0365478515624997
3.0389648437499996
3.034130859375
2.4443847656249997
1.7926025390625
1.3390136718749999
1.0336669921875
1.036083984375
0.9756591796874999
1.0812011718749999
1.1537109374999999
1.1996337890625
1.400244140625
1.4123291015625
1.4477783203124999
1.4783935546875
3.0325195312499997
2.7545654296874997
2.1664306640624997
1.5033691406249998
1.2930908203125
0.45842285156249996
0.02900390625
0.0298095703125
0.0298095703125
0.38591308593749996
0.9853271484374999
1.3317626953125
1.554931640625
2.006103515625
2.1293701171875
2.2051025390625
2.18818359375
2.096337890625
1.9779052734375
1.9029785156249999
1.6959228515625
0.0298095703125
0.58974609375
1.2423339843749999
1.9053955078125
2.1333984375
2.7030029296875
3.034130859375
3.034130859375
2.695751953125
1.851416015625
1.43408203125
1.095703125
1.135986328125
0.9821044921875
0.8443359374999999
1.110205078125
1.20849609375
1.3736572265625
1.368017578125
1.4203857421875
1.4751708984374998
3.0349365234374996
3.0357421875
2.1325927734375
1.7313720703125
1.0513916015625
0.49467773437499996
0.0281982421875
0.0298095703125
0.0281982421875
0.35771484374999996
0.7951904296875
1.2608642578125
1.5001464843749999
1.9859619140625
2.0149658203125
2.20751953125
2.173681640625
2.0173828124999997
2.0334960937499997
1.9062011718749998
1.780517578125
0.02900390625
0.5212646484375
1.1915771484375
1.4542236328125
2.3614013671875
2.6578857421874997
3.0333251953125
3.034130859375
2.7424804687499997
2.093115234375
1.5509033203125
1.10859375
1.103759765625
0.9643798828125
1.1351806640625
1.110205078125
1.181103515625
1.142431640625
1.3744628906249998
1.44052734375
1.4590576171874998
3.0413818359375
3.0357421875
2.3267578125
1.89169921875
1.0497802734375
0.6098876953125
0.0281982421875
0.0298095703125
0.0298095703125
0.149853515625
0.6896484374999999
1.216552734375
1.3019531249999998
1.8361083984375
1.941650390625
2.1551513671875
2.2099365234375
2.012548828125
2.0214111328124997
1.9295654296875
1.8151611328125
0.033032226562499996
0.027392578124999997
0.9176513671875
1.4816162109375
2.29453125
2.7247558593749996
3.0397705078125
3.034130859375
3.037353515625
2.3549560546875
1.6024658203125
1.2205810546875
1.0497802734375
0.865283203125
1.05380859375
1.0771728515624999
1.1657958984374999
1.174658203125
1.4244140625
1.4518066406249999
1.4638916015624999
2.6095458984374997
3.0349365234374996
2.3477050781249997
1.9537353515625
1.3704345703124998
0.630029296875
0.02900390625
0.0298095703125
0.0298095703125
0.0797607421875
0.5808837890624999
0.9990234375
1.2592529296875
1.738623046875
2.0109375
2.2107421874999997
2.228466796875
2.1261474609374997
2.051220703125
1.9634033203124999
1.8369140625
0.1313232421875
0.0298095703125
0.8854248046875
1.3446533203125
1.94970703125
2.7610107421874996
3.029296875
3.0365478515624997
3.037353515625
2.2695556640625
1.735400390625
1.15693359375
1.039306640625
1.0288330078124999
1.0570312499999999
1.1690185546875
1.2109130859375
0.994189453125
1.3607666015625
1.4397216796874999
1.4558349609374999
1.4373046875
3.0349365234374996
2.57490234375
2.0496093749999997
1.3881591796875
1.0248046874999999
0.1957763671875
0.027392578124999997
0.0314208984375
0.033837890625
0.5220703125
1.036083984375
1.3784912109374998
1.5968261718749999
2.070556640625
2.1390380859375
2.1865722656249997
2.466943359375
2.0302734375
1.957763671875
1.8441650390625
0.7702148437499999
0.02900390625
0.758935546875
1.2592529296875
1.9182861328124998
2.1954345703125
2.9253662109375
3.0357421875
3.0357421875
2.5547607421875
1.7603759765625
1.3083984375
1.05380859375
1.045751953125
1.010302734375
1.0965087890625
1.1416259765624999
1.0159423828125
1.3639892578125
1.4687255859375
1.4977294921875
1.506591796875
3.0365478515624997
3.037353515625
2.0262451171875
1.6081054687499998
1.319677734375
0.24814453125
0.02900390625
0.0314208984375
0.02900390625
0.4310302734375
0.8523925781249999
1.252001953125
1.5718505859374998
1.9360107421875
2.3146728515625
2.1793212890625
2.4766113281249997
2.13662109375
2.03994140625
1.8812255859375
1.7611816406249998
0.027392578124999997
0.7412109375
1.2890625
1.5879638671874998
2.10439453125
2.8149902343749997
3.0349365234374996
3.037353515625
2.6047119140625
2.0423583984375
1.5218994140625
1.1214843749999999
1.1214843749999999
1.042529296875
1.0465576171875
1.1222900390625
1.174658203125
1.2270263671875
1.40830078125
1.4236083984374999
1.4228027343749998
3.0349365234374996
3.0365478515624997
2.22041015625
1.88525390625
1.2157470703125
0.594580078125
0.0314208984375
0.02578125
0.026586914062499998
0.278759765625
0.7669921875
1.22783203125
1.3212890625
1.8651123046875
2.27197265625
2.212353515625
2.1938232421875
2.0665283203125
2.0197998046875
1.9182861328124998
1.8151611328125
0.0281982421875
0.045117187499999996
1.0594482421875
1.53720703125
2.3581787109375
2.7577880859375
3.0365478515624997
3.0325195312499997
3.0317138671875
2.27197265625
1.5645996093749999
1.2366943359375
1.1706298828125
1.0465576171875
1.2858398437499998
1.1537109374999999
1.1964111328125
1.21171875
1.364794921875
1.4155517578124999
1.4679199218749999
3.0381591796875
3.0349365234374996
2.2163818359375
1.928759765625
1.16015625
0.62197265625
0.030615234374999998
0.0281982421875
0.02900390625
0.2578125
0.71865234375
1.1593505859375
1.3656005859375
1.8506103515624999
2.080224609375
2.1583740234374997
2.183349609375
2.1849609375
2.0359130859375
1.931982421875
1.8183837890624999
0.0298095703125
0.0314208984375
0.920068359375
1.4091064453125
1.9827392578124998
2.7642333984375
3.0357421875
3.037353515625
3.0325195312499997
2.2880859375
1.7208984374999998
1.3664062499999998
1.16337890625
1.0207763671874999
1.074755859375
1.1529052734375
1.20849609375
1.5718505859374998
1.3744628906249998
1.4107177734374998
1.4244140625
1.4284423828125
3.0365478515624997
2.466943359375
1.9843505859375
1.281005859375
0.7436279296874999
0.02900390625
0.02900390625
0.0314208984375
0.030615234374999998
0.5083740234374999
1.0803955078125
1.2938964843749998
1.706396484375
2.0576660156249997
2.2365234375
2.2494140625
1.9787109374999998
2.02705078125
1.9464843749999998
1.8336914062499998
0.0298095703125
0.0298095703125
0.8628662109374999
1.3833251953124999
1.9940185546875
2.4484130859374997
3.034130859375
3.0381591796875
3.0365478515624997
2.5418701171875
1.7297607421874999
1.2955078125
1.061865234375
1.010302734375
1.08603515625
1.1609619140625
1.222998046875
1.3817138671875
1.2858398437499998
1.3446533203125
1.4139404296875
1.429248046875
3.0365478515624997
2.4919189453125
1.998046875
1.5355957031249998
1.332568359375
0.049145507812499996
0.0298095703125
0.0298095703125
0.0281982421875
0.49951171875
0.9724365234375
1.332568359375
1.7257324218749999
2.0133544921874997
2.152734375
2.1938232421875
2.128564453125
2.167236328125
1.9907958984374998
1.8578613281249998
1.7208984374999998
0.0298095703125
0.8507812499999999
1.1126220703125
1.7378173828124999
2.373486328125
3.0333251953125
3.034130859375
3.0325195312499997
2.5249511718749997
1.9215087890625
1.448583984375
1.110205078125
1.134375
1.0304443359375
1.1174560546874999
1.1029541015625
1.173046875
1.4034667968749999
1.3422363281249998
1.43408203125
1.4961181640624999
3.034130859375
2.8754150390624997
2.1946289062499997
1.55009765625
1.353515625
0.581689453125
0.030615234374999998
0.02900390625
0.0298095703125
0.3053466796875
0.9160400390625
1.2721435546875
1.4493896484375
1.9779052734375
2.1060058593749997
2.2163818359375
2.1728759765625
2.1358154296875
1.998046875
1.9078125
1.7684326171875
0.0281982421875
0.4439208984375
1.2415283203124998
1.7168701171874998
2.196240234375
2.7239501953125
3.0325195312499997
3.0365478515624997
2.802099609375
1.9730712890625
1.496923828125
1.1666015625
1.1794921875
1.0328613281249999
1.1754638671875
1.152099609375
1.1859374999999999
1.4477783203124999
1.3736572265625
1.4228027343749998
1.4638916015624999
3.0349365234374996
3.0349365234374996
2.1793212890625
1.848193359375
1.044140625
0.588134765625
0.027392578124999997
0.02900390625
0.0281982421875
0.33193359375
0.7863281249999999
1.1593505859375
1.4236083984374999
1.9956298828124999
2.325146484375
2.1696533203125
2.2002685546875
2.0455810546874997
2.0117431640625
1.9190917968749999
1.7531249999999998
0.02900390625
0.33757324218749996
1.2012451171875
1.4348876953124998
2.180126953125
2.6748046875
3.0397705078125
3.0349365234374996
2.8383544921875
2.1519287109375
1.6290527343749999
1.158544921875
1.1617675781249999
0.9434326171874999
1.14404296875
1.1206787109375
1.1794921875
1.31162109375
1.3986328124999998
1.4687255859375
1.4542236328125
3.037353515625
3.0325195312499997
2.341259765625
1.8957275390625
1.013525390625
0.610693359375
0.02900390625
0.0298095703125
0.02900390625
0.072509765625
0.5857177734375
1.1794921875
1.3067871093749999
1.7458740234374999
2.241357421875
2.1785156249999997
2.141455078125
2.064111328125
2.0020751953125
1.9142578124999998
1.8119384765625
0.033032226562499996
0.02900390625
0.87978515625
1.4437499999999999
2.1873779296875
2.6764160156249996
3.0349365234374996
3.034130859375
3.037353515625
2.39443359375
1.6781982421875
1.2979248046874998
1.1295410156249999
0.9079833984375
1.3341796874999998
1.1375976562499999
1.235888671875
1.5275390624999998
1.4316650390624999
1.4735595703125
1.456640625
1.9505126953124998
3.0381591796875
2.373486328125
1.93359375
1.47275390625
1.0892578124999999
0.02900390625
0.0298095703125
0.0298095703125
0.0990966796875
0.6308349609374999
0.9893554687499999
1.287451171875
1.6773925781249999
1.9013671875
2.0568603515625
2.08828125
1.8457763671874998
2.03994140625
1.9384277343749998
1.82724609375
1.1859374999999999
0.027392578124999997
0.9112060546874999
1.2020507812499999
1.8087158203125
2.578125
3.0349365234374996
3.0333251953125
3.0357421875
2.4564697265624997
1.893310546875
1.4864501953125
1.190771484375
1.168212890625
1.147265625
1.1738525390624999
1.148876953125
1.00546875
1.3664062499999998
1.4477783203124999
1.4679199218749999
1.490478515625
3.0357421875
2.616796875
2.0898925781249997
1.4429443359374998
1.1722412109375
0.359326171875
0.0298095703125
0.027392578124999997
0.023364257812499997
0.38671875
0.9482666015625
1.2785888671874999
1.4767822265625
1.9062011718749998
2.101171875
2.144677734375
2.263916015625
1.9956298828124999
1.9182861328124998
1.8425537109374999
1.3768798828125
0.0322265625
0.7637695312499999
1.2906738281249999
1.8570556640625
2.1068115234375
2.69736328125
3.0357421875
3.0309082031249996
2.6240478515624996
1.8868652343749999
1.4510009765624998
1.24716796875
1.2286376953125
1.0884521484375
1.1859374999999999
1.171435546875
1.0892578124999999
1.3430419921874999
1.3962158203125
1.448583984375
1.442138671875
3.0284912109374997
3.0357421875
2.0890869140625
1.619384765625
1.19560546875
0.47856445312499996
0.0298095703125
0.0249755859375
0.022558593749999998
0.35126953125
0.7871337890625
1.1754638671875
1.461474609375
1.864306640625
2.0197998046875
2.144677734375
2.1503173828124997
1.9360107421875
1.9400390625
1.8240234375
1.735400390625
0.02900390625
0.7839111328124999
1.3510986328124999
1.5597656249999998
2.0625
2.6699707031249997
3.0333251953125
3.0462158203125
2.6200195312499996
2.0552490234375
1.6218017578125
1.2270263671875
1.2254150390625
1.2374999999999998
1.0272216796875
1.2350830078125
1.2608642578125
1.2044677734375
1.35673828125
1.3712402343749999
1.400244140625
3.0365478515624997
3.0349365234374996
2.2002685546875
1.8989501953124999
1.1931884765625
0.7259033203124999
0.0314208984375
0.0314208984375
0.0298095703125
0.20302734374999998
0.6574218749999999
1.2093017578125
1.2850341796875
1.7394287109375
1.9545410156249998
2.02060546875
1.993212890625
1.869140625
1.9150634765624999
1.8425537109374999
1.7619873046874999
0.0298095703125
0.0515625
0.9555175781249999
1.51787109375
2.2510253906249997
2.6055175781249997
3.0357421875
3.034130859375
3.0099609375
2.281640625
1.716064453125
1.3784912109374998
1.2818115234374998
1.252001953125
1.052197265625
1.239111328125
1.3253173828125
1.2656982421874998
1.4703369140625
1.4864501953125
1.4880615234374999
3.0317138671875
3.037353515625
2.1809326171875
1.85625
1.30517578125
0.7927734375
0.0298095703125
0.030615234374999998
0.02900390625
0.19899902343749998
0.7242919921875
1.139208984375
1.3043701171875
1.7595703125
1.7337890624999999
1.9682373046875
1.9996582031249999
2.0794189453125
1.9376220703125
1.85302734375
1.7418457031249999
0.030615234374999998
0.030615234374999998
0.9982177734375
1.4236083984374999
1.9376220703125
2.5950439453125
3.0357421875
3.037353515625
3.0107666015624996
2.26875
1.7313720703125
1.3905761718749998
1.2350830078125
1.1770751953125
1.239111328125
1.22783203125
1.2673095703125
1.429248046875
1.405078125
1.4276367187499999
1.4711425781249998
1.496923828125
3.0365478515624997
2.3646240234375
1.8941162109374998
1.3229003906249999
0.8958984375
0.23525390624999998
0.0298095703125
0.0298095703125
0.0346435546875
0.581689453125
1.0892578124999999
1.3728515625
1.6250244140624999
1.8683349609375
1.920703125
1.9311767578124999
1.9150634765624999
1.8377197265624998
1.84013671875
1.7587646484375
0.027392578124999997
0.030615234374999998
0.94423828125
1.174658203125
1.8796142578125
2.11728515625
2.7320068359375
3.0389648437499996
3.0357421875
2.3871826171875
1.62744140625
1.2995361328125
1.15693359375
1.1859374999999999
1.1351806640625
1.16337890625
1.1851318359375
1.3309570312499999
1.3011474609375
1.3768798828125
1.4066894531249998
1.40185546875
3.0357421875
2.6683593749999996
1.9134521484375
1.5323730468749999
1.41796875
0.4036376953125
0.0298095703125
0.0298095703125
0.026586914062499998
0.6654785156249999
1.094091796875
1.4026611328124998
1.6298583984375
1.8949218749999999
1.9585693359374998
1.9714599609374999
2.0520263671875
1.920703125
1.8465820312499999
1.835302734375
1.7499023437499999
0.02900390625
0.9724365234375
1.2737548828124998
1.735400390625
2.044775390625
2.6119628906249996
3.0365478515624997
3.034130859375
2.566845703125
2.0343017578125
1.6564453124999998
1.3905761718749998
1.3768798828125
1.316455078125
1.3857421875
1.40830078125
1.4155517578124999
1.5347900390625
1.4783935546875
1.44052734375
1.4195800781249999
3.034130859375
2.6949462890625
2.0197998046875
1.7450683593749998
1.413134765625
0.8765624999999999
0.027392578124999997
0.027392578124999997
0.027392578124999997
0.388330078125
0.8354736328125
1.3510986328124999
1.4308593749999998
1.8296630859374998
1.832080078125
1.8731689453125
1.843359375
1.77568359375
1.754736328125
1.7023681640625
1.6266357421875
0.030615234374999998
0.5808837890624999
1.190771484375
1.603271484375
2.13984375
2.431494140625
3.034130859375
3.0357421875
2.68125
2.15595703125
1.638720703125
1.4203857421875
1.5017578125
1.3559326171875
1.3180664062499998
1.351904296875
1.3607666015625
1.416357421875
1.37607421875
1.4373046875
1.400244140625
3.0325195312499997
3.0365478515624997
2.247802734375
1.8296630859374998
1.1698242187499999
0.8467529296874999
0.02900390625
0.027392578124999997
0.0281982421875
0.1812744140625
0.7968017578125
1.2020507812499999
1.2592529296875
1.770849609375
1.9513183593749999
1.9134521484375
1.8788085937499999
1.8739746093749998
1.8465820312499999
1.8119384765625
1.687060546875
0.0322265625
0.0281982421875
1.17626953125
1.4139404296875
1.9432617187499999
2.34609375
3.0099609375
3.037353515625
3.034130859375
2.2341064453125
1.8151611328125
1.5557373046874998
1.538818359375
1.2955078125
1.6169677734374999
1.4171630859375
1.393798828125
1.585546875
1.4590576171874998
1.474365234375
1.4800048828124999
1.6725585937499998
3.0325195312499997
2.26552734375
1.87236328125
1.2044677734375
0.9128173828124999
0.3504638671875
0.0314208984375
0.02900390625
0.1635498046875
0.6888427734375
1.1964111328125
1.3269287109374999
1.6121337890624998
1.7772949218749998
1.8361083984375
1.815966796875
1.6250244140624999
1.7740722656249999
1.79501953125
1.7233154296875
0.027392578124999997
0.0281982421875
1.0836181640625
1.2826171874999999
1.9166748046875
2.225244140625
2.70380859375
3.034130859375
3.034130859375
2.4177978515625
1.8473876953125
1.5517089843749998
1.4042724609375
1.3728515625
1.5718505859374998
1.3865478515624998
1.3510986328124999
1.5533203125
1.46630859375
1.4800048828124999
1.490478515625
1.5323730468749999
3.037353515625
2.4419677734375
1.85625
1.4783935546875
1.384130859375
0.40202636718749996
0.0298095703125
0.0281982421875
0.042700195312499994
0.7097900390624999
1.0787841796875
1.3285400390625
1.619384765625
1.799853515625
1.8667236328124999
1.843359375
1.5984375
1.7619873046874999
1.72734375
1.6935058593749999
1.5525146484374999
0.02900390625
1.026416015625
1.2334716796875
1.7466796875
2.125341796875
2.6063232421875
3.0325195312499997
3.0357421875
2.4846679687499997
2.022216796875
1.699951171875
1.4574462890625
1.4510009765624998
1.3784912109374998
1.40830078125
1.35673828125
1.3075927734375
1.4381103515625
1.4236083984374999
1.4115234374999999
1.4316650390624999
3.0357421875
2.4927246093749997
2.028662109375
1.5154541015624998
1.4074951171874999
0.837890625
0.0249755859375
0.027392578124999997
0.02900390625
0.47775878906249997
1.0006347656249999
1.2882568359375
1.405078125
1.754736328125
1.883642578125
1.9384277343749998
1.8868652343749999
1.8087158203125
1.7458740234374999
1.719287109375
1.6693359374999999
0.02900390625
0.807275390625
1.3220947265624998
1.7313720703125
1.8393310546875
2.2598876953125
3.0365478515624997
3.0365478515624997
2.5918212890624996
1.9835449218749999
1.6636962890625
1.4767822265625
1.490478515625
1.3543212890624998
1.4469726562499998
1.416357421875
1.3664062499999998
1.4598632812499999
1.448583984375
1.477587890625
1.43408203125
3.034130859375
3.0357421875
2.006103515625
1.6967285156249998
1.2302490234374999
0.881396484375
0.0322265625
0.033032226562499996
0.02900390625
0.443115234375
0.863671875
1.2060791015624999
1.4147460937499998
1.8054931640624998
1.8780029296874998
1.8506103515624999
1.8667236328124999
1.740234375
1.7845458984375
1.7442626953125
1.6854492187499999
0.02900390625
0.7452392578125
1.26005859375
1.4606689453125
1.8949218749999999
2.302587890625
3.0333251953125
3.0381591796875
2.6578857421874997
2.12373046875
1.740234375
1.4888671875
1.545263671875
1.3704345703124998
1.4276367187499999
1.41796875
1.384130859375
1.3639892578125
1.5202880859374999
1.522705078125
1.4510009765624998
3.034130859375
3.0333251953125
2.1084228515625
1.7853515624999998
1.17626953125
0.9176513671875
0.25620117187499997
0.02900390625
0.02900390625
0.2900390625
0.8838134765625
1.20849609375
1.2366943359375
1.6306640625
1.89169921875
1.8538330078124998
1.8296630859374998
1.7249267578124998
1.7490966796874998
1.7168701171874998
1.7015624999999999
0.02578125
0.0837890625
1.01513671875
1.4477783203124999
2.0214111328124997
2.3557617187499997
3.0164062499999997
3.0349365234374996
3.0164062499999997
2.3920166015624997
1.8062988281249999
1.5879638671874998
1.5106201171875
1.32451171875
1.3994384765624999
1.3559326171875
1.3897705078125
1.42119140625
1.4510009765624998
1.4896728515625
1.458251953125
2.3920166015624997
3.0357421875
2.152734375
1.8054931640624998
1.416357421875
0.8999267578125
0.27392578125
0.026586914062499998
0.026586914062499998
0.24331054687499998
0.813720703125
1.1722412109375
1.3156494140625
1.6129394531249999
1.609716796875
1.7781005859374999
1.8143554687499999
1.7442626953125
1.748291015625
1.7208984374999998
1.674169921875
0.53818359375
0.030615234374999998
1.039306640625
1.3494873046875
1.8095214843749998
2.3243408203125
2.7497314453125
3.0349365234374996
3.0349365234374996
2.3396484374999997
1.9489013671875
1.6048828124999999
1.525927734375
1.4510009765624998
1.40830078125
1.3962158203125
1.4066894531249998
1.2608642578125
1.4074951171874999
1.426025390625
1.44052734375
1.5218994140625
3.0349365234374996
2.3581787109375
1.95615234375
1.458251953125
1.2447509765625
0.688037109375
0.0281982421875
0.02900390625
0.14018554687499998
0.6324462890625
1.1303466796875
1.3285400390625
1.4526123046875
1.65966796875
1.848193359375
1.877197265625
2.0069091796875
1.7281494140625
1.7265380859375
1.65966796875
0.9659912109375
0.02900390625
0.95068359375
1.3124267578125
1.812744140625
1.9005615234375
2.3557617187499997
3.0349365234374996
3.034130859375
2.5491210937499997
1.9118408203125
1.6749755859375
1.5460693359375
1.590380859375
1.43408203125
1.3962158203125
1.3865478515624998
1.216552734375
1.4332763671875
1.4630859374999998
1.4622802734375
1.4429443359374998
3.0357421875
2.6594970703125
1.9086181640625
1.6008544921874999
1.3833251953124999
0.7218749999999999
0.02900390625
0.02900390625
0.0878173828125
0.56396484375
0.9611572265624999
1.276171875
1.4816162109375
1.7104248046875
1.783740234375
1.8812255859375
2.0302734375
1.7724609375
1.764404296875
1.7104248046875
1.6765869140624998
0.02900390625
0.9313476562499999
1.264892578125
1.585546875
1.867529296875
2.3178955078125
3.034130859375
3.0365478515624997
2.5394531249999996
2.0568603515625
1.6991455078125
1.4864501953125
1.49853515625
1.4598632812499999
1.4381103515625
1.4074951171874999
1.4147460937499998
1.3784912109374998
1.4711425781249998
1.4920898437499999
1.4767822265625
3.0381591796875
2.8037109375
2.044775390625
1.7684326171875
1.3172607421875
0.9369873046874999
0.17644042968749998
0.0298095703125
0.0322265625
0.37302246093749997
0.984521484375
1.2802001953125
1.3188720703124999
1.6403320312499998
1.7442626953125
1.8167724609375
1.8385253906249999
1.7934082031249998
1.786962890625
1.7603759765625
1.6693359374999999
0.0281982421875
0.43425292968749996
1.1666015625
1.5815185546875
2.11728515625
2.3525390625
3.034130859375
3.0389648437499996
2.7867919921874997
2.20751953125
1.7152587890625
1.5541259765625
1.5347900390625
1.4574462890625
1.4300537109375
1.5565429687499999
1.4840332031249999
1.4203857421875
1.474365234375
1.4590576171874998
1.4308593749999998
3.0365478515624997
3.0357421875
1.9948242187499998
1.7539306640624999
1.18916015625
0.920068359375
0.19255371093749998
0.0298095703125
0.027392578124999997
0.388330078125
0.8991210937499999
1.2310546875
1.34384765625
1.699951171875
1.7595703125
1.8256347656249998
1.8175781249999998
1.8256347656249998
1.72412109375
1.714453125
1.6532226562499999
0.0298095703125
0.3585205078125
1.181103515625
1.5331787109375
1.9601806640625
2.389599609375
2.8069335937499997
3.0365478515624997
2.808544921875
2.18173828125
1.7724609375
1.426025390625
1.397021484375
1.3172607421875
1.4268310546874998
1.3422363281249998
1.4187744140624998
1.5799072265624998
1.416357421875
1.42119140625
1.4888671875
3.034130859375
3.0357421875
2.2187988281249997
1.7684326171875
1.224609375
0.9490722656249999
0.4954833984375
0.027392578124999997
0.0298095703125
0.275537109375
0.894287109375
1.2302490234374999
1.3817138671875
1.5686279296874999
1.683837890625
1.8240234375
1.8546386718749999
1.8659179687499998
1.7845458984375
1.764404296875
1.7007568359374998
0.0298095703125
0.030615234374999998
1.0965087890625
1.4759765624999999
1.9472900390624999
2.0343017578125
2.7303955078124997
3.0381591796875
3.0381591796875
2.3855712890625
1.7982421874999999
1.51787109375
1.4332763671875
1.4147460937499998
1.43408203125
1.393798828125
1.409912109375
1.5404296874999999
1.400244140625
1.4219970703125
1.4139404296875
1.3921875
3.0381591796875
2.241357421875
1.7926025390625
1.4501953125
1.0385009765625
0.54140625
0.02900390625
0.0298095703125
0.2457275390625
0.758935546875
1.1754638671875
1.416357421875
1.6129394531249999
1.7877685546875
1.8417480468749998
1.8296630859374998
1.7982421874999999
1.803076171875
1.72412109375
1.706396484375
1.6411376953124999
0.02900390625
1.116650390625
1.3414306640625
1.7265380859375
2.0052978515624997
2.49755859375
3.0365478515624997
3.0357421875
2.3646240234375
1.8667236328124999
1.4920898437499999
1.4042724609375
1.4397216796874999
1.35673828125
1.3792968749999999
1.3857421875
1.3978271484375
1.3929931640625
1.4413330078125
1.4574462890625
1.4437499999999999
3.0301025390625
2.518505859375
1.9400390625
1.482421875
1.3978271484375
0.9635742187499999
0.02900390625
0.0298095703125
0.0845947265625
0.502734375
1.126318359375
1.3994384765624999
1.490478515625
1.7934082031249998
1.8071044921875
1.7909912109375
1.8876708984375
1.8240234375
1.7523193359375
1.703173828125
1.6653076171874999
0.0281982421875
0.7194580078124999
1.3591552734374999
1.7088134765624998
2.031884765625
2.4363281249999997
3.0349365234374996
3.0325195312499997
2.6176025390624997
1.9134521484375
1.5645996093749999
1.40830078125
1.3978271484375
1.3744628906249998
1.4155517578124999
1.3833251953124999
1.37607421875
1.4542236328125
1.405078125
1.4429443359374998
1.4518066406249999
3.0365478515624997
2.618408203125
1.9617919921875
1.6878662109375
1.3253173828125
0.90556640625
0.1490478515625
0.02900390625
0.07412109374999999
0.5124023437499999
0.9885498046875
1.73056640625
2.0471923828125
2.376708984375
2.3235351562499997
2.0181884765625
1.9432617187499999
1.8328857421875
1.67578125
1.6218017578125
1.56298828125
0.02900390625
0.7299316406249999
1.3921875
1.6153564453125
2.07216796875
2.276806640625
2.85849609375
3.0349365234374996
2.5015869140625
1.9166748046875
1.4316650390624999
1.2858398437499998
1.37607421875
1.222998046875
1.3011474609375
1.3639892578125
1.368017578125
1.413134765625
1.4203857421875
1.448583984375
1.4477783203124999
3.0365478515624997
3.0365478515624997
1.9714599609374999
1.5919921874999998
1.029638671875
0.8370849609375
0.17482910156249998
0.033032226562499996
0.0620361328125
0.4036376953125
1.1190673828125
1.4316650390624999
1.4719482421874999
1.8167724609375
1.9223144531249998
1.8473876953125
1.7853515624999998
1.7619873046874999
1.71123046875
1.6910888671875
1.6588623046875
0.026586914062499998
0.0668701171875
1.3833251953124999
1.6491943359374999
2.0069091796875
2.2727783203125
2.7497314453125
3.037353515625
2.9712890625
1.957763671875
1.56298828125
1.368017578125
1.4445556640625
1.26005859375
1.5678222656249998
1.3792968749999999
1.3994384765624999
1.5436523437499998
1.445361328125
1.4832275390624998
1.4864501953125
1.585546875
3.0349365234374996
2.0302734375
1.5895751953125
1.058642578125
0.862060546875
0.48581542968749997
0.030615234374999998
0.0322265625
0.4197509765625
0.9958007812499999
1.4767822265625
1.52109375
1.6991455078125
1.8111328125
1.8506103515624999
1.8022705078124999
1.585546875
1.740234375
1.7120361328125
1.651611328125
0.02578125
0.030615234374999998
1.2963134765625
1.4961181640624999
2.0657226562499997
2.1728759765625
2.5241455078125
3.0333251953125
2.977734375
2.1873779296875
1.58232421875
1.3301513671874998
1.300341796875
1.3333740234375
1.5533203125
1.416357421875
1.3954101562499999
1.5927978515624999
1.4655029296875
1.4703369140625
1.464697265625
1.47275390625
3.0349365234374996
2.3033935546874997
1.6218017578125
1.35673828125
1.2495849609374998
0.44794921875
0.02900390625
0.030615234374999998
0.2537841796875
1.0143310546875
1.3390136718749999
1.5364013671874999
1.7080078125
1.8046875
1.8167724609375
1.8087158203125
1.6185791015625
1.7692382812499998
1.738623046875
1.714453125
1.5911865234375
0.030615234374999998
1.3043701171875
1.5154541015624998
1.9279541015625
2.1841552734375
2.4854736328125
3.034130859375
3.0357421875
2.14306640625
1.703173828125
1.4606689453125
1.3639892578125
1.37607421875
1.3446533203125
1.3994384765624999
1.3728515625
1.38896484375
1.5001464843749999
1.4816162109375
1.4896728515625
1.4864501953125
3.037353515625
2.260693359375
1.7426513671875
1.2858398437499998
1.3180664062499998
0.87333984375
0.02900390625
0.0281982421875
0.1998046875
0.7734375
1.33740234375
1.5887695312499999
1.6129394531249999
1.8602783203125
1.844970703125
1.8296630859374998
1.799853515625
1.7595703125
1.73056640625
1.7128417968749998
1.6411376953124999
0.02900390625
0.9917724609374999
1.5662109375
1.9247314453125
2.0262451171875
2.2679443359375
3.0325195312499997
3.0365478515624997
2.383154296875
1.64677734375
1.432470703125
1.2906738281249999
1.4469726562499998
1.393798828125
1.45341796875
1.4493896484375
1.426025390625
1.5243164062499999
1.4783935546875
1.4526123046875
1.429248046875
3.0349365234374996
2.85205078125
1.7781005859374999
1.522705078125
1.0852294921874999
0.8765624999999999
0.02900390625
0.02900390625
0.21269531249999998
0.7323486328125
1.1690185546875
1.4703369140625
1.5839355468749998
1.8586669921874999
1.9182861328124998
1.8167724609375
1.7781005859374999
1.69189453125
1.7168701171874998
1.6636962890625
1.6435546875
0.027392578124999997
1.0046630859374999
1.5645996093749999
1.7128417968749998
2.03671875
2.2631103515624997
2.9302001953124996
3.034130859375
2.384765625
1.8312744140625
1.480810546875
1.3341796874999998
1.4332763671875
1.3551269531249999
1.3905761718749998
1.416357421875
1.40185546875
1.3857421875
1.456640625
1.4912841796874998
1.458251953125
3.034130859375
2.9181152343749996
1.8981445312499998
1.542041015625
1.04736328125
0.8789794921874999
0.31904296875
0.030615234374999998
0.104736328125
0.5212646484375
1.1819091796874999
1.4638916015624999
1.458251953125
1.7370117187499998
1.93359375
1.8546386718749999
1.812744140625
1.7023681640625
1.7531249999999998
1.6991455078125
1.6451660156249999
0.02578125
0.24814453125
1.2769775390625
1.6765869140624998
2.1865722656249997
2.3597900390624997
2.8576904296874996
3.0365478515624997
2.7932373046874996
1.8844482421875
1.5251220703125
1.345458984375
1.3720458984375
1.2979248046874998
1.4074951171874999
1.405078125
1.4123291015625
1.4115234374999999
1.4574462890625
1.4461669921875
1.4195800781249999
2.1632080078125
3.0333251953125
1.9714599609374999
1.593603515625
1.18271484375
0.8483642578124999
0.37382812499999996
0.0281982421875
0.06767578125
0.4833984375
1.013525390625
1.3825195312499998
1.4735595703125
1.7893798828124998
1.7684326171875
1.9223144531249998
1.8393310546875
1.7499023437499999
1.7418457031249999
1.69189453125
1.6250244140624999
0.7218749999999999
0.207861328125
1.3140380859374998
1.5299560546875
2.102783203125
2.33642578125
2.7086425781249996
3.0365478515624997
2.840771484375
2.075390625
1.6201904296874998
1.303564453125
1.2947021484374999
1.3156494140625
1.48564453125
1.384130859375
1.3986328124999998
1.2834228515625
1.4759765624999999
1.4920898437499999
1.4953124999999998
1.9706542968749998
3.0365478515624997
2.183349609375
1.577490234375
1.2221923828124999
1.1190673828125
0.6292236328124999
0.027392578124999997
0.0281982421875
0.298095703125
1.0755615234375
1.393798828125
1.542041015625
1.69189453125
1.843359375
1.8473876953125
1.869140625
1.66611328125
1.740234375
1.7055908203124999
1.7055908203124999
1.11826171875
0.0281982421875
1.139208984375
1.5565429687499999
1.9972412109375
1.9859619140625
2.6401611328124996
3.0357421875
3.0365478515624997
2.064111328125
1.5992431640625
1.3341796874999998
1.2584472656249999
1.3220947265624998
1.36962890625
1.4107177734374998
1.43408203125
1.284228515625
1.47275390625
1.49853515625
1.50498046875
1.456640625
3.0349365234374996
2.1865722656249997
1.7015624999999999
1.393798828125
1.1674072265625
0.708984375
0.0281982421875
0.02900390625
0.262646484375
