2.441162109375
3.0365478515624997
3.034130859375
2.2840576171875
1.7660156249999999
1.3220947265624998
1.24716796875
1.3100097656249998
1.3470703124999999
1.405078125
1.4123291015625
1.316455078125
1.3921875
1.4187744140624998
1.45341796875
1.4751708984374998
3.037353515625
2.7183105468749997
1.944873046875
1.6298583984375
1.18916015625
0.8241943359374999
0.026586914062499998
0.0298095703125
0.0733154296875
0.4970947265625
1.1819091796874999
1.5364013671874999
1.5984375
1.9311767578124999
1.8989501953124999
1.8651123046875
1.93359375
1.893310546875
1.8280517578125
1.7490966796874998
1.6532226562499999
0.023364257812499997
0.3053466796875
1.5243164062499999
1.6491943359374999
2.1978515625
2.3630126953125
3.037353515625
3.0357421875
2.518505859375
1.7829345703125
1.432470703125
1.2834228515625
1.3124267578125
1.264892578125
1.380908203125
1.3623779296874998
1.3591552734374999
1.5484863281249999
1.445361328125
1.47275390625
1.4711425781249998
3.037353515625
2.843994140625
1.998046875
1.735400390625
1.12470703125
0.78310546875
0.027392578124999997
0.0281982421875
0.030615234374999998
0.468896484375
1.0610595703124999
1.4945068359375
1.5645996093749999
1.8038818359375
1.94970703125
1.91748046875
1.98193359375
1.6830322265625
1.7974365234374998
1.7426513671875
1.6604736328124998
0.0298095703125
0.1732177734375
1.1239013671875
1.6000488281249998
2.2365234375
2.5885986328125
2.8883056640625
3.034130859375
2.5813476562499997
1.9835449218749999
1.4703369140625
1.271337890625
1.2423339843749999
1.2721435546875
1.4155517578124999
1.3946044921874998
1.2818115234374998
1.546875
1.40830078125
1.4542236328125
1.4719482421874999
2.65546875
3.0365478515624997
2.1906005859374997
1.7096191406249999
1.3398193359375
0.8983154296875
0.0878173828125
0.0298095703125
0.033837890625
0.259423828125
0.936181640625
1.3946044921874998
1.638720703125
1.8095214843749998
1.8957275390625
1.8941162109374998
1.9553466796874999
1.69833984375
1.8473876953125
1.7893798828124998
1.7168701171874998
0.36979980468749996
0.02900390625
1.1408203125
1.5122314453124999
2.006103515625
2.6039062499999996
2.8222412109375
3.0357421875
3.0365478515624997
2.015771484375
1.5637939453124998
1.3067871093749999
1.2020507812499999
1.2254150390625
1.3019531249999998
1.4115234374999999
1.2963134765625
1.300341796875
1.45341796875
1.4332763671875
1.4638916015624999
1.4510009765624998
3.0349365234374996
2.2115478515625
1.8151611328125
1.3075927734375
0.9514892578124999
0.4197509765625
0.0298095703125
0.0281982421875
0.29970703125
0.8515869140625
1.3817138671875
1.625830078125
1.7652099609374998
1.9182861328124998
1.9464843749999998
1.91748046875
1.9867675781249998
1.9166748046875
1.7958251953125
1.7080078125
0.8934814453125
0.0314208984375
0.97001953125
1.513037109375
1.928759765625
2.083447265625
2.5193115234374996
3.0389648437499996
3.0381591796875
2.286474609375
1.5404296874999999
1.26328125
1.187548828125
1.2318603515625
1.281005859375
1.3583496093749998
1.3059814453124998
1.3309570312499999
1.5718505859374998
1.4397216796874999
1.4767822265625
1.5243164062499999
3.0357421875
2.5869873046875
1.828857421875
1.5460693359375
1.21494140625
0.539794921875
0.0314208984375
0.0314208984375
0.0539794921875
0.7516845703124999
1.21171875
1.5509033203125
1.7740722656249999
1.9698486328125
1.9859619140625
1.9754882812499999
2.0101318359375
1.8409423828125
1.8441650390625
1.75634765625
1.64677734375
0.0314208984375
0.8677001953125
1.477587890625
1.6395263671875
2.051220703125
2.53623046875
3.0357421875
3.0357421875
2.3211181640625
1.77890625
1.4139404296875
1.1641845703125
1.2777832031249998
1.2721435546875
1.3502929687499998
1.3817138671875
1.2898681640624998
1.340625
1.380908203125
1.445361328125
1.4622802734375
3.0325195312499997
2.7110595703125
1.9617919921875
1.6798095703125
1.239111328125
0.807275390625
0.0249755859375
0.0298095703125
0.037060546874999996
0.48662109374999996
1.15048828125
1.49853515625
1.5541259765625
1.8739746093749998
1.9666259765624998
2.0729736328125
2.0109375
1.8659179687499998
1.82080078125
1.73056640625
1.670947265625
0.026586914062499998
0.230419921875
1.1657958984374999
1.6685302734374998
2.289697265625
2.6224365234375
3.0381591796875
3.0357421875
2.6135742187499997
1.980322265625
1.4147460937499998
1.1625732421875
1.1778808593749999
1.2334716796875
1.33740234375
1.3583496093749998
1.2705322265624999
1.4558349609374999
1.4219970703125
1.456640625
1.4638916015624999
3.037353515625
3.0389648437499996
2.0133544921874997
1.6781982421875
1.132763671875
0.7017333984374999
0.0314208984375
0.027392578124999997
0.0298095703125
0.47856445312499996
1.061865234375
1.464697265625
1.590380859375
1.8989501953124999
2.0246337890625
2.0181884765625
2.0874755859375
1.8377197265624998
1.9658203125
1.869140625
1.7531249999999998
0.030615234374999998
0.104736328125
1.06025390625
1.635498046875
2.0536376953124997
2.6885009765624996
3.0357421875
3.037353515625
2.5475097656249996
1.8941162109374998
1.3551269531249999
1.0675048828125
1.0658935546875
1.0973144531249999
1.2076904296875
1.2834228515625
1.3237060546875
1.2238037109375
1.4526123046875
1.5025634765625
1.46953125
3.0357421875
3.0381591796875
2.2518310546875
1.7877685546875
1.21171875
0.7339599609374999
0.2908447265625
0.030615234374999998
0.030615234374999998
0.24492187499999998
1.0086914062499999
1.397021484375
1.609716796875
1.832080078125
2.0407470703125
2.0455810546874997
2.0310791015625
1.7217041015624999
1.8635009765625
1.767626953125
1.7595703125
0.09990234375
0.02900390625
0.9893554687499999
1.5879638671874998
2.0657226562499997
2.2872802734374997
3.0357421875
3.0349365234374996
3.037353515625
2.222021484375
1.45341796875
1.1464599609375
1.090869140625
1.219775390625
1.222998046875
1.287451171875
1.1931884765625
1.222998046875
1.4147460937499998
1.3768798828125
1.4606689453125
1.456640625
3.0365478515624997
2.2429687499999997
1.82080078125
1.50498046875
0.7774658203125
0.3391845703125
0.0314208984375
0.0322265625
0.2513671875
0.7951904296875
1.31162109375
1.66611328125
1.8062988281249999
1.9916015624999999
2.0496093749999997
2.0826416015625
2.0230224609375
1.815966796875
1.7821289062499999
1.714453125
1.6250244140624999
0.02900390625
0.9112060546874999
1.4284423828125
1.732177734375
2.212353515625
2.6361328124999996
3.0357421875
3.0357421875
2.3009765625
1.699951171875
1.2447509765625
1.0997314453125
1.1537109374999999
1.2052734375
1.3285400390625
1.3470703124999999
1.2576416015624998
1.4542236328125
1.37607421875
1.4364990234375
1.474365234375
3.0333251953125
2.5724853515625
1.9593749999999999
1.5396240234374998
1.2302490234374999
0.708984375
0.02900390625
0.02900390625
0.06606445312499999
0.6066650390625
1.30517578125
1.5960205078124998
1.61455078125
1.920703125
1.9666259765624998
1.9682373046875
2.0326904296875
1.84013671875
1.85947265625
1.7829345703125
1.6475830078125
0.0314208984375
0.42136230468749997
1.5017578125
1.6846435546874998
2.286474609375
2.6135742187499997
3.0349365234374996
3.037353515625
2.4790283203124996
1.6459716796875
1.3100097656249998
1.1537109374999999
1.1923828125
1.216552734375
1.3092041015625
1.2947021484374999
1.3382080078124998
1.3180664062499998
1.4445556640625
1.46630859375
1.4671142578124998
3.0389648437499996
2.65869140625
1.9352050781249999
1.7313720703125
1.190771484375
0.7581298828124999
0.02900390625
0.030615234374999998
0.0322265625
0.49790039062499997
1.0900634765625
1.6169677734374999
1.6765869140624998
1.9142578124999998
1.9754882812499999
1.9867675781249998
2.006103515625
1.9078125
1.8344970703124999
1.76279296875
1.6894775390624999
0.030615234374999998
0.34079589843749997
1.2334716796875
1.74345703125
2.31064453125
2.5845703125
3.0397705078125
3.0381591796875
2.5692626953124997
1.9279541015625
1.35673828125
1.1609619140625
1.174658203125
1.1964111328125
1.345458984375
1.3607666015625
1.21494140625
1.3494873046875
1.3978271484375
1.45341796875
1.4429443359374998
3.0405761718749997
3.0381591796875
2.1865722656249997
1.7055908203124999
1.1698242187499999
0.71220703125
0.0346435546875
0.02578125
0.0298095703125
0.343212890625
1.0658935546875
1.4501953125
1.683837890625
1.8989501953124999
1.9867675781249998
2.0085205078125
2.0334960937499997
1.7507080078125
1.7958251953125
1.7635986328125
1.6830322265625
0.030615234374999998
0.0298095703125
1.1617675781249999
1.625830078125
2.0600830078125
2.6659423828124997
3.0333251953125
3.034130859375
3.0317138671875
1.9311767578124999
1.45341796875
1.1786865234375
1.1794921875
1.164990234375
1.2608642578125
1.3180664062499998
1.2616699218749998
1.1464599609375
1.3712402343749999
1.4510009765624998
1.4606689453125
1.448583984375
3.037353515625
2.2357177734375
1.8248291015625
1.2930908203125
0.7613525390625
0.2376708984375
0.030615234374999998
0.0249755859375
0.348046875
0.894287109375
1.413134765625
1.6242187499999998
1.7313720703125
1.91748046875
1.9617919921875
1.9754882812499999
2.1906005859374997
1.915869140625
1.82080078125
1.7378173828124999
0.02900390625
0.02578125
1.045751953125
1.458251953125
2.0778076171874997
2.2880859375
2.760205078125
3.0357421875
2.8351318359374997
2.0979492187499997
1.432470703125
1.2125244140625
1.147265625
1.1794921875
1.2721435546875
1.3559326171875
1.3019531249999998
1.276171875
1.4622802734375
1.4203857421875
1.442138671875
1.448583984375
3.0357421875
2.44921875
1.8183837890624999
1.5138427734375
1.281005859375
0.391552734375
0.0298095703125
0.0298095703125
0.046728515624999994
0.8306396484374999
1.2374999999999998
1.5758789062499998
1.84013671875
2.006103515625
2.0302734375
2.0020751953125
2.0302734375
1.8441650390625
1.8465820312499999
1.7313720703125
1.638720703125
0.030615234374999998
0.9563232421875
1.4719482421874999
1.7474853515625
2.212353515625
2.666748046875
3.0325195312499997
3.0357421875
2.257470703125
1.690283203125
1.3470703124999999
1.12470703125
1.1819091796874999
1.2254150390625
1.3349853515624999
1.3599609375
1.252001953125
1.1802978515625
1.380908203125
1.42119140625
1.4711425781249998
3.0357421875
2.5007812499999997
1.9142578124999998
1.513037109375
1.2423339843749999
0.7613525390625
0.0314208984375
0.0298095703125
0.06767578125
0.597802734375
1.2938964843749998
1.6121337890624998
1.670947265625
2.0093261718749997
2.018994140625
2.0576660156249997
1.9924072265625
1.7877685546875
1.819189453125
1.7442626953125
1.6379150390625
0.0298095703125
0.47373046874999997
1.2383056640624999
1.6532226562499999
2.270361328125
2.5789306640625
3.0357421875
3.0333251953125
2.450830078125
1.6290527343749999
1.2705322265624999
1.1053710937499999
1.1287353515625
1.1617675781249999
1.3414306640625
1.368017578125
1.3043701171875
1.3204833984375
1.456640625
1.4638916015624999
1.4711425781249998
3.0397705078125
3.0228515624999996
1.9617919921875
1.7466796875
1.0497802734375
0.71865234375
0.033837890625
0.0281982421875
0.043505859375
0.555908203125
1.1255126953124999
1.4961181640624999
1.6250244140624999
1.9247314453125
2.0044921875
1.9811279296875
2.0697509765624997
2.0214111328124997
1.893310546875
1.8119384765625
1.7088134765624998
0.0298095703125
0.3794677734375
1.229443359375
1.7104248046875
2.289697265625
2.59423828125
3.0357421875
3.0365478515624997
2.45888671875
1.82724609375
1.3672119140624999
1.1029541015625
1.1367919921875
1.1537109374999999
1.3067871093749999
1.2769775390625
1.3059814453124998
1.1851318359375
1.4236083984374999
1.4413330078125
1.4783935546875
3.0365478515624997
3.0397705078125
2.1954345703125
1.7128417968749998
1.0981201171875
0.6550048828124999
0.214306640625
0.0217529296875
0.0298095703125
0.29245605468749997
1.087646484375
1.4848388671875
1.6725585937499998
1.9505126953124998
2.0947265625
2.0955322265625
2.14951171875
1.8707519531249999
1.851416015625
1.791796875
1.7120361328125
0.033837890625
0.0314208984375
1.0852294921874999
1.716064453125
2.1922119140625
2.578125
3.0325195312499997
3.0349365234374996
2.9801513671874997
1.8828369140624999
1.3728515625
1.0449462890624999
1.00224609375
1.1271240234375
1.235888671875
1.3019531249999998
1.2020507812499999
1.094091796875
1.332568359375
1.4276367187499999
1.4928955078125
1.5017578125
3.0381591796875
2.199462890625
1.7531249999999998
1.364794921875
0.6767578125
0.1619384765625
0.030615234374999998
0.02900390625
0.3029296875
0.8854248046875
1.40185546875
1.73056640625
1.8876708984375
2.067333984375
2.05927734375
2.1301757812499997
2.3074218749999997
1.9795166015624999
1.8256347656249998
1.73056640625
1.6395263671875
0.0281982421875
1.0320556640625
1.4469726562499998
2.101171875
2.4419677734375
2.9108642578125
3.0357421875
3.0236572265625
2.115673828125
1.493701171875
1.0401123046875
0.9063720703125
0.9837158203124999
1.1061767578125
1.2479736328125
1.2342773437499999
1.284228515625
1.4598632812499999
1.4219970703125
1.4630859374999998
1.43408203125
3.0365478515624997
2.3960449218749997
1.75634765625
1.3954101562499999
1.18271484375
0.5260986328125
0.030615234374999998
0.0298095703125
0.0910400390625
0.878173828125
1.3422363281249998
1.7007568359374998
1.8506103515624999
2.0745849609375
2.08828125
2.031884765625
2.1487060546875
1.9053955078125
1.8739746093749998
1.7257324218749999
1.606494140625
0.027392578124999997
0.6413085937499999
1.490478515625
1.8304687499999999
2.3009765625
2.792431640625
3.0325195312499997
3.0365478515624997
2.0818359374999997
1.4107177734374998
1.01513671875
0.849169921875
0.9434326171874999
1.052197265625
1.1778808593749999
1.20849609375
1.281005859375
1.1819091796874999
1.4437499999999999
1.4928955078125
1.4920898437499999
3.0365478515624997
2.5072265624999996
1.8586669921874999
1.683837890625
1.1931884765625
0.591357421875
0.030615234374999998
0.023364257812499997
0.049145507812499996
0.6187499999999999
1.200439453125
1.76279296875
1.8659179687499998
2.2590820312499997
2.1333984375
2.0955322265625
2.1205078125
2.1728759765625
1.8788085937499999
1.7772949218749998
1.71123046875
0.0298095703125
0.49790039062499997
1.3083984375
1.8240234375
2.425048828125
2.8037109375
3.0333251953125
3.0381591796875
2.4548583984375
1.7007568359374998
1.10859375
0.8306396484374999
0.9772705078124999
0.9410156249999999
1.2334716796875
1.2995361328125
1.2310546875
1.2052734375
1.4469726562499998
1.4630859374999998
1.496923828125
3.0365478515624997
3.0357421875
2.086669921875
1.662890625
0.88623046875
0.53173828125
0.0298095703125
0.030615234374999998
0.0298095703125
0.33515625
1.1698242187499999
1.67900390625
1.8506103515624999
2.1454833984375
2.1664306640624997
2.1849609375
2.160791015625
2.1342041015624997
1.8900878906249998
1.819189453125
1.67900390625
0.02900390625
0.02900390625
1.2439453125
1.8578613281249998
2.431494140625
2.848828125
3.0365478515624997
3.0333251953125
2.7722900390625
1.6572509765624999
1.1303466796875
0.849169921875
0.8830078124999999
0.9490722656249999
1.1480712890625
1.303564453125
1.2777832031249998
1.3261230468749998
1.3607666015625
1.4791992187499998
1.5033691406249998
1.5944091796875
3.0357421875
2.1390380859375
1.6483886718749998
0.958740234375
0.47050781249999996
0.030615234374999998
0.033032226562499996
0.0298095703125
0.38349609375
1.0417236328125
1.590380859375
1.8820312499999998
2.1100341796874997
2.2349121093749997
2.1760986328125
2.2349121093749997
2.3694580078125
1.9118408203125
1.8111328125
1.714453125
1.4759765624999999
0.0298095703125
1.1931884765625
1.5919921874999998
2.3154785156249997
2.7577880859375
3.0357421875
3.0349365234374996
2.666748046875
1.893310546875
1.2536132812499998
0.7621582031249999
0.7234863281249999
0.8483642578124999
1.0771728515624999
1.187548828125
1.2383056640624999
1.094091796875
1.3583496093749998
1.4953124999999998
1.5194824218749998
1.525927734375
3.0333251953125
2.3017822265625
1.687060546875
1.2463623046874999
0.9796874999999999
0.0298095703125
0.030615234374999998
0.030615234374999998
0.15629882812499998
0.9531005859374999
1.477587890625
1.832080078125
2.0415527343749997
2.1865722656249997
2.183349609375
2.1245361328125
2.3920166015624997
1.9996582031249999
1.8393310546875
1.7007568359374998
1.5654052734375
0.024169921875
1.1859374999999999
1.5364013671874999
2.0375244140624997
2.2695556640625
3.0349365234374996
3.0381591796875
3.0333251953125
1.9730712890625
1.2858398437499998
0.8958984375
0.752490234375
0.94423828125
1.042529296875
1.2374999999999998
1.3237060546875
1.2076904296875
1.1786865234375
1.3784912109374998
1.4510009765624998
1.4703369140625
3.0317138671875
2.3356201171874997
1.7772949218749998
1.5927978515624999
1.135986328125
0.46970214843749997
0.030615234374999998
0.030615234374999998
0.1345458984375
0.7234863281249999
1.2930908203125
1.8385253906249999
1.8409423828125
2.2308837890624997
2.1567626953125
2.230078125
2.096337890625
1.9110351562499999
1.8385253906249999
1.770849609375
1.6508056640625
0.0298095703125
0.700927734375
1.5984375
2.022216796875
2.4468017578125
2.7666503906249997
3.0349365234374996
3.0381591796875
2.2598876953125
1.4864501953125
0.926513671875
0.8258056640625
0.942626953125
1.0062744140625
1.16337890625
1.3043701171875
1.345458984375
1.21171875
1.4542236328125
1.4896728515625
1.509814453125
3.0365478515624997
3.0349365234374996
1.77890625
1.6201904296874998
0.8507812499999999
0.5148193359375
0.0314208984375
0.02900390625
0.030615234374999998
0.816943359375
1.3768798828125
1.8409423828125
1.9625976562499998
2.3066162109375
2.2026855468749997
2.1632080078125
2.1301757812499997
2.204296875
1.9182861328124998
1.7490966796874998
1.6201904296874998
0.0314208984375
0.6324462890625
1.4381103515625
1.9078125
2.4451904296875
2.6844726562499996
3.0397705078125
3.0365478515624997
2.2268554687499997
1.4308593749999998
0.9659912109375
0.7629638671875
0.9216796875
0.8660888671875
1.213330078125
1.3929931640625
1.345458984375
1.5992431640625
1.4920898437499999
1.47275390625
1.4953124999999998
3.0381591796875
3.0309082031249996
2.0310791015625
1.5750732421875
0.8338623046875
0.459228515625
0.02900390625
0.02900390625
0.02900390625
0.4809814453125
1.1617675781249999
1.7861572265624999
1.8820312499999998
2.1841552734375
2.2115478515625
2.14951171875
2.1519287109375
2.1680419921875
1.8892822265625
1.796630859375
1.6846435546874998
0.0298095703125
0.0298095703125
1.3833251953124999
2.0794189453125
2.5499267578125
2.8979736328124996
3.0381591796875
3.0365478515624997
2.5982666015625
1.7926025390625
1.052197265625
0.7557128906249999
0.7500732421874999
0.9208740234374999
1.22783203125
1.3817138671875
1.3833251953124999
1.4091064453125
1.3784912109374998
1.5404296874999999
1.5218994140625
1.7595703125
3.0365478515624997
2.135009765625
1.6306640625
1.2439453125
0.530126953125
0.027392578124999997
0.02900390625
0.0314208984375
0.3585205078125
1.0191650390625
1.47275390625
1.8022705078124999
2.0044921875
2.1301757812499997
2.1100341796874997
2.141455078125
2.147900390625
1.9714599609374999
1.7909912109375
1.6773925781249999
1.442138671875
0.02900390625
1.11181640625
1.4945068359375
2.0625
2.7328124999999996
3.0301025390625
3.0381591796875
2.79404296875
1.9408447265625
1.303564453125
0.9249023437499999
0.8838134765625
0.9724365234375
1.069921875
1.2858398437499998
1.2737548828124998
1.3398193359375
1.297119140625
1.26328125
1.3792968749999999
1.5186767578125
3.0333251953125
2.1978515625
1.6765869140624998
1.2101074218749999
1.068310546875
0.5422119140625
0.030615234374999998
0.0298095703125
0.3311279296875
1.3261230468749998
1.7490966796874998
1.9988525390624998
2.0488037109375
2.1728759765625
2.0359130859375
1.9182861328124998
2.196240234375
1.8554443359375
1.7007568359374998
1.6604736328124998
1.574267578125
0.02900390625
1.0062744140625
1.786962890625
2.254248046875
2.3315917968749997
2.9543701171874996
3.0357421875
3.0349365234374996
1.9327880859375
1.0272216796875
0.7879394531249999
0.8282226562499999
1.095703125
1.1794921875
1.3446533203125
1.6403320312499998
1.76279296875
1.915869140625
1.9400390625
1.8570556640625
1.7748779296875
3.0365478515624997
2.7094482421875
2.3388427734375
2.1873779296875
1.6475830078125
0.8435302734375
0.030615234374999998
0.02900390625
0.0314208984375
0.24814453125
0.5389892578125
0.928125
1.1142333984375
1.5565429687499999
1.654833984375
1.90458984375
1.9859619140625
2.0407470703125
1.931982421875
1.8780029296874998
1.770849609375
0.02900390625
0.2578125
0.910400390625
1.219775390625
1.7974365234374998
2.4258544921875
3.0349365234374996
3.034130859375
2.8939453124999996
2.3799316406249997
1.9585693359374998
1.6072998046875
1.5033691406249998
1.2785888671874999
1.3744628906249998
1.3285400390625
1.2028564453125
1.0505859375
1.2334716796875
1.2697265624999998
1.3043701171875
3.0357421875
3.0365478515624997
2.4274658203125
2.23330078125
1.4477783203124999
1.03125
0.0298095703125
0.0314208984375
0.02900390625
0.033032226562499996
0.543017578125
0.8419189453125
1.0094970703125
1.6105224609375
1.6717529296875
1.835302734375
2.0496093749999997
2.2051025390625
1.9827392578124998
1.928759765625
1.7877685546875
0.033032226562499996
0.0314208984375
0.765380859375
1.0658935546875
1.7039794921875
2.31708984375
3.0357421875
3.0365478515624997
3.0357421875
2.4169921875
2.0173828124999997
1.7047851562499998
1.542041015625
1.2592529296875
1.3728515625
1.3664062499999998
1.2334716796875
1.5073974609374998
1.2584472656249999
1.3994384765624999
1.4091064453125
2.2679443359375
3.0381591796875
2.537841796875
2.230078125
1.832080078125
0.984521484375
0.0749267578125
0.033032226562499996
0.0314208984375
0.0298095703125
0.43022460937499996
0.668701171875
1.03125
1.3825195312499998
1.6653076171874999
1.8465820312499999
2.0568603515625
1.93359375
2.054443359375
2.0101318359375
1.9062011718749998
0.9410156249999999
0.0298095703125
0.646142578125
0.8838134765625
1.7740722656249999
2.4282714843749997
3.0389648437499996
3.037353515625
3.0365478515624997
2.6885009765624996
2.2349121093749997
1.77568359375
1.5887695312499999
1.542041015625
1.456640625
1.4010498046875
1.2334716796875
1.3261230468749998
1.1802978515625
1.30517578125
1.3591552734374999
1.7829345703125
3.0381591796875
2.6619140624999997
2.281640625
1.9078125
1.429248046875
0.214306640625
0.0298095703125
0.0298095703125
0.02900390625
0.33273925781249997
0.62841796875
0.913623046875
1.31162109375
1.670947265625
1.8143554687499999
2.031884765625
2.0987548828125
2.128564453125
2.006103515625
1.9110351562499999
1.587158203125
0.0298095703125
0.6114990234375
0.7863281249999999
1.3986328124999998
1.7595703125
2.940673828125
3.0389648437499996
3.0349365234374996
2.721533203125
2.3009765625
1.95615234375
1.5654052734375
1.493701171875
1.3913818359374999
1.426025390625
1.3559326171875
1.187548828125
1.3382080078124998
1.3156494140625
1.332568359375
1.33740234375
3.0365478515624997
2.7328124999999996
2.4435791015625
2.2566650390625
1.5758789062499998
0.7307373046875
0.0298095703125
0.02900390625
0.02900390625
0.20302734374999998
0.6187499999999999
0.910400390625
1.1794921875
1.5412353515625
1.8498046874999998
2.1076171875
2.2212158203125
2.2808349609375
2.12373046875
2.0939208984374997
1.9779052734375
0.0322265625
0.28681640625
0.8644775390624999
1.3124267578125
1.740234375
2.4886962890624997
3.0365478515624997
3.0357421875
3.0301025390625
2.4822509765625
1.9859619140625
1.6532226562499999
1.5460693359375
1.3559326171875
1.3510986328124999
1.16337890625
1.1375976562499999
1.2366943359375
1.2020507812499999
1.2568359375
1.300341796875
3.0317138671875
3.0333251953125
2.5265625
2.405712890625
1.7982421874999999
0.855615234375
0.02900390625
0.0322265625
0.0298095703125
0.13857421875
0.468896484375
0.749267578125
1.04736328125
1.50498046875
1.732177734375
1.8570556640625
2.1358154296875
2.1849609375
2.1140624999999997
2.0214111328124997
1.8900878906249998
0.030615234374999998
0.1345458984375
0.78955078125
0.9933837890624999
1.8747802734374999
2.3420654296875
3.0349365234374996
3.037353515625
3.0156005859375
2.5201171875
2.128564453125
1.7829345703125
1.6105224609375
1.4381103515625
1.4469726562499998
1.42119140625
1.203662109375
1.477587890625
1.2020507812499999
1.2673095703125
1.2914794921875
3.0349365234374996
3.034130859375
2.5813476562499997
2.3646240234375
1.6508056640625
1.139208984375
0.02900390625
0.033837890625
0.0298095703125
0.02900390625
0.2956787109375
0.6977050781249999
0.8201660156249999
1.2995361328125
1.6161621093749998
1.799853515625
2.093115234375
1.8409423828125
2.126953125
2.0625
1.9795166015624999
0.033837890625
0.0314208984375
0.439892578125
1.00546875
1.7853515624999998
2.4468017578125
3.037353515625
3.0333251953125
3.034130859375
2.72958984375
2.215576171875
1.869140625
1.6443603515624998
1.4816162109375
1.4284423828125
1.3414306640625
1.1456542968749999
1.27294921875
1.0965087890625
1.2399169921875
1.2826171874999999
2.5652343749999997
3.0365478515624997
2.7263671874999997
2.3936279296875
1.9795166015624999
1.2737548828124998
0.0298095703125
0.0298095703125
0.02900390625
0.0298095703125
0.26022949218749997
0.60263671875
0.8886474609374999
1.3188720703124999
1.5968261718749999
1.7845458984375
2.08828125
1.9529296875
2.1954345703125
2.1076171875
2.0020751953125
0.5293212890625
0.030615234374999998
0.5091796875
0.7984130859374999
1.393798828125
2.33642578125
3.037353515625
3.037353515625
3.0357421875
2.7521484375
2.2953369140624997
1.9182861328124998
1.5992431640625
1.4703369140625
1.3140380859374998
1.3309570312499999
1.2189697265625
1.1706298828125
1.4316650390624999
1.3237060546875
1.3237060546875
1.345458984375
3.0381591796875
2.8133789062499996
2.5386474609375
2.060888671875
1.509814453125
0.5341552734375
0.0298095703125
0.0298095703125
0.0298095703125
0.233642578125
0.623583984375
0.9007324218749999
1.1150390625
1.4437499999999999
1.751513671875
1.893310546875
2.1221191406249997
2.225244140625
2.0947265625
2.0109375
1.1158447265625
0.026586914062499998
0.3440185546875
0.8048583984375
1.368017578125
1.7152587890625
2.5080322265625
3.0317138671875
3.037353515625
2.9028076171875
2.22041015625
1.8385253906249999
1.5154541015624998
1.4155517578124999
1.26328125
1.2802001953125
1.2254150390625
1.0376953125
1.2914794921875
1.152099609375
1.2616699218749998
1.31162109375
3.0357421875
3.0365478515624997
2.4774169921875
2.296142578125
1.796630859375
0.6114990234375
0.026586914062499998
0.0298095703125
0.0314208984375
0.14018554687499998
0.4874267578125
0.8507812499999999
1.1819091796874999
1.5839355468749998
1.7990478515625
2.118896484375
2.2115478515625
2.044775390625
2.1632080078125
2.0568603515625
1.9263427734374998
0.030615234374999998
0.17885742187499998
0.8612548828125
0.9708251953125
1.957763671875
2.51044921875
3.0365478515624997
3.0325195312499997
3.0317138671875
2.441162109375
2.0254394531249997
1.5927978515624999
1.4469726562499998
1.3220947265624998
1.2455566406249998
1.1923828125
1.0320556640625
1.0691162109374999
1.095703125
1.2052734375
1.2455566406249998
3.0389648437499996
3.037353515625
2.52978515625
2.4000732421874997
1.767626953125
1.0707275390625
0.027392578124999997
0.0298095703125
0.02900390625
0.0281982421875
0.3552978515625
0.8040527343749999
0.8846191406249999
1.3688232421875
1.7595703125
1.9271484374999999
2.1785156249999997
2.0745849609375
2.209130859375
2.101171875
1.972265625
0.02900390625
0.02900390625
0.55107421875
0.97646484375
1.9190917968749999
2.4403564453124997
3.037353515625
3.034130859375
3.037353515625
2.5797363281249996
1.9545410156249998
1.56298828125
1.393798828125
1.1303466796875
1.15693359375
1.1537109374999999
1.0763671875
1.3398193359375
1.168212890625
1.1867431640625
1.2665039062499999
3.034130859375
3.037353515625
2.6176025390624997
2.41376953125
1.799853515625
1.071533203125
0.0298095703125
0.0314208984375
0.027392578124999997
0.0281982421875
0.3552978515625
0.53818359375
0.5679931640625
0.7871337890625
1.0707275390625
1.3156494140625
1.7007568359374998
1.5412353515625
1.9569580078125
2.0101318359375
1.998046875
0.030615234374999998
0.0298095703125
0.5196533203125
0.9676025390624999
1.5106201171875
2.47822265625
3.0365478515624997
3.0365478515624997
3.0357421875
2.7247558593749996
2.2969482421875
1.9053955078125
1.6089111328124999
1.4413330078125
1.364794921875
1.3527099609375
1.200439453125
1.155322265625
1.3768798828125
1.34384765625
1.364794921875
1.3929931640625
3.0365478515624997
2.792431640625
2.5434814453124996
2.03994140625
1.3623779296874998
0.515625
0.026586914062499998
0.0298095703125
0.02900390625
0.1232666015625
0.5196533203125
0.8258056640625
1.074755859375
1.4389160156249998
1.8022705078124999
2.075390625
2.20751953125
2.2550537109374997
2.2163818359375
2.13662109375
0.6920654296875
0.02900390625
0.2118896484375
0.5526855468749999
1.1158447265625
1.533984375
2.4806396484374997
3.0357421875
3.0357421875
3.0349365234374996
2.6031005859375
2.2429687499999997
1.9505126953124998
1.8022705078124999
1.5750732421875
1.4872558593749998
1.3905761718749998
1.1271240234375
1.2930908203125
1.0997314453125
1.164990234375
1.1786865234375
3.0333251953125
3.0325195312499997
2.6014892578124997
2.31708984375
1.9505126953124998
0.48178710937499997
0.0314208984375
0.0281982421875
0.033032226562499996
0.10231933593749999
0.33676757812499997
0.6614501953124999
0.9434326171874999
1.3599609375
1.6822265625
1.85947265625
2.2171875
2.0810302734375
2.2776123046875
2.1841552734375
2.0568603515625
0.02900390625
0.198193359375
0.662255859375
0.87333984375
1.7499023437499999
2.6055175781249997
3.0357421875
3.0325195312499997
3.0357421875
2.5716796874999996
2.1889892578125
1.767626953125
1.625830078125
1.50498046875
1.426025390625
1.2536132812499998
1.1617675781249999
1.0272216796875
1.2705322265624999
1.300341796875
1.329345703125
3.0325195312499997
3.0357421875
2.7013916015625
2.6224365234375
1.9666259765624998
1.2012451171875
0.0281982421875
0.0298095703125
0.030615234374999998
0.0298095703125
0.269091796875
0.6356689453125
0.7621582031249999
1.24072265625
1.6854492187499999
1.8949218749999999
2.199462890625
2.180126953125
2.3694580078125
2.31708984375
2.1664306640624997
0.030615234374999998
0.02578125
0.3875244140625
0.768603515625
1.6540283203125
2.254248046875
3.0381591796875
3.0365478515624997
3.034130859375
2.8302978515625
2.3235351562499997
1.977099609375
1.84013671875
1.674169921875
1.5194824218749998
1.4461669921875
1.171435546875
1.13115234375
1.2157470703125
1.1770751953125
1.26328125
3.0357421875
3.037353515625
2.72958984375
2.6764160156249996
1.9827392578124998
1.3301513671874998
0.0322265625
0.0322265625
0.02900390625
0.030615234374999998
0.18852539062499998
0.41572265625
0.554296875
1.1158447265625
1.413134765625
1.7176757812499999
2.1076171875
2.0504150390625
2.1970458984375
2.2163818359375
2.14306640625
0.0281982421875
0.0314208984375
0.22316894531249998
0.6646728515625
1.147265625
2.1197021484375
3.0365478515624997
3.034130859375
3.034130859375
3.01962890625
2.7408691406249996
2.3178955078125
2.109228515625
1.8763916015625
1.748291015625
1.53720703125
1.2479736328125
0.8991210937499999
1.1786865234375
1.1367919921875
1.1617675781249999
3.037353515625
3.037353515625
2.989013671875
2.7666503906249997
2.2308837890624997
1.458251953125
0.49870605468749996
0.02900390625
0.030615234374999998
0.030615234374999998
0.02900390625
0.207861328125
0.394775390625
0.7065673828125
1.1456542968749999
1.461474609375
1.8538330078124998
1.735400390625
2.096337890625
2.1760986328125
2.1309814453125
0.033032226562499996
0.0298095703125
0.19094238281249998
0.60263671875
1.1512939453125
1.851416015625
3.0357421875
3.037353515625
3.0349365234374996
3.0357421875
2.4838623046875
2.15595703125
1.8256347656249998
1.561376953125
1.4542236328125
1.37607421875
1.1456542968749999
0.942626953125
1.1045654296875
1.2028564453125
1.2938964843749998
1.300341796875
3.037353515625
2.843994140625
2.5168945312499997
2.164013671875
1.8216064453124998
0.2940673828125
0.0298095703125
0.0314208984375
0.0298095703125
0.32065429687499997
0.6590332031249999
0.9732421874999999
1.3220947265624998
1.6733642578124999
1.9529296875
2.1325927734375
2.4604980468749997
2.334814453125
2.31708984375
2.193017578125
2.0600830078125
0.0281982421875
0.372216796875
0.671923828125
1.1222900390625
2.1132568359375
2.9277832031249997
3.0357421875
3.0365478515624997
2.8810546875
2.3315917968749997
1.9062011718749998
1.4767822265625
1.3414306640625
1.2076904296875
1.16337890625
1.1593505859375
1.0658935546875
1.2576416015624998
1.2503906249999999
1.3430419921874999
1.4381103515625
3.0389648437499996
3.0357421875
2.624853515625
2.3195068359374997
1.998046875
1.03125
0.03544921875
0.0298095703125
0.02900390625
0.02900390625
0.5454345703125
0.8999267578125
1.0376953125
1.6427490234375
1.9553466796874999
2.23330078125
2.3501220703125
2.2776123046875
2.4065185546875
2.3654296875
2.16884765625
0.030615234374999998
0.0314208984375
0.5728271484374999
0.8677001953125
1.6798095703125
2.4435791015625
3.037353515625
3.037353515625
3.037353515625
2.6208251953125
2.125341796875
1.7168701171874998
1.3857421875
1.2536132812499998
1.152099609375
1.0634765625
0.9007324218749999
0.58974609375
0.9482666015625
1.07958984375
1.1996337890625
3.0357421875
3.037353515625
2.8190185546874997
2.779541015625
1.7297607421874999
0.903955078125
0.0281982421875
0.02900390625
0.0298095703125
0.02900390625
0.4189453125
0.8322509765624999
1.1126220703125
1.5960205078124998
1.9110351562499999
2.270361328125
2.550732421875
2.8899169921874996
2.615185546875
2.5031982421874996
2.334814453125
0.02900390625
0.0314208984375
0.23283691406249998
0.7371826171875
1.6862548828125
2.33642578125
3.0365478515624997
3.0365478515624997
3.037353515625
2.76826171875
2.131787109375
1.4276367187499999
1.139208984375
0.7887451171875
0.6211669921874999
0.4552001953125
0.427001953125
0.2989013671875
0.7057617187499999
0.816943359375
1.0634765625
3.0333251953125
3.0365478515624997
3.0365478515624997
3.0333251953125
3.0389648437499996
3.0317138671875
3.0365478515624997
0.6751464843749999
0.0298095703125
0.026586914062499998
0.030615234374999998
0.0378662109375
0.0298095703125
0.02900390625
0.030615234374999998
0.0281982421875
0.0281982421875
0.0475341796875
0.136962890625
0.2537841796875
0.2827880859375
0.0298095703125
0.02900390625
0.0298095703125
0.026586914062499998
0.0298095703125
0.0281982421875
0.0314208984375
0.35126953125
2.69736328125
3.0357421875
3.0357421875
3.0365478515624997
3.0349365234374996
3.0365478515624997
3.0349365234374996
3.0349365234374996
3.0357421875
2.760205078125
3.0027099609374996
2.995458984375
2.9624267578124996
2.9011962890625
3.0365478515624997
3.0333251953125
3.034130859375
3.034130859375
3.0357421875
3.0357421875
1.2447509765625
0.0322265625
0.030615234374999998
0.030615234374999998
0.0314208984375
0.033032226562499996
0.027392578124999997
0.033032226562499996
0.0298095703125
0.0281982421875
0.51884765625
0.13615722656249998
0.1297119140625
0.2102783203125
0.22880859374999998
0.0298095703125
0.02900390625
0.0298095703125
0.02900390625
0.030615234374999998
0.0314208984375
0.0298095703125
1.8651123046875
3.0365478515624997
3.037353515625
3.0357421875
3.037353515625
3.0389648437499996
3.0357421875
3.034130859375
3.0357421875
3.0349365234374996
2.9527587890625
3.0099609375
3.034130859375
2.956787109375
3.0325195312499997
3.037353515625
3.0357421875
3.0357421875
3.037353515625
3.0381591796875
1.2656982421874998
0.02900390625
0.030615234374999998
0.0314208984375
0.030615234374999998
0.0298095703125
0.0298095703125
0.0322265625
0.030615234374999998
0.0346435546875
0.11440429687499999
0.3585205078125
0.4390869140625
0.6211669921874999
0.6896484374999999
0.0322265625
0.033837890625
0.0314208984375
0.02900390625
0.02900390625
0.027392578124999997
0.030615234374999998
3.0333251953125
3.0381591796875
3.0317138671875
3.0357421875
3.034130859375
3.0349365234374996
3.0365478515624997
3.0365478515624997
3.0349365234374996
3.0357421875
3.0357421875
3.0357421875
3.0405761718749997
3.0236572265625
3.0365478515624997
3.0365478515624997
3.037353515625
3.0349365234374996
3.0365478515624997
3.0317138671875
1.4711425781249998
0.1007080078125
0.030615234374999998
0.030615234374999998
0.0298095703125
0.030615234374999998
0.0314208984375
0.0322265625
0.0298095703125
0.0314208984375
0.0314208984375
0.249755859375
0.18449707031249998
0.23928222656249998
0.2263916015625
0.030615234374999998
0.0298095703125
0.0314208984375
0.027392578124999997
0.030615234374999998
0.030615234374999998
0.02578125
2.101171875
3.037353515625
3.0349365234374996
3.0357421875
3.034130859375
3.0365478515624997
3.0389648437499996
3.0357421875
3.0365478515624997
3.037353515625
3.0365478515624997
3.0357421875
3.0389648437499996
3.034130859375
3.0357421875
3.037353515625
3.0357421875
3.0349365234374996
3.0349365234374996
3.037353515625
2.502392578125
0.6993164062499999
0.0322265625
0.027392578124999997
0.02900390625
0.030615234374999998
0.030615234374999998
1.1303466796875
3.037353515625
3.0389648437499996
3.0365478515624997
2.8447998046875
2.79404296875
2.2856689453125
1.8739746093749998
0.6759521484375
0.0314208984375
0.16274414062499998
0.42136230468749997
1.329345703125
2.1309814453125
2.9511474609375
3.0357421875
3.0365478515624997
2.650634765625
1.9118408203125
0.9434326171874999
0.36979980468749996
0.1264892578125
0.0322265625
0.11037597656249999
0.0475341796875
0.1812744140625
0.388330078125
0.7541015624999999
0.8741455078125
1.4864501953125
3.037353515625
3.0365478515624997
2.6739990234374997
2.1342041015624997
1.4630859374999998
0.37302246093749997
0.02900390625
0.0314208984375
0.02578125
0.17482910156249998
0.6340576171875
1.055419921875
1.3237060546875
1.896533203125
2.1704589843749997
2.38154296875
2.7690673828124996
2.7666503906249997
2.5555664062499996
2.42666015625
1.8820312499999998
0.0322265625
0.02900390625
0.4568115234375
1.123095703125
1.6056884765625
3.0349365234374996
3.0357421875
3.0349365234374996
3.037353515625
2.3267578125
1.8876708984375
1.4518066406249999
1.173046875
0.9958007812499999
0.9966064453125
0.8145263671874999
0.8129150390625
1.05380859375
0.9804931640625
1.1593505859375
1.2439453125
3.0365478515624997
3.0357421875
2.7722900390625
2.4903076171875
1.9110351562499999
0.6840087890625
0.030615234374999998
0.0314208984375
0.038671874999999994
0.072509765625
0.420556640625
0.758935546875
1.148876953125
1.609716796875
1.9062011718749998
2.2244384765625
2.5072265624999996
2.4435791015625
2.47822265625
2.373486328125
2.183349609375
0.0298095703125
0.02900390625
0.6590332031249999
0.704150390625
1.5412353515625
2.4830566406249996
3.0365478515624997
3.0357421875
3.0365478515624997
2.5845703125
2.0979492187499997
1.5726562499999999
1.456640625
1.20849609375
1.1255126953124999
1.029638671875
0.8104980468749999
0.9812988281249999
0.9152343749999999
1.052197265625
1.094091796875
3.0357421875
3.0421875
2.8069335937499997
2.5974609374999997
1.9247314453125
1.2109130859375
0.0314208984375
0.0314208984375
0.0314208984375
0.0281982421875
0.34965820312499996
0.7097900390624999
0.8467529296874999
1.3962158203125
1.8417480468749998
2.204296875
2.4041015624999997
2.4814453125
2.470166015625
2.3485107421875
2.1785156249999997
0.030615234374999998
0.030615234374999998
0.20866699218749998
0.7218749999999999
1.67578125
2.3033935546874997
3.034130859375
3.0349365234374996
3.0357421875
2.6917236328125
2.24619140625
1.8143554687499999
1.5678222656249998
1.24716796875
1.239111328125
1.1480712890625
0.913623046875
1.2262207031249999
0.9788818359375
1.029638671875
1.1029541015625
3.0333251953125
3.0365478515624997
2.8367431640625
2.705419921875
2.1978515625
1.27939453125
0.02900390625
0.0314208984375
0.0281982421875
0.030615234374999998
0.2578125
0.49870605468749996
0.7629638671875
1.2310546875
1.59521484375
1.9601806640625
2.2760009765625
2.0407470703125
2.4419677734375
2.434716796875
2.3203125
0.0322265625
0.0298095703125
0.2255859375
0.62197265625
1.60166015625
2.3396484374999997
3.037353515625
3.0365478515624997
3.037353515625
2.8528564453125
2.3791259765625
1.8457763671874998
1.5621826171875
1.3269287109374999
1.198828125
1.0248046874999999
0.9434326171874999
0.903955078125
0.9732421874999999
1.095703125
1.1408203125
2.6546630859375
3.0405761718749997
3.0349365234374996
2.666748046875
2.24619140625
1.46630859375
0.5325439453124999
0.026586914062499998
0.0281982421875
0.02578125
0.20463867187499998
0.45358886718749997
0.7275146484374999
0.994189453125
1.6089111328124999
1.8651123046875
2.07216796875
2.1382324218749997
2.5152832031249996
2.44599609375
2.3227294921875
0.6501708984375
0.030615234374999998
0.07734374999999999
0.5365722656249999
1.174658203125
1.67900390625
3.037353515625
3.037353515625
3.0325195312499997
2.99384765625
2.49755859375
2.054443359375
1.7337890624999999
1.4928955078125
1.3559326171875
1.2640869140625
0.9394042968749999
0.8580322265625
1.0932861328124999
0.862060546875
0.9917724609374999
1.0675048828125
3.0333251953125
3.0389648437499996
2.769873046875
2.4999755859375
1.5863525390625
0.5776611328125
0.0314208984375
0.030615234374999998
0.0298095703125
0.0314208984375
0.327099609375
0.7017333984374999
1.013525390625
1.4413330078125
1.7990478515625
2.1857666015625
2.325146484375
2.164013671875
2.3823486328125
2.34931640625
2.2212158203125
0.0298095703125
0.030615234374999998
0.53173828125
0.7275146484374999
1.5645996093749999
2.5394531249999996
3.0357421875
3.0357421875
3.0365478515624997
2.7175048828125
2.176904296875
1.867529296875
1.6612792968749999
1.4671142578124998
1.26005859375
1.1770751953125
0.9756591796874999
1.158544921875
0.9249023437499999
1.0207763671874999
1.0828125
3.0357421875
3.0389648437499996
2.8037109375
2.663525390625
2.2171875
1.2987304687499999
0.0298095703125
0.0314208984375
0.02900390625
0.0298095703125
0.327099609375
0.630029296875
0.7291259765625
1.34384765625
1.7233154296875
1.996435546875
2.280029296875
2.263916015625
2.50400390625
2.4363281249999997
2.254248046875
0.0298095703125
0.0378662109375
0.5607421874999999
0.6243896484375
1.585546875
2.144677734375
3.0365478515624997
3.0357421875
3.0309082031249996
2.7158935546875
2.3203125
1.94970703125
1.6959228515625
1.448583984375
1.287451171875
1.06669921875
0.9869384765625
1.0449462890624999
1.1013427734374999
1.095703125
1.1400146484375
3.034130859375
3.0365478515624997
2.8133789062499996
2.7626220703124997
2.0455810546874997
1.2745605468749999
0.0298095703125
0.027392578124999997
0.02900390625
0.033032226562499996
0.217529296875
0.46245117187499996
0.68642578125
1.184326171875
1.4469726562499998
1.8465820312499999
2.1696533203125
2.1454833984375
2.3315917968749997
2.3646240234375
2.309033203125
0.030615234374999998
0.0298095703125
0.2634521484375
0.6670898437499999
1.6129394531249999
2.1954345703125
3.0349365234374996
3.034130859375
3.0389648437499996
2.972900390625
2.5386474609375
2.022216796875
1.7845458984375
1.5275390624999998
1.37607421875
1.239111328125
0.9933837890624999
0.720263671875
0.9804931640625
0.9651855468749999
1.0578369140625
3.0333251953125
3.0381591796875
3.0010986328125
2.76826171875
2.1342041015624997
1.3212890625
0.3673828125
0.0314208984375
0.0314208984375
0.030615234374999998
0.0604248046875
0.42619628906249996
0.6243896484375
0.9474609374999999
1.5323730468749999
1.82080078125
2.1148681640625
1.9617919921875
2.3203125
2.384765625
2.3243408203125
0.027392578124999997
0.030615234374999998
0.1087646484375
0.5599365234375
1.1641845703125
1.77890625
3.034130859375
3.037353515625
3.0389648437499996
3.0357421875
2.5644287109375
2.1986572265624997
1.89169921875
1.6024658203125
1.4671142578124998
1.3285400390625
1.0352783203125
0.8572265625
0.9837158203124999
0.990966796875
1.0530029296874999
1.09248046875
3.034130859375
3.0349365234374996
2.8012939453124996
2.5072265624999996
2.1470947265625
0.46164550781249997
0.0298095703125
0.02900390625
0.033032226562499996
0.0378662109375
0.2771484375
0.517236328125
0.8701171875
1.3108154296874999
1.6886718749999998
2.0036865234375
2.399267578125
2.34287109375
2.4749999999999996
2.4258544921875
2.3227294921875
0.033032226562499996
0.033837890625
0.40524902343749997
0.7798828124999999
1.7829345703125
2.6852783203125
3.0357421875
3.037353515625
3.0365478515624997
2.7046142578124996
2.318701171875
1.828857421875
1.6532226562499999
1.4671142578124998
1.2898681640624998
1.0546142578125
0.9990234375
0.7138183593749999
1.018359375
1.07958984375
1.1134277343749999
3.037353515625
3.037353515625
2.7561767578125
2.489501953125
2.13662109375
1.11826171875
0.0298095703125
0.0314208984375
0.0298095703125
0.030615234374999998
0.3029296875
0.6308349609374999
0.8145263671874999
1.3027587890624999
1.716064453125
1.941650390625
2.2647216796875
2.199462890625
2.4556640625
2.3879882812499997
2.2453857421875
0.0298095703125
0.0298095703125
0.3029296875
0.6574218749999999
1.4187744140624998
2.152734375
3.0365478515624997
3.0365478515624997
3.0357421875
2.6611083984375
2.2727783203125
1.8739746093749998
1.71123046875
1.4155517578124999
1.2753662109375
1.155322265625
0.878173828125
0.64453125
0.9329589843749999
0.9531005859374999
1.1295410156249999
3.0397705078125
3.034130859375
2.7521484375
2.7271728515625
1.883642578125
1.2495849609374998
0.033837890625
0.030615234374999998
0.0322265625
0.027392578124999997
0.24895019531249998
0.5599365234375
0.78310546875
1.31162109375
1.6250244140624999
1.93359375
2.2590820312499997
2.487890625
2.3485107421875
2.3678466796874997
2.2647216796875
0.0281982421875
0.02900390625
0.31743164062499996
0.800830078125
1.2439453125
2.270361328125
3.034130859375
3.0349365234374996
3.037353515625
2.848828125
2.47177734375
2.0310791015625
1.732177734375
1.448583984375
1.329345703125
1.1706298828125
0.952294921875
0.678369140625
0.9812988281249999
0.9466552734375
1.045751953125
1.2020507812499999
3.0365478515624997
2.956787109375
2.7585937499999997
1.9376220703125
1.2608642578125
0.167578125
0.030615234374999998
0.0322265625
0.0346435546875
0.21511230468749998
0.555908203125
0.7436279296874999
1.07958984375
1.496923828125
1.7958251953125
2.167236328125
2.6860839843749997
2.373486328125
2.4298828125
2.3066162109375
0.030615234374999998
0.0298095703125
0.388330078125
0.7943847656249999
1.2826171874999999
2.1704589843749997
2.9680664062499997
3.0357421875
3.0389648437499996
3.0365478515624997
2.425048828125
2.05927734375
1.719287109375
1.3881591796875
1.3156494140625
1.235888671875
0.9990234375
0.6791748046874999
0.87978515625
1.0634765625
1.1416259765624999
1.1923828125
3.0357421875
3.0244628906249997
2.7392578125
2.3823486328125
1.960986328125
0.39316406249999997
0.02900390625
0.0298095703125
0.030615234374999998
0.17644042968749998
0.41008300781249996
0.7025390625
1.0658935546875
1.4920898437499999
1.7418457031249999
2.1462890624999997
2.72314453125
2.5064208984375
2.45888671875
2.3485107421875
2.2051025390625
0.027392578124999997
0.2425048828125
0.34965820312499996
0.881396484375
1.925537109375
2.8552734374999997
3.0357421875
3.0333251953125
3.0333251953125
2.6619140624999997
2.3001708984375
1.8739746093749998
1.6822265625
1.4606689453125
1.3124267578125
1.2374999999999998
0.9643798828125
0.8266113281249999
0.942626953125
0.9998291015624999
1.061865234375
3.034130859375
3.0357421875
2.7489257812499996
2.7102539062499997
1.9666259765624998
0.928125
0.0314208984375
0.0281982421875
0.030615234374999998
0.030615234374999998
0.23928222656249998
0.6195556640625
0.807275390625
1.40185546875
1.69189453125
2.002880859375
2.20107421875
2.2824462890625
2.3396484374999997
2.3082275390625
2.196240234375
0.02900390625
0.0298095703125
0.565576171875
0.8161376953124999
1.4518066406249999
2.338037109375
3.037353515625
3.0349365234374996
3.0325195312499997
2.81015625
2.286474609375
1.9303710937499998
1.8054931640624998
1.5001464843749999
1.45341796875
1.3253173828125
1.0578369140625
0.8161376953124999
1.0433349609375
1.0997314453125
1.1255126953124999
3.037353515625
3.0405761718749997
2.7287841796874996
2.7529541015624996
1.9271484374999999
1.0465576171875
0.0314208984375
0.02900390625
0.027392578124999997
0.0298095703125
0.2280029296875
0.52529296875
0.74443359375
1.3261230468749998
1.4469726562499998
1.7104248046875
2.1221191406249997
2.4991699218749996
2.357373046875
2.32998046875
2.21396484375
0.0281982421875
0.02900390625
0.4036376953125
0.6727294921875
1.4816162109375
2.212353515625
3.0357421875
3.037353515625
3.0365478515624997
2.7948486328124997
2.4468017578125
1.944873046875
1.8006591796875
1.380908203125
1.409912109375
1.1859374999999999
1.08603515625
1.2769775390625
1.10859375
1.087646484375
1.1158447265625
3.0349365234374996
3.0405761718749997
2.8149902343749997
2.673193359375
1.9118408203125
1.2745605468749999
0.24895019531249998
0.026586914062499998
0.0314208984375
0.0298095703125
0.1861083984375
0.5446289062499999
0.6912597656249999
1.147265625
1.5138427734375
1.7096191406249999
2.035107421875
2.0423583984375
2.2002685546875
2.212353515625
2.1164794921875
0.02900390625
0.030615234374999998
0.42941894531249997
0.894287109375
1.4381103515625
2.151123046875
2.9914306640625
3.0365478515624997
3.0357421875
2.8995849609374997
2.4322998046874997
2.1406494140625
1.851416015625
1.554931640625
1.6129394531249999
1.5154541015624998
1.4203857421875
1.2431396484375
1.1641845703125
1.2616699218749998
1.2383056640624999
1.619384765625
3.0365478515624997
2.7400634765625
2.46533203125
2.1132568359375
1.5484863281249999
0.0298095703125
0.02900390625
0.027392578124999997
0.0298095703125
0.185302734375
0.42941894531249997
0.6840087890625
1.0433349609375
1.43408203125
1.6081054687499998
1.93359375
2.1704589843749997
2.14306640625
2.0987548828125
2.0173828124999997
1.2431396484375
0.02900390625
0.4842041015625
0.5889404296874999
1.2093017578125
2.1197021484375
2.8149902343749997
3.0365478515624997
3.037353515625
2.8810546875
2.5330078124999997
2.180126953125
1.8707519531249999
1.72412109375
1.593603515625
1.542041015625
1.335791015625
1.271337890625
1.3881591796875
1.26328125
1.2979248046874998
1.29228515625
3.0309082031249996
2.9414794921875
2.6055175781249997
2.231689453125
1.7877685546875
0.813720703125
0.030615234374999998
0.0281982421875
0.02900390625
0.07412109374999999
0.45358886718749997
0.7114013671874999
0.8660888671875
1.2656982421874998
1.5654052734375
1.7531249999999998
2.0560546875
2.2083251953125
2.1100341796874997
2.08505859375
1.8892822265625
0.02900390625
0.10231933593749999
0.6832031249999999
1.01513671875
1.3752685546874999
2.199462890625
3.0381591796875
3.0357421875
3.037353515625
2.6739990234374997
2.2437744140625
1.98837890625
1.899755859375
1.5984375
1.5645996093749999
1.3712402343749999
1.2697265624999998
1.2624755859374999
1.2745605468749999
1.2850341796875
1.316455078125
3.037353515625
3.0365478515624997
2.608740234375
2.5241455078125
1.869140625
1.0304443359375
0.02900390625
0.027392578124999997
0.0298095703125
0.040283203125
0.32871093749999997
0.6292236328124999
0.9007324218749999
1.332568359375
1.44052734375
1.6411376953124999
1.9456787109375
2.044775390625
2.0431640625
2.0012695312499997
1.9674316406249999
0.0322265625
0.038671874999999994
0.7017333984374999
0.8435302734375
1.67578125
2.230078125
3.0381591796875
3.0357421875
3.0405761718749997
2.7545654296874997
2.441162109375
2.112451171875
1.9078125
1.67900390625
1.6379150390625
1.5347900390625
1.3237060546875
1.5476806640624998
1.2802001953125
1.264892578125
1.26005859375
3.0317138671875
3.0365478515624997
2.7497314453125
2.5201171875
1.832080078125
1.377685546875
0.0314208984375
0.0314208984375
0.0314208984375
0.026586914062499998
0.17241210937499998
0.5406005859374999
0.605859375
0.9933837890624999
1.297119140625
1.6371093749999999
1.8369140625
1.7184814453125
2.060888671875
2.0407470703125
1.9658203125
0.030615234374999998
0.02578125
0.4519775390625
0.7516845703124999
1.5911865234375
2.1704589843749997
2.9028076171875
3.0357421875
3.037353515625
2.8617187499999996
2.441162109375
2.1076171875
1.9392333984374999
1.7023681640625
1.6024658203125
1.533984375
1.3365966796875
1.5645996093749999
1.2495849609374998
1.3083984375
1.3108154296874999
2.576513671875
3.037353515625
2.7585937499999997
2.5072265624999996
2.115673828125
1.4759765624999999
0.20625
0.026586914062499998
0.033032226562499996
0.0281982421875
0.2457275390625
0.507568359375
0.6993164062499999
1.094091796875
1.3744628906249998
1.606494140625
1.95615234375
1.7821289062499999
2.0633056640625
2.012548828125
1.9706542968749998
0.4954833984375
0.0314208984375
0.5905517578125
0.823388671875
1.3792968749999999
2.260693359375
2.95517578125
3.0325195312499997
3.0357421875
2.8238525390625
2.45888671875
2.1293701171875
1.8344970703124999
1.6508056640625
1.577490234375
1.5235107421874998
1.3148437499999999
1.26005859375
1.4630859374999998
1.284228515625
1.2656982421874998
1.2415283203124998
3.0381591796875
2.7134765625
2.4911132812499996
2.244580078125
1.4832275390624998
0.710595703125
0.0298095703125
0.02900390625
0.033837890625
0.09345703124999999
0.343212890625
0.6888427734375
0.9434326171874999
1.232666015625
1.5162597656249999
1.7208984374999998
1.9078125
2.006103515625
1.9505126953124998
1.920703125
1.8119384765625
0.030615234374999998
0.46245117187499996
0.839501953125
1.2270263671875
1.496923828125
2.31064453125
3.0397705078125
3.0365478515624997
3.0349365234374996
2.642578125
2.1922119140625
1.9585693359374998
1.87236328125
1.654833984375
1.6008544921874999
1.5436523437499998
1.3527099609375
1.4332763671875
1.2640869140625
1.297119140625
1.30517578125
3.0301025390625
3.0365478515624997
2.502392578125
2.3138671875
1.9198974609375
1.235888671875
0.0298095703125
0.02900390625
0.0298095703125
0.1119873046875
0.41411132812499996
0.652587890625
0.71865234375
1.22783203125
1.4993408203124998
1.7611816406249998
1.85625
1.7877685546875
1.9118408203125
1.8635009765625
1.80791015625
0.02900390625
0.0298095703125
0.7927734375
0.84111328125
1.6153564453125
2.199462890625
3.0349365234374996
3.0357421875
3.034130859375
2.737646484375
2.4564697265624997
2.167236328125
1.960986328125
1.8062988281249999
1.6951171875
1.5194824218749998
1.3220947265624998
1.2745605468749999
1.3124267578125
1.3067871093749999
1.3349853515624999
3.0365478515624997
3.0357421875
2.513671875
2.3984619140625
1.7861572265624999
1.1964111328125
0.0539794921875
0.0298095703125
0.0322265625
0.0314208984375
0.3440185546875
0.7242919921875
0.8161376953124999
1.2181640624999999
1.4252197265625
1.619384765625
1.899755859375
1.8111328125
1.9529296875
1.8876708984375
1.8038818359375
0.0281982421875
0.0298095703125
0.5220703125
0.9579345703125
1.6290527343749999
2.11083984375
2.9583984374999996
3.034130859375
3.0301025390625
2.7730957031249996
2.3001708984375
2.0109375
1.88525390625
1.7039794921875
1.5960205078124998
1.5138427734375
1.3631835937499999
1.4888671875
1.3672119140624999
1.3768798828125
1.3599609375
3.0357421875
3.0357421875
2.6538574218749997
2.4282714843749997
1.92392578125
1.2777832031249998
0.1893310546875
0.0298095703125
0.0298095703125
0.02900390625
0.291650390625
0.5583251953125
0.7855224609375
1.197216796875
1.3817138671875
1.56298828125
1.8344970703124999
1.65966796875
1.90458984375
1.8788085937499999
1.819189453125
0.0298095703125
0.0298095703125
0.4970947265625
0.85400390625
1.3059814453124998
2.1205078125
2.85205078125
3.0357421875
3.0365478515624997
2.779541015625
2.43955078125
2.1543457031249997
1.9190917968749999
1.7990478515625
1.7176757812499999
1.658056640625
1.4284423828125
1.2503906249999999
1.3575439453125
1.34384765625
1.3664062499999998
1.3704345703124998
3.037353515625
2.642578125
2.4524414062499997
1.9867675781249998
1.3108154296874999
0.652587890625
0.0281982421875
0.026586914062499998
0.0322265625
0.23928222656249998
0.6308349609374999
0.8830078124999999
1.09248046875
1.3897705078125
1.5670166015625
1.8336914062499998
1.95615234375
1.8385253906249999
1.8143554687499999
1.7660156249999999
0.1039306640625
0.0322265625
0.5502685546875
0.8048583984375
1.2938964843749998
1.719287109375
2.3017822265625
3.0325195312499997
3.0349365234374996
2.8883056640625
2.4387451171875
2.1809326171875
1.9198974609375
1.8095214843749998
1.658056640625
1.611328125
1.4187744140624998
1.3704345703124998
1.4783935546875
1.3849365234375
1.3978271484375
1.384130859375
3.0349365234374996
2.8681640625
2.4081298828124997
2.165625
1.8626953124999999
0.6977050781249999
0.0281982421875
0.0298095703125
0.02900390625
0.2425048828125
0.48178710937499997
0.7404052734375
0.984521484375
1.2697265624999998
1.464697265625
1.6177734375
1.85625
1.7861572265624999
1.8876708984375
1.8506103515624999
1.7660156249999999
0.0298095703125
0.48178710937499997
0.8435302734375
0.992578125
1.6153564453125
2.23974609375
3.0357421875
3.0357421875
2.8802490234375
2.550732421875
2.24619140625
1.8892822265625
1.8143554687499999
1.658056640625
1.5911865234375
1.4276367187499999
1.3470703124999999
1.27939453125
1.38896484375
1.3865478515624998
1.4123291015625
3.0357421875
2.9825683593749996
2.441162109375
2.41376953125
1.8280517578125
1.1794921875
0.02900390625
0.0298095703125
0.0298095703125
0.040283203125
0.3794677734375
0.7259033203124999
0.823388671875
1.2366943359375
1.525927734375
1.635498046875
1.851416015625
1.7829345703125
1.8780029296874998
1.8095214843749998
1.7668212890625
0.0314208984375
0.0322265625
0.6550048828124999
0.952294921875
1.6532226562499999
2.0955322265625
3.034130859375
3.0365478515624997
3.0365478515624997
2.65546875
2.196240234375
1.9593749999999999
1.85302734375
1.6991455078125
1.6491943359374999
1.5726562499999999
1.3446533203125
1.2955078125
1.33740234375
1.33740234375
1.3672119140624999
3.0405761718749997
3.0357421875
2.410546875
2.334814453125
1.6725585937499998
1.200439453125
0.0298095703125
0.02900390625
0.02578125
0.03544921875
0.410888671875
0.6888427734375
0.8427246093749999
1.2914794921875
1.4840332031249999
1.635498046875
1.8393310546875
1.82080078125
1.8369140625
1.7990478515625
1.7426513671875
0.0281982421875
0.0298095703125
0.652587890625
1.0465576171875
1.426025390625
2.1712646484375
2.8786376953125
3.0357421875
3.0357421875
2.7094482421875
2.373486328125
1.9634033203124999
1.8240234375
1.6564453124999998
1.6153564453125
1.6209960937499999
1.4276367187499999
1.18271484375
1.4276367187499999
1.3905761718749998
1.4228027343749998
3.0365478515624997
3.0365478515624997
2.5958496093749996
2.370263671875
1.8151611328125
1.239111328125
0.510791015625
0.030615234374999998
0.0314208984375
0.030615234374999998
0.323876953125
0.684814453125
0.8612548828125
1.1222900390625
1.4445556640625
1.606494140625
1.7394287109375
1.7007568359374998
1.815966796875
1.8361083984375
1.780517578125
0.030615234374999998
0.0281982421875
0.6493652343749999
0.9949951171875
1.4308593749999998
1.9102294921874998
2.85849609375
3.0349365234374996
3.034130859375
2.85849609375
2.3404541015625
2.0407470703125
1.85947265625
1.6685302734374998
1.6282470703124998
1.6072998046875
1.413134765625
1.3148437499999999
1.4308593749999998
1.3921875
1.4542236328125
1.4477783203124999
3.0357421875
2.5934326171874997
2.328369140625
2.044775390625
1.2511962890625
0.6171386718749999
0.027392578124999997
0.0281982421875
0.0298095703125
0.26103515625
0.5196533203125
0.8370849609375
1.1271240234375
1.3849365234375
1.554931640625
1.7990478515625
1.993212890625
1.8707519531249999
1.851416015625
1.8014648437499998
1.72412109375
0.02578125
0.58974609375
0.8096923828125
1.1142333984375
1.7829345703125
2.39765625
3.0325195312499997
3.0381591796875
2.8157958984375
2.4814453125
2.1060058593749997
1.9223144531249998
1.796630859375
1.69833984375
1.6346923828125
1.5637939453124998
1.3688232421875
1.4155517578124999
1.3527099609375
1.3591552734374999
1.3639892578125
3.0349365234374996
2.7916259765625
2.386376953125
2.152734375
1.851416015625
1.1400146484375
0.027392578124999997
0.030615234374999998
0.030615234374999998
0.13857421875
0.539794921875
0.8677001953125
0.9893554687499999
1.4115234374999999
1.5597656249999998
1.7466796875
1.8538330078124998
1.7281494140625
1.77568359375
1.7297607421874999
1.64677734375
0.0314208984375
0.20061035156249998
0.7927734375
1.074755859375
1.5605712890624999
2.3146728515625
3.0365478515624997
3.0357421875
3.0099609375
2.512060546875
2.1946289062499997
1.948095703125
1.8006591796875
1.7249267578124998
1.625830078125
1.4284423828125
1.413134765625
1.2479736328125
1.42119140625
1.4236083984374999
1.409912109375
3.0357421875
2.8593017578124997
2.3614013671875
2.36220703125
1.880419921875
1.1915771484375
0.02900390625
0.030615234374999998
0.0314208984375
0.12568359375
0.4761474609375
0.8588378906249999
0.9635742187499999
1.3656005859375
1.4268310546874998
1.6056884765625
1.8038818359375
1.9472900390624999
1.8312744140625
1.7797119140625
1.7015624999999999
0.026586914062499998
0.0765380859375
0.708984375
1.0916748046875
1.6451660156249999
1.9843505859375
3.0365478515624997
3.0357421875
3.0043212890624997
2.6377441406249997
2.2486083984375
1.980322265625
1.9142578124999998
1.6218017578125
1.6330810546874999
1.56298828125
1.3736572265625
1.2544189453124999
1.3873535156249999
1.3736572265625
1.393798828125
3.0333251953125
3.0365478515624997
2.5595947265624996
2.3879882812499997
1.6717529296875
1.216552734375
0.0249755859375
0.0314208984375
0.027392578124999997
0.0281982421875
0.41411132812499996
0.6735351562499999
0.807275390625
1.2640869140625
1.4356933593749999
1.5782958984375
1.7700439453124999
1.8465820312499999
1.7781005859374999
1.7861572265624999
1.7313720703125
0.030615234374999998
0.0281982421875
0.7081787109375
0.9732421874999999
1.4010498046875
2.0496093749999997
2.9156982421874997
3.0365478515624997
3.0381591796875
2.6764160156249996
2.3952392578125
2.0689453125
1.8989501953124999
1.6854492187499999
1.6927001953124998
1.6008544921874999
1.4058837890625
1.3172607421875
1.319677734375
1.4155517578124999
1.4469726562499998
1.5807128906249999
3.0357421875
2.55234375
2.3340087890625
1.75634765625
1.2318603515625
0.56396484375
0.030615234374999998
0.0298095703125
0.02900390625
0.2972900390625
0.6775634765624999
0.8403076171874999
1.126318359375
1.3881591796875
1.5791015625
1.7845458984375
1.9682373046875
1.7337890624999999
1.7370117187499998
1.7313720703125
0.02900390625
0.0362548828125
0.6082763671875
0.7130126953125
1.351904296875
1.8498046874999998
2.4580810546875
3.0365478515624997
3.0365478515624997
2.83271484375
2.3307861328125
2.0504150390625
1.8739746093749998
1.835302734375
1.7055908203124999
1.6218017578125
1.4679199218749999
1.2020507812499999
1.3285400390625
1.3792968749999999
1.3857421875
1.409912109375
3.0365478515624997
2.68125
2.36865234375
2.0536376953124997
1.7611816406249998
0.6098876953125
0.02900390625
0.02900390625
0.0298095703125
0.33515625
0.6066650390625
0.8805908203124999
1.1335693359374999
1.3905761718749998
1.5122314453124999
1.6749755859375
2.0044921875
1.8087158203125
1.79501953125
1.75634765625
1.6814208984374999
0.0322265625
0.6638671875
0.8129150390625
1.1617675781249999
1.8369140625
2.3871826171875
3.0405761718749997
3.0389648437499996
2.856884765625
2.537841796875
2.1970458984375
1.9029785156249999
1.8715576171875
1.7176757812499999
1.6459716796875
1.445361328125
1.38896484375
1.281005859375
1.4115234374999999
1.4074951171874999
1.3768798828125
3.0357421875
2.7593994140625
2.4322998046874997
2.3614013671875
1.8546386718749999
1.1408203125
0.0281982421875
0.037060546874999996
0.0298095703125
0.1377685546875
0.49467773437499996
0.8104980468749999
0.9418212890625
1.3470703124999999
1.5218994140625
1.7136474609374999
1.764404296875
1.7700439453124999
1.7853515624999998
1.7539306640624999
1.7096191406249999
0.0281982421875
0.27392578125
0.8032470703125
0.994189453125
1.4719482421874999
2.0761962890625
3.034130859375
3.0357421875
3.027685546875
2.6941406249999997
2.263916015625
1.9996582031249999
1.896533203125
1.7362060546875
1.6612792968749999
1.611328125
1.4268310546874998
1.2769775390625
1.3865478515624998
1.3946044921874998
1.3849365234375
3.0357421875
3.0365478515624997
2.4016845703125
2.3630126953125
1.719287109375
1.2020507812499999
0.0298095703125
0.0314208984375
0.0298095703125
0.136962890625
0.42619628906249996
0.71220703125
0.87333984375
1.3551269531249999
1.4413330078125
1.5597656249999998
1.7829345703125
1.941650390625
1.8369140625
1.7877685546875
1.7249267578124998
0.02900390625
0.1941650390625
0.7234863281249999
0.9901611328125
1.533984375
2.0085205078125
3.0349365234374996
3.0357421875
3.0317138671875
2.6433837890625
2.31064453125
1.9779052734375
1.9166748046875
1.62744140625
1.7015624999999999
1.5831298828125
1.4800048828124999
1.619384765625
1.4518066406249999
1.426025390625
1.3954101562499999
2.222021484375
3.0333251953125
2.53623046875
2.3678466796874997
1.7249267578124998
1.239111328125
0.43828124999999996
0.033837890625
0.0298095703125
0.0298095703125
0.37382812499999996
0.7162353515625
0.813720703125
1.1303466796875
1.3849365234375
1.5412353515625
1.751513671875
1.7281494140625
1.8264404296874999
1.8175781249999998
1.77568359375
0.0298095703125
0.0298095703125
0.6324462890625
0.7694091796875
1.4816162109375
2.00771484375
2.650634765625
3.034130859375
3.0365478515624997
2.7690673828124996
2.3565673828125
2.1076171875
1.8949218749999999
1.7813232421874998
1.714453125
1.6250244140624999
1.4091064453125
1.4171630859375
1.327734375
1.4244140625
1.4268310546874998
1.8651123046875
3.0365478515624997
2.6232421875
2.3436767578124997
2.0471923828125
1.6024658203125
0.549462890625
0.02900390625
0.0298095703125
0.02900390625
0.30051269531249997
0.5808837890624999
0.8064697265624999
1.1206787109375
1.3873535156249999
1.5243164062499999
1.72412109375
1.7982421874999999
1.85625
1.7926025390625
1.738623046875
1.416357421875
0.02578125
0.6324462890625
0.742822265625
1.1754638671875
1.9658203125
2.5434814453124996
3.0381591796875
3.0349365234374996
2.8141845703125
2.4814453125
2.205908203125
1.9142578124999998
1.8199951171875
1.7176757812499999
1.6403320312499998
1.513037109375
1.38896484375
1.49853515625
1.40185546875
1.3833251953124999
1.3954101562499999
3.0357421875
2.67158203125
2.418603515625
2.273583984375
1.6781982421875
1.0030517578125
0.026586914062499998
0.02900390625
0.030615234374999998
0.1957763671875
0.4729248046875
0.8362792968749999
1.0046630859374999
1.2866455078124999
1.45341796875
1.6636962890625
1.796630859375
1.843359375
1.80791015625
1.78857421875
1.7410400390624998
0.033032226562499996
0.40202636718749996
0.84755859375
1.0948974609375
1.4139404296875
2.0576660156249997
3.0333251953125
3.0357421875
2.91650390625
2.602294921875
2.19140625
1.9311767578124999
1.87236328125
1.6814208984374999
1.670947265625
1.5267333984375
1.4203857421875
1.4840332031249999
1.4300537109375
1.4332763671875
1.4058837890625
3.0349365234374996
3.0357421875
2.4371337890625
2.3468994140625
1.8022705078124999
1.271337890625
0.0314208984375
0.030615234374999998
0.02900390625
0.246533203125
0.507568359375
0.7452392578125
0.942626953125
1.2818115234374998
1.4147460937499998
1.53720703125
1.7748779296875
1.8377197265624998
1.8224121093749999
1.7845458984375
1.7039794921875
0.0298095703125
0.0298095703125
0.8185546874999999
0.9450439453124999
1.609716796875
1.9811279296875
3.037353515625
3.0349365234374996
2.9882080078124997
2.5837646484374996
2.29775390625
2.0761962890625
1.9424560546874998
1.7378173828124999
1.7080078125
1.5944091796875
1.397021484375
1.5879638671874998
1.4195800781249999
1.4244140625
1.4187744140624998
3.034130859375
3.0365478515624997
2.4532470703125
2.3662353515625
1.7587646484375
1.2850341796875
0.1877197265625
0.0298095703125
0.02900390625
0.04189453125
0.36899414062499997
0.7307373046875
0.8185546874999999
1.16337890625
1.405078125
1.5863525390625
1.7619873046874999
1.56943359375
1.80791015625
1.8087158203125
1.7531249999999998
0.0298095703125
0.0298095703125
0.5196533203125
0.9144287109375
1.5702392578125
2.1116455078125
2.7368408203124996
3.034130859375
3.0365478515624997
2.7577880859375
