2.031884765625
2.1261474609374997
2.7988769531249997
3.0365478515624997
2.2711669921874997
1.7853515624999998
1.546875
1.4510009765624998
1.5533203125
1.4928955078125
1.558154296875
1.506591796875
1.397021484375
1.496923828125
1.4679199218749999
1.48564453125
1.46630859375
2.2647216796875
2.5402587890625
1.796630859375
1.603271484375
1.229443359375
1.0489746093749999
0.54140625
0.1119873046875
0.278759765625
0.765380859375
1.2141357421874999
1.5299560546875
1.5218994140625
1.6653076171874999
1.6532226562499999
1.674169921875
1.786962890625
1.658056640625
1.6798095703125
1.6475830078125
1.6298583984375
0.033837890625
0.44230957031249996
1.31162109375
1.5718505859374998
1.9489013671875
2.1245361328125
2.410546875
3.0333251953125
2.3904052734375
1.9070068359374999
1.5517089843749998
1.426025390625
1.4759765624999999
1.4510009765624998
1.5396240234374998
1.5218994140625
1.4268310546874998
1.5041748046874999
1.4389160156249998
1.4864501953125
1.458251953125
1.9295654296875
3.034130859375
1.8328857421875
1.6177734375
1.4203857421875
1.281005859375
0.6372802734374999
0.40202636718749996
0.22236328125
0.7436279296874999
1.2205810546875
1.4542236328125
1.529150390625
1.6056884765625
1.6645019531249998
1.6532226562499999
1.754736328125
1.7313720703125
1.6886718749999998
1.606494140625
1.6177734375
0.9635742187499999
0.02900390625
1.4058837890625
1.554931640625
1.7716552734375
2.1197021484375
2.3694580078125
3.0413818359375
2.4113525390625
1.9110351562499999
1.6072998046875
1.4953124999999998
1.4888671875
1.529150390625
1.5243164062499999
1.5218994140625
1.4066894531249998
1.4195800781249999
1.4493896484375
1.4880615234374999
1.464697265625
1.482421875
3.0365478515624997
1.9956298828124999
1.6854492187499999
1.4147460937499998
1.2737548828124998
1.029638671875
0.5132080078125
0.30454101562499997
0.6243896484375
1.071533203125
1.4381103515625
1.5565429687499999
1.554931640625
1.6250244140624999
1.6725585937499998
1.732177734375
1.7023681640625
1.6693359374999999
1.6346923828125
1.62744140625
1.4590576171874998
0.02900390625
1.1093994140624999
1.493701171875
1.7345947265625
1.8457763671874998
2.0471923828125
3.0365478515624997
2.892333984375
2.0842529296875
1.5476806640624998
1.4397216796874999
1.429248046875
1.4840332031249999
1.5033691406249998
1.5057861328125
1.5009521484375
1.4228027343749998
1.4558349609374999
1.4864501953125
1.4880615234374999
1.47275390625
3.0365478515624997
1.93359375
1.6040771484374998
1.5033691406249998
1.284228515625
1.0948974609375
0.34965820312499996
0.485009765625
0.8185546874999999
1.2262207031249999
1.4550292968749998
1.5758789062499998
1.5380126953125
1.6645019531249998
1.638720703125
1.6371093749999999
1.6886718749999998
1.658056640625
1.6234130859375
1.606494140625
1.5815185546875
0.026586914062499998
1.173046875
1.571044921875
1.6572509765624999
1.85625
1.9674316406249999
2.7432861328125
2.7908203124999997
2.0576660156249997
1.6540283203125
1.5194824218749998
1.4397216796874999
1.5114257812499998
1.4735595703125
1.52109375
1.4348876953124998
1.45341796875
1.4598632812499999
1.4800048828124999
1.48564453125
1.4759765624999999
3.0381591796875
2.3009765625
1.651611328125
1.509814453125
1.2238037109375
1.1295410156249999
0.5035400390625
0.5309326171875
0.7154296874999999
1.0771728515624999
1.445361328125
1.5509033203125
1.5243164062499999
1.6951171875
1.619384765625
1.6234130859375
1.6830322265625
1.6814208984374999
1.6201904296874998
1.6000488281249998
1.5645996093749999
0.030615234374999998
0.7412109375
1.5799072265624998
1.619384765625
1.9311767578124999
2.0020751953125
2.5386474609375
3.0333251953125
2.2695556640625
1.6636962890625
1.525927734375
1.456640625
1.51787109375
1.4550292968749998
1.5114257812499998
1.5275390624999998
1.4187744140624998
1.51787109375
1.4550292968749998
1.4655029296875
1.4638916015624999
1.9996582031249999
2.358984375
1.6854492187499999
1.5235107421874998
1.34384765625
1.1617675781249999
0.8668945312499999
0.6163330078125
0.6711181640624999
1.0352783203125
1.335791015625
1.5194824218749998
1.5025634765625
1.6105224609375
1.63388671875
1.606494140625
1.651611328125
1.6218017578125
1.6081054687499998
1.6201904296874998
1.6298583984375
0.0298095703125
0.6348632812499999
1.4518066406249999
1.56298828125
1.8884765625
1.9730712890625
2.1857666015625
3.034130859375
2.43310546875
1.85302734375
1.554931640625
1.4574462890625
1.4598632812499999
1.46953125
1.5218994140625
1.50498046875
1.4147460937499998
1.4373046875
1.445361328125
1.4993408203124998
1.5283447265624999
1.7474853515625
2.8705810546875
1.8199951171875
1.5009521484375
1.348681640625
1.2938964843749998
0.8967041015624999
0.5865234375
0.58330078125
0.8725341796874999
1.340625
1.4711425781249998
1.5315673828124998
1.5758789062499998
1.6218017578125
1.6435546875
1.7120361328125
1.7499023437499999
1.651611328125
1.6137451171875
1.58232421875
1.268115234375
0.0749267578125
1.4123291015625
1.5702392578125
1.7394287109375
1.9489013671875
2.07861328125
3.0357421875
2.6449951171875
1.851416015625
1.5847412109374999
1.4888671875
1.4590576171874998
1.46630859375
1.4920898437499999
1.5073974609374998
1.4687255859375
1.4679199218749999
1.493701171875
1.477587890625
1.477587890625
1.461474609375
2.9495361328125
1.8651123046875
1.5758789062499998
1.3817138671875
1.3478759765625
1.1013427734374999
0.38913574218749997
0.588134765625
0.8499755859375
1.2455566406249998
1.4872558593749998
1.5525146484374999
1.5299560546875
1.6177734375
1.6048828124999999
1.63388671875
1.6693359374999999
1.6306640625
1.6242187499999998
1.6000488281249998
1.5082031249999999
0.0314208984375
1.1923828125
1.5678222656249998
1.7200927734375
1.812744140625
1.9432617187499999
3.0381591796875
2.7328124999999996
2.0326904296875
1.5645996093749999
1.4638916015624999
1.448583984375
1.5090087890625
1.5138427734375
1.5218994140625
1.5009521484375
1.4252197265625
1.4469726562499998
1.4703369140625
1.496923828125
1.4719482421874999
3.034130859375
2.2268554687499997
1.5637939453124998
1.4872558593749998
1.2737548828124998
1.1384033203125
0.4487548828125
0.5277099609375
0.668701171875
1.2302490234374999
1.4622802734375
1.5380126953125
1.506591796875
1.6314697265625
1.60166015625
1.64677734375
1.6669189453125
1.651611328125
1.6137451171875
1.6024658203125
1.6040771484374998
0.0298095703125
1.1061767578125
1.5323730468749999
1.6282470703124998
1.8046875
1.9376220703125
2.358984375
3.0357421875
2.165625
1.7168701171874998
1.529150390625
1.4437499999999999
1.5315673828124998
1.4638916015624999
1.496923828125
1.4888671875
1.4195800781249999
1.5517089843749998
1.509814453125
1.4953124999999998
1.4928955078125
3.0357421875
2.29775390625
1.6773925781249999
1.5283447265624999
1.2334716796875
1.1512939453125
0.8000244140624999
0.5365722656249999
0.6896484374999999
1.0562255859375
1.4413330078125
1.5170654296875
1.4888671875
1.6048828124999999
1.5984375
1.638720703125
1.699951171875
1.674169921875
1.6185791015625
1.6306640625
1.5944091796875
0.026586914062499998
0.6775634765624999
1.43408203125
1.6266357421875
1.9650146484375
2.006103515625
2.52978515625
3.0357421875
2.338037109375
1.6773925781249999
1.490478515625
1.4356933593749999
1.461474609375
1.4316650390624999
1.5073974609374998
1.4945068359375
1.4767822265625
1.4920898437499999
1.4622802734375
1.480810546875
1.480810546875
1.9352050781249999
2.83271484375
1.6927001953124998
1.55009765625
1.3551269531249999
1.1061767578125
0.8515869140625
0.44633789062499996
0.64775390625
0.9877441406249999
1.3672119140624999
1.5033691406249998
1.5041748046874999
1.6435546875
1.65
1.6314697265625
1.699951171875
1.6717529296875
1.667724609375
1.6282470703124998
1.5831298828125
0.9208740234374999
0.5776611328125
1.4074951171874999
1.5750732421875
1.9150634765624999
2.031884765625
2.199462890625
3.0365478515624997
2.3388427734375
1.8143554687499999
1.5758789062499998
1.5863525390625
1.5992431640625
1.5992431640625
1.5911865234375
1.5573486328125
1.42119140625
1.4558349609374999
1.4800048828124999
1.4848388671875
1.48564453125
1.7466796875
3.0268798828124996
1.95615234375
1.5799072265624998
1.40830078125
1.2947021484374999
1.0546142578125
0.476953125
0.346435546875
0.6703125
1.213330078125
1.4356933593749999
1.506591796875
1.5331787109375
1.6306640625
1.625830078125
1.6636962890625
1.703173828125
1.6290527343749999
1.6242187499999998
1.6040771484374998
1.3768798828125
0.027392578124999997
1.095703125
1.4791992187499998
1.7055908203124999
1.799853515625
2.2276611328125
3.0381591796875
3.0002929687499997
2.0576660156249997
1.6822265625
1.5194824218749998
1.4630859374999998
1.477587890625
1.5009521484375
1.5170654296875
1.4300537109375
1.3994384765624999
1.4550292968749998
1.4791992187499998
1.4751708984374998
1.4896728515625
3.0333251953125
2.051220703125
1.7152587890625
1.5654052734375
1.3752685546874999
1.0562255859375
0.1635498046875
0.246533203125
0.5873291015625
1.06669921875
1.3341796874999998
1.5492919921875
1.5678222656249998
1.6693359374999999
1.66611328125
1.6669189453125
1.7466796875
1.706396484375
1.667724609375
1.62744140625
1.56943359375
0.02900390625
1.05380859375
1.46630859375
1.6959228515625
1.8062988281249999
1.791796875
2.7352294921875
2.9833740234375
2.2993652343749997
1.8707519531249999
1.5412353515625
1.46630859375
1.4848388671875
1.45341796875
1.4783935546875
1.4115234374999999
1.4348876953124998
1.3897705078125
1.43408203125
1.4550292968749998
1.4630859374999998
3.0357421875
2.56845703125
1.9545410156249998
1.8151611328125
1.4510009765624998
1.2125244140625
0.185302734375
0.10231933593749999
0.1554931640625
0.7130126953125
1.0610595703124999
1.2769775390625
1.2914794921875
1.53720703125
1.53076171875
1.6048828124999999
1.7297607421874999
1.71123046875
1.6669189453125
1.6242187499999998
1.5944091796875
0.02900390625
0.36899414062499997
1.1883544921875
1.3333740234375
1.7732666015624998
1.8973388671875
2.8029052734374997
3.0349365234374996
2.502392578125
2.0971435546875
1.8755859375
1.6967285156249998
1.6701416015625
1.5815185546875
1.670947265625
1.587158203125
1.4783935546875
1.561376953125
1.506591796875
1.5033691406249998
1.4703369140625
2.454052734375
2.6836669921875
2.0568603515625
1.88525390625
1.464697265625
1.27294921875
0.7299316406249999
0.0966796875
0.1329345703125
0.5341552734375
0.9611572265624999
1.2802001953125
1.2785888671874999
1.4574462890625
1.52109375
1.6234130859375
1.66611328125
1.5444580078124999
1.6854492187499999
1.6483886718749998
1.6403320312499998
0.026586914062499998
0.291650390625
1.10859375
1.3124267578125
1.7611816406249998
1.9432617187499999
2.2808349609375
3.034130859375
2.6820556640624997
2.26875
1.9029785156249999
1.7055908203124999
1.6475830078125
1.5637939453124998
1.622607421875
1.5960205078124998
1.4679199218749999
1.5533203125
1.4880615234374999
1.5251220703125
1.4872558593749998
2.0826416015625
3.034130859375
2.1342041015624997
1.8860595703124998
1.585546875
1.4091064453125
0.610693359375
0.252978515625
0.02900390625
0.45439453124999996
0.9337646484375
1.2101074218749999
1.3510986328124999
1.490478515625
1.5412353515625
1.558154296875
1.67900390625
1.667724609375
1.683837890625
1.6491943359374999
1.6137451171875
0.7001220703125
0.030615234374999998
1.0973144531249999
1.2802001953125
1.5323730468749999
1.9972412109375
2.23974609375
3.0357421875
2.695751953125
2.225244140625
1.8780029296874998
1.7595703125
1.6443603515624998
1.5944091796875
1.603271484375
1.5718505859374998
1.4920898437499999
1.490478515625
1.482421875
1.5218994140625
1.5090087890625
1.5122314453124999
3.0357421875
2.241357421875
1.944873046875
1.6435546875
1.4671142578124998
1.0892578124999999
0.25458984375
0.030615234374999998
0.2457275390625
0.7218749999999999
1.190771484375
1.3349853515624999
1.4244140625
1.5702392578125
1.5863525390625
1.5863525390625
1.6129394531249999
1.6846435546874998
1.6645019531249998
1.638720703125
1.252001953125
0.02900390625
0.8725341796874999
1.2028564453125
1.5509033203125
1.6588623046875
1.9827392578124998
3.034130859375
3.0317138671875
2.4749999999999996
1.9714599609374999
1.75634765625
1.6411376953124999
1.6379150390625
1.6322753906249998
1.6459716796875
1.5815185546875
1.442138671875
1.45341796875
1.46630859375
1.477587890625
1.4961181640624999
3.0365478515624997
2.276806640625
2.0036865234375
1.869140625
1.5436523437499998
1.106982421875
0.1297119140625
0.0322265625
0.2344482421875
0.6993164062499999
1.052197265625
1.27294921875
1.33740234375
1.5122314453124999
1.5573486328125
1.683837890625
1.6798095703125
1.6862548828125
1.6717529296875
1.6371093749999999
1.609716796875
0.02900390625
0.8177490234375
1.1754638671875
1.2777832031249998
1.6572509765624999
1.9569580078125
2.8673583984374997
3.0349365234374996
2.5563720703125
2.13662109375
1.8626953124999999
1.6451660156249999
1.6443603515624998
1.6209960937499999
1.6322753906249998
1.5799072265624998
1.464697265625
1.5726562499999999
1.522705078125
1.4953124999999998
1.5001464843749999
3.0349365234374996
2.6949462890625
2.109228515625
1.9166748046875
1.5041748046874999
1.2592529296875
0.423779296875
0.02900390625
0.030615234374999998
0.452783203125
0.958740234375
1.2310546875
1.2592529296875
1.4711425781249998
1.55009765625
1.6048828124999999
1.716064453125
1.767626953125
1.6733642578124999
1.6532226562499999
1.6403320312499998
0.026586914062499998
0.21511230468749998
0.9450439453124999
1.2318603515625
1.7507080078125
2.0560546875
3.037353515625
3.0357421875
2.7005859374999996
2.19140625
1.8618896484374998
1.7096191406249999
1.670947265625
1.5686279296874999
1.6242187499999998
1.5194824218749998
1.4703369140625
1.62744140625
1.5033691406249998
1.5090087890625
1.506591796875
2.4532470703125
3.0357421875
2.15595703125
1.9456787109375
1.6443603515624998
1.2503906249999999
0.7033447265624999
0.0298095703125
0.0298095703125
0.3802734375
0.823388671875
1.1150390625
1.2665039062499999
1.4953124999999998
1.546875
1.609716796875
1.7531249999999998
1.6105224609375
1.703173828125
1.654833984375
1.6266357421875
0.36093749999999997
0.11037597656249999
0.958740234375
1.190771484375
1.740234375
1.9754882812499999
2.425048828125
3.037353515625
2.8214355468749996
2.3984619140625
2.0552490234375
1.7845458984375
1.670947265625
1.6669189453125
1.641943359375
1.6105224609375
1.4606689453125
1.4364990234375
1.432470703125
1.5194824218749998
1.53720703125
2.1382324218749997
3.0365478515624997
2.2751953124999997
1.9706542968749998
1.7096191406249999
1.3825195312499998
0.9853271484374999
0.07009277343749999
0.0281982421875
0.19255371093749998
0.78955078125
1.0892578124999999
1.2383056640624999
1.340625
1.5331787109375
1.5847412109374999
1.7047851562499998
1.6765869140624998
1.6830322265625
1.6564453124999998
1.667724609375
1.0401123046875
0.03544921875
0.8048583984375
1.071533203125
1.44052734375
1.6081054687499998
2.338037109375
3.0349365234374996
3.034130859375
2.4548583984375
2.096337890625
1.8949218749999999
1.7370117187499998
1.6725585937499998
1.6846435546874998
1.662890625
1.490478515625
1.4655029296875
1.5484863281249999
1.49853515625
1.496923828125
1.5170654296875
3.0397705078125
2.3243408203125
2.05283203125
1.9223144531249998
1.4961181640624999
1.0086914062499999
0.0298095703125
0.02900390625
0.1409912109375
0.6380859375
0.978076171875
1.268115234375
1.3607666015625
1.4888671875
1.5218994140625
1.5678222656249998
1.690283203125
1.65
1.662890625
1.6822265625
1.6250244140624999
0.0314208984375
0.7669921875
1.13115234375
1.4228027343749998
1.6306640625
1.98837890625
3.0357421875
3.034130859375
2.578125
2.1978515625
1.8602783203125
1.7080078125
1.7507080078125
1.6411376953124999
1.635498046875
1.5154541015624998
1.4977294921875
1.482421875
1.5001464843749999
1.496923828125
1.5122314453124999
3.0389648437499996
2.6748046875
2.1197021484375
1.9472900390624999
1.6129394531249999
1.21171875
0.030615234374999998
0.0298095703125
0.033032226562499996
0.5454345703125
0.9176513671875
1.1666015625
1.2640869140625
1.5009521484375
1.5323730468749999
1.587158203125
1.7208984374999998
1.7426513671875
1.6773925781249999
1.6564453124999998
1.5984375
0.0281982421875
0.2860107421875
1.0787841796875
1.24072265625
1.7853515624999998
2.0069091796875
3.034130859375
3.0429931640624996
2.7916259765625
2.2437744140625
1.9569580078125
1.7474853515625
1.722509765625
1.6701416015625
1.6636962890625
1.5678222656249998
1.42119140625
1.609716796875
1.4598632812499999
1.4880615234374999
1.5033691406249998
2.8979736328124996
2.760205078125
2.1213134765625
1.9916015624999999
1.5162597656249999
1.255224609375
0.423779296875
0.0346435546875
0.0322265625
0.37302246093749997
0.8386962890624999
1.1786865234375
1.206884765625
1.4228027343749998
1.4920898437499999
1.6886718749999998
1.7023681640625
1.5364013671874999
1.6967285156249998
1.6806152343749998
1.6653076171874999
0.0346435546875
0.1611328125
0.94423828125
1.1706298828125
1.748291015625
2.0069091796875
2.36865234375
3.0365478515624997
2.82626953125
2.4041015624999997
1.94970703125
1.7337890624999999
1.7096191406249999
1.6266357421875
1.65
1.622607421875
1.5073974609374998
1.6379150390625
1.47275390625
1.4993408203124998
1.4928955078125
2.4363281249999997
3.0389648437499996
2.2679443359375
1.95615234375
1.63388671875
1.3559326171875
0.6759521484375
0.030615234374999998
0.027392578124999997
0.21108398437499998
0.8016357421875
1.0973144531249999
1.24072265625
1.4276367187499999
1.5380126953125
1.5734619140625
1.7233154296875
1.625830078125
1.6975341796874999
1.662890625
1.6169677734374999
0.4406982421875
0.0314208984375
0.966796875
1.152099609375
1.5380126953125
2.0020751953125
2.3259521484375
3.0365478515624997
3.0147949218749996
2.3823486328125
2.0246337890625
1.8014648437499998
1.6773925781249999
1.619384765625
1.6218017578125
1.5589599609375
1.493701171875
1.4953124999999998
1.6024658203125
1.51787109375
1.4953124999999998
1.4953124999999998
3.0357421875
2.2905029296875
2.0173828124999997
1.6959228515625
1.4469726562499998
0.9812988281249999
0.023364257812499997
0.02900390625
0.169189453125
0.662255859375
1.1053710937499999
1.2383056640624999
1.3502929687499998
1.493701171875
1.5807128906249999
1.6000488281249998
1.7426513671875
1.7257324218749999
1.6765869140624998
1.6322753906249998
0.95390625
0.026586914062499998
0.8056640625
1.1512939453125
1.496923828125
1.6717529296875
2.0971435546875
3.0357421875
3.0357421875
2.5853759765624997
2.1035888671875
1.8949218749999999
1.7168701171874998
1.7015624999999999
1.6177734375
1.593603515625
1.5621826171875
1.4228027343749998
1.4888671875
1.43408203125
1.4622802734375
1.46630859375
3.0357421875
2.5853759765624997
2.080224609375
1.9110351562499999
1.5887695312499999
1.003857421875
0.030615234374999998
0.0249755859375
0.0298095703125
0.50595703125
0.8991210937499999
1.1706298828125
1.3229003906249999
1.4880615234374999
1.5404296874999999
1.6854492187499999
1.7168701171874998
1.6781982421875
1.6701416015625
1.638720703125
1.6048828124999999
0.0314208984375
0.734765625
1.0916748046875
1.1859374999999999
1.5718505859374998
2.035107421875
3.0357421875
3.0357421875
2.6594970703125
2.2171875
1.9440673828125
1.7080078125
1.687060546875
1.6524169921874998
1.6169677734374999
1.545263671875
1.4373046875
1.5670166015625
1.4703369140625
1.4783935546875
1.4574462890625
3.0365478515624997
2.715087890625
2.165625
2.0415527343749997
1.6121337890624998
1.22138671875
0.2956787109375
0.02578125
0.02900390625
0.3440185546875
0.7629638671875
1.11181640625
1.181103515625
1.4187744140624998
1.5509033203125
1.5919921874999998
1.7281494140625
1.7772949218749998
1.7104248046875
1.6910888671875
1.6379150390625
0.030615234374999998
0.2255859375
0.863671875
1.152099609375
1.719287109375
2.015771484375
3.0365478515624997
3.0325195312499997
2.8157958984375
2.4169921875
1.9779052734375
1.738623046875
1.6508056640625
1.5992431640625
1.6250244140624999
1.5235107421874998
1.4703369140625
1.6427490234375
1.4912841796874998
1.4840332031249999
1.4526123046875
3.0228515624999996
3.0357421875
2.222021484375
2.0826416015625
1.699951171875
1.2415283203124998
0.5228759765625
0.0298095703125
0.02900390625
0.26425781249999997
0.652587890625
0.95390625
1.106982421875
1.36962890625
1.477587890625
1.5895751953125
1.7337890624999999
1.5412353515625
1.7233154296875
1.6886718749999998
1.670947265625
0.02900390625
0.054785156249999994
0.7903564453124999
1.0094970703125
1.4147460937499998
2.0334960937499997
2.553955078125
3.0309082031249996
3.0172119140625
2.5628173828125
2.2034912109375
1.8949218749999999
1.7579589843749999
1.66611328125
1.67578125
1.6322753906249998
1.474365234375
1.3905761718749998
1.4187744140624998
1.4550292968749998
1.4397216796874999
2.7392578125
3.0349365234374996
2.470166015625
2.2365234375
1.85625
1.3994384765624999
0.8443359374999999
0.02900390625
0.0298095703125
0.0281982421875
0.39396972656249996
0.7541015624999999
0.9555175781249999
1.197216796875
1.4332763671875
1.5267333984375
1.6798095703125
1.5154541015624998
1.7313720703125
1.690283203125
1.66611328125
0.33515625
0.02900390625
0.6405029296875
0.8322509765624999
1.200439453125
1.5315673828124998
2.3912109375
3.0349365234374996
3.034130859375
2.8141845703125
2.357373046875
2.0826416015625
1.9142578124999998
1.819189453125
1.767626953125
1.7152587890625
1.480810546875
1.4300537109375
1.5436523437499998
1.4300537109375
1.456640625
1.4518066406249999
3.0333251953125
2.582958984375
2.3654296875
2.215576171875
1.6040771484374998
0.9466552734375
0.030615234374999998
0.0298095703125
0.033032226562499996
0.269091796875
0.5148193359375
0.8338623046875
1.0385009765625
1.2528076171875
1.40830078125
1.5678222656249998
1.76279296875
1.6693359374999999
1.7426513671875
1.72412109375
1.6822265625
0.02578125
0.5099853515625
0.7275146484374999
0.9031494140624999
1.4961181640624999
2.0568603515625
3.0357421875
3.0397705078125
2.9261718749999996
2.6659423828124997
2.29775390625
2.060888671875
1.9505126953124998
1.843359375
1.7337890624999999
1.5758789062499998
1.5114257812499998
1.606494140625
1.4977294921875
1.5025634765625
1.477587890625
3.037353515625
2.908447265625
2.4999755859375
2.2751953124999997
1.972265625
1.3639892578125
0.0298095703125
0.0314208984375
0.0298095703125
0.12568359375
0.49790039062499997
0.7323486328125
0.8403076171874999
1.2076904296875
1.37607421875
1.545263671875
1.7490966796874998
1.7007568359374998
1.7692382812499998
1.7418457031249999
1.6701416015625
0.02900390625
0.050756835937499994
0.7162353515625
0.829833984375
1.47275390625
2.0633056640625
3.034130859375
3.034130859375
3.037353515625
2.6055175781249997
2.3203125
2.1333984375
1.996435546875
1.8441650390625
1.8425537109374999
1.6781982421875
1.46953125
1.546875
1.4518066406249999
1.4091064453125
1.43408203125
3.0349365234374996
3.021240234375
2.4524414062499997
2.4298828125
1.8369140625
1.4364990234375
0.033837890625
0.0314208984375
0.02900390625
0.0708984375
0.34885253906249997
0.6010253906249999
0.7597412109374999
1.155322265625
1.276171875
1.6153564453125
1.699951171875
1.5976318359375
1.7217041015624999
1.7281494140625
1.6967285156249998
0.02900390625
0.022558593749999998
0.5768554687499999
0.8161376953124999
1.5807128906249999
1.931982421875
2.6240478515624996
3.0333251953125
3.0365478515624997
2.7674560546875
2.470166015625
2.1358154296875
2.0431640625
1.8570556640625
1.8377197265624998
1.7047851562499998
1.5202880859374999
1.6564453124999998
1.4195800781249999
1.43408203125
1.4308593749999998
3.0349365234374996
3.034130859375
2.6514404296875
2.4580810546875
1.973876953125
1.5009521484375
0.40927734374999997
0.02900390625
0.033032226562499996
0.02900390625
0.3029296875
0.5583251953125
0.6840087890625
1.0119140625
1.213330078125
1.397021484375
1.5331787109375
1.48564453125
1.7821289062499999
1.7716552734375
1.6967285156249998
0.0298095703125
0.0249755859375
0.38349609375
0.6348632812499999
1.039306640625
1.558154296875
2.5974609374999997
3.0309082031249996
3.0309082031249996
2.8633300781249997
2.5877929687499996
2.328369140625
2.1680419921875
1.90458984375
1.8498046874999998
1.7700439453124999
1.5750732421875
1.482421875
1.6330810546874999
1.4953124999999998
1.47275390625
1.4687255859375
3.0421875
2.70703125
2.5233398437499996
2.354150390625
1.6669189453125
0.990966796875
0.026586914062499998
0.033032226562499996
0.02900390625
0.167578125
0.37382812499999996
0.5671875
0.8483642578124999
1.0755615234375
1.2979248046874998
1.5041748046874999
1.674169921875
1.5428466796875
1.7748779296875
1.8014648437499998
1.7418457031249999
0.02900390625
0.4318359375
0.530126953125
0.9732421874999999
1.3792968749999999
2.118896484375
3.0357421875
3.0349365234374996
3.034130859375
2.7344238281249997
2.3662353515625
2.165625
2.070556640625
1.9625976562499998
1.85947265625
1.7797119140625
1.5073974609374998
1.61455078125
1.4195800781249999
1.4147460937499998
1.3857421875
3.0357421875
2.9455078125
2.53623046875
2.3404541015625
2.1245361328125
1.4042724609375
0.02900390625
0.0298095703125
0.0281982421875
0.1538818359375
0.33837890625
0.56396484375
0.6485595703125
1.0755615234375
1.3108154296874999
1.558154296875
1.7023681640625
1.6072998046875
1.77568359375
1.7652099609374998
1.6822265625
0.027392578124999997
0.030615234374999998
0.6324462890625
0.7927734375
1.400244140625
2.070556640625
3.0357421875
3.0357421875
3.0317138671875
2.6876953125
2.3904052734375
2.2244384765625
2.0262451171875
1.9311767578124999
1.7990478515625
1.611328125
1.442138671875
1.37607421875
1.4091064453125
1.4195800781249999
1.4389160156249998
3.0317138671875
3.0164062499999997
2.5152832031249996
2.47822265625
2.0214111328124997
1.34384765625
0.0837890625
0.0298095703125
0.0298095703125
0.038671874999999994
0.30051269531249997
0.594580078125
0.6662841796875
1.0610595703124999
1.2938964843749998
1.5380126953125
1.7595703125
1.7901855468749999
1.85625
1.7909912109375
1.7619873046874999
0.033032226562499996
0.02900390625
0.4189453125
0.64775390625
1.3575439453125
1.786962890625
2.7497314453125
3.0349365234374996
3.0357421875
2.8625244140625
2.53623046875
2.2921142578125
2.1728759765625
1.8900878906249998
1.8973388671875
1.7329833984374998
1.5573486328125
1.6814208984374999
1.4284423828125
1.416357421875
1.3849365234375
3.0349365234374996
3.0357421875
2.7521484375
2.5950439453125
1.944873046875
1.4574462890625
0.2795654296875
0.02900390625
0.0314208984375
0.0281982421875
0.1619384765625
0.362548828125
0.4793701171875
0.9112060546874999
1.1456542968749999
1.34384765625
1.62744140625
1.5621826171875
1.82080078125
1.8377197265624998
1.8071044921875
0.0298095703125
0.02900390625
0.4004150390625
0.6405029296875
1.03447265625
1.8667236328124999
2.848828125
3.0357421875
3.0357421875
2.9326171875
2.6699707031249997
2.42666015625
2.2228271484374997
2.075390625
1.9650146484375
1.8175781249999998
1.4816162109375
1.335791015625
1.4228027343749998
1.3382080078124998
1.33740234375
1.3414306640625
3.0349365234374996
2.745703125
2.599072265625
2.0471923828125
1.4864501953125
0.7532958984375
0.02900390625
0.02900390625
0.02900390625
0.1119873046875
0.39316406249999997
0.5712158203125
0.7855224609375
1.0836181640625
1.3551269531249999
1.6330810546874999
1.8788085937499999
1.7909912109375
1.812744140625
1.7926025390625
0.026586914062499998
0.0314208984375
0.48581542968749997
0.4962890625
1.087646484375
1.4510009765624998
2.2292724609375
3.0349365234374996
3.0357421875
3.0301025390625
2.6611083984375
2.3614013671875
2.125341796875
2.006103515625
1.8876708984375
1.7901855468749999
1.6201904296874998
1.3752685546874999
1.522705078125
1.3559326171875
1.38896484375
1.3736572265625
3.0357421875
2.9020019531249996
2.5177001953125
2.289697265625
2.0455810546874997
0.7734375
0.030615234374999998
0.0362548828125
0.0298095703125
0.1538818359375
0.3714111328125
0.575244140625
0.8225830078124999
1.074755859375
1.3043701171875
1.529150390625
1.812744140625
1.72412109375
1.8828369140624999
1.8659179687499998
1.7716552734375
0.027392578124999997
0.46164550781249997
0.6195556640625
0.849169921875
1.5621826171875
2.222021484375
3.0349365234374996
3.0365478515624997
3.0059326171875
2.7030029296875
2.418603515625
2.0898925781249997
1.9891845703125
1.828857421875
1.7370117187499998
1.5396240234374998
1.4252197265625
1.1964111328125
1.3390136718749999
1.3478759765625
1.3631835937499999
3.037353515625
2.9430908203125
2.5475097656249996
2.32998046875
2.05283203125
1.3309570312499999
0.02900390625
0.02900390625
0.030615234374999998
0.0314208984375
0.3585205078125
0.6187499999999999
0.7404052734375
1.1939941406249999
1.3712402343749999
1.5654052734375
1.8119384765625
1.7168701171874998
1.87236328125
1.8465820312499999
1.7660156249999999
0.0298095703125
0.030615234374999998
0.5905517578125
0.8306396484374999
1.41796875
1.9166748046875
3.034130859375
3.0333251953125
3.034130859375
2.69091796875
2.392822265625
2.1567626953125
2.0536376953124997
1.9078125
1.832080078125
1.6862548828125
1.4074951171874999
1.364794921875
1.377685546875
1.3301513671874998
1.3309570312499999
3.0365478515624997
3.034130859375
2.4999755859375
2.434716796875
1.796630859375
1.3736572265625
0.02900390625
0.027392578124999997
0.02900390625
0.0281982421875
0.301318359375
0.581689453125
0.6968994140625
1.1045654296875
1.3027587890624999
1.6910888671875
1.832080078125
1.84013671875
1.89169921875
1.8651123046875
1.7587646484375
0.02900390625
0.0298095703125
0.5349609375
0.784716796875
1.5782958984375
1.977099609375
2.7980712890625
3.0381591796875
3.034130859375
2.7577880859375
2.44921875
2.10439453125
2.015771484375
1.7877685546875
1.7208984374999998
1.5919921874999998
1.4461669921875
1.158544921875
1.361572265625
1.3825195312499998
1.3583496093749998
3.0365478515624997
3.034130859375
2.65869140625
2.4484130859374997
1.8788085937499999
1.3929931640625
0.6171386718749999
0.0281982421875
0.0298095703125
0.030615234374999998
0.26828613281249997
0.5865234375
0.7476562499999999
1.013525390625
1.3075927734375
1.4953124999999998
1.658056640625
1.6129394531249999
1.8699462890624998
1.8489990234375
1.8199951171875
0.0298095703125
0.0298095703125
0.5696044921875
0.7484619140625
1.1416259765624999
1.6822265625
2.7207275390624996
3.0357421875
3.0357421875
2.8560791015625
2.4758056640625
2.1865722656249997
1.9875732421874999
1.8006591796875
1.7474853515625
1.6363037109374998
1.4171630859375
1.3229003906249999
1.448583984375
1.3623779296874998
1.3631835937499999
1.3261230468749998
3.0381591796875
2.673193359375
2.5152832031249996
2.3178955078125
1.509814453125
0.8129150390625
0.0298095703125
0.0322265625
0.0281982421875
0.16677246093749998
0.36899414062499997
0.5679931640625
0.8193603515625
1.1384033203125
1.3656005859375
1.6749755859375
1.869140625
1.732177734375
1.8135498046874998
1.8111328125
1.74345703125
0.02900390625
0.372216796875
0.515625
0.8999267578125
1.5194824218749998
2.2921142578125
3.0357421875
3.037353515625
3.0365478515624997
2.745703125
2.3477050781249997
2.11083984375
1.9754882812499999
1.8755859375
1.7297607421874999
1.6250244140624999
1.400244140625
1.4832275390624998
1.2737548828124998
1.3083984375
1.3075927734375
3.034130859375
2.9769287109375
2.6200195312499996
2.3388427734375
2.0979492187499997
1.3317626953125
0.0281982421875
0.0322265625
0.02578125
0.1152099609375
0.33837890625
0.549462890625
0.6654785156249999
1.0691162109374999
1.2850341796875
1.5927978515624999
1.7507080078125
1.6653076171874999
1.864306640625
1.8538330078124998
1.7555419921875
0.027392578124999997
0.0322265625
0.502734375
0.6429199218749999
1.2238037109375
1.9907958984374998
3.0365478515624997
3.0357421875
3.0381591796875
2.8536621093749996
2.608740234375
2.3799316406249997
2.1221191406249997
1.9553466796874999
1.9198974609375
1.7055908203124999
1.5323730468749999
1.303564453125
1.4066894531249998
1.3341796874999998
1.3414306640625
3.034130859375
3.0349365234374996
2.70703125
2.695751953125
1.9754882812499999
1.448583984375
0.153076171875
0.030615234374999998
0.0281982421875
0.033837890625
0.15791015625
0.34965820312499996
0.4954833984375
0.9208740234374999
1.06669921875
1.3285400390625
1.58232421875
1.7692382812499998
1.8385253906249999
1.82724609375
1.7958251953125
0.02900390625
0.0281982421875
0.38591308593749996
0.5212646484375
1.2318603515625
1.6483886718749998
2.7255615234375
3.0349365234374996
3.034130859375
2.92294921875
2.69736328125
2.36865234375
2.270361328125
2.0093261718749997
1.9698486328125
1.8062988281249999
1.5637939453124998
1.5001464843749999
1.47275390625
1.3825195312499998
1.3865478515624998
3.0349365234374996
3.0357421875
2.8029052734374997
2.7166992187499996
2.0415527343749997
1.5355957031249998
0.28037109374999997
0.0281982421875
0.027392578124999997
0.027392578124999997
0.1458251953125
0.31340332031249996
0.3907470703125
0.79921875
0.9893554687499999
1.229443359375
1.52109375
1.5879638671874998
1.7772949218749998
1.8441650390625
1.84013671875
0.030615234374999998
0.026586914062499998
0.346435546875
0.5373779296875
0.928125
1.5460693359375
2.7384521484374997
3.037353515625
3.0357421875
2.9898193359375
2.7666503906249997
2.5257568359375
2.2880859375
2.09150390625
2.0560546875
1.9279541015625
1.5799072265624998
1.4228027343749998
1.4872558593749998
1.3736572265625
1.3382080078124998
1.3470703124999999
3.0381591796875
2.8238525390625
2.6941406249999997
2.4355224609375
1.6298583984375
0.829833984375
0.027392578124999997
0.0298095703125
0.0281982421875
0.040283203125
0.22075195312499998
0.4326416015625
0.6582275390625
0.9804931640625
1.2584472656249999
1.585546875
1.843359375
1.7418457031249999
1.85302734375
1.8151611328125
1.7619873046874999
0.030615234374999998
0.38510742187499997
0.37785644531249996
0.9740478515625
1.4679199218749999
2.180126953125
3.0349365234374996
3.0349365234374996
3.0365478515624997
2.827880859375
2.5515380859374996
2.321923828125
2.1954345703125
2.0085205078125
1.851416015625
1.6306640625
1.5218994140625
1.5275390624999998
1.3986328124999998
1.3817138671875
1.3551269531249999
3.0381591796875
3.027685546875
2.65546875
2.4629150390625
2.193017578125
1.3390136718749999
0.0298095703125
0.030615234374999998
0.026586914062499998
0.104736328125
0.2199462890625
0.41411132812499996
0.6469482421874999
0.9434326171874999
1.1625732421875
1.3792968749999999
1.73056640625
1.651611328125
1.8328857421875
1.867529296875
1.8143554687499999
0.0281982421875
0.0322265625
0.38591308593749996
0.588134765625
1.0546142578125
2.03671875
3.034130859375
3.0381591796875
3.0349365234374996
2.8431884765624997
2.6304931640625
2.4049072265625
2.2196044921875
2.0520263671875
2.006103515625
1.6604736328124998
1.5218994140625
1.2318603515625
1.3720458984375
1.3656005859375
1.364794921875
3.034130859375
3.034130859375
2.7263671874999997
2.6852783203125
2.2268554687499997
1.458251953125
0.02900390625
0.0298095703125
0.0298095703125
0.0281982421875
0.1554931640625
0.3150146484375
0.44150390624999997
0.9402099609375
1.1319580078125
1.3430419921874999
1.603271484375
1.85625
1.8538330078124998
1.867529296875
1.843359375
0.0322265625
0.033837890625
0.4519775390625
0.49387207031249997
1.2495849609374998
1.7378173828124999
2.8367431640625
3.0397705078125
3.0349365234374996
2.9841796874999997
2.6578857421874997
2.4242431640624997
2.2921142578125
2.0069091796875
2.0278564453125
1.8739746093749998
1.5791015625
1.380908203125
1.429248046875
1.3664062499999998
1.361572265625
3.0349365234374996
3.0357421875
2.792431640625
2.75537109375
2.00771484375
1.5807128906249999
0.0298095703125
0.02900390625
0.0298095703125
0.0298095703125
0.1458251953125
0.34160156249999996
0.43425292968749996
0.8507812499999999
1.0352783203125
1.29228515625
1.62744140625
1.67578125
1.7901855468749999
1.8256347656249998
1.8457763671874998
0.0298095703125
0.0298095703125
0.3794677734375
0.5824951171875
0.9659912109375
1.7313720703125
2.7207275390624996
3.0357421875
3.0381591796875
2.9269775390625
2.731201171875
2.5144775390625
2.2921142578125
2.047998046875
1.9352050781249999
1.78857421875
1.533984375
1.2624755859374999
1.3986328124999998
1.4010498046875
1.36962890625
1.3752685546874999
3.0349365234374996
2.7916259765625
2.6361328124999996
2.0560546875
1.5533203125
0.7734375
0.02578125
0.02900390625
0.033032226562499996
0.08217773437499999
0.30615234375
0.4447265625
0.7283203125
1.0078857421875
1.2262207031249999
1.4550292968749998
1.912646484375
1.7587646484375
1.8046875
1.8111328125
0.030615234374999998
0.02900390625
0.41330566406249997
0.3907470703125
0.9450439453124999
1.5114257812499998
2.3017822265625
3.034130859375
3.0357421875
3.034130859375
2.7247558593749996
2.5233398437499996
2.3259521484375
2.1720703125
2.0423583984375
1.9021728515624998
1.622607421875
1.3744628906249998
1.4711425781249998
1.340625
1.3728515625
1.3833251953124999
3.0365478515624997
2.9302001953124996
2.6224365234375
2.4242431640624997
2.1406494140625
0.8660888671875
0.0314208984375
0.030615234374999998
0.02900390625
0.056396484375
0.24814453125
0.4406982421875
0.678369140625
0.97646484375
1.15693359375
1.4671142578124998
1.72734375
1.641943359375
1.8151611328125
1.8014648437499998
1.7764892578125
0.0298095703125
0.40524902343749997
0.38671875
0.64453125
1.123095703125
2.241357421875
3.0365478515624997
3.0389648437499996
3.0405761718749997
2.8230468749999997
2.60712890625
2.39443359375
2.209130859375
2.083447265625
1.9617919921875
1.7450683593749998
1.4735595703125
1.2181640624999999
1.332568359375
1.3446533203125
1.351904296875
3.0357421875
3.0301025390625
2.682861328125
2.608740234375
2.18173828125
1.3921875
0.030615234374999998
0.02900390625
0.02900390625
0.0298095703125
0.167578125
0.407666015625
0.45358886718749997
0.929736328125
1.1110107421875
1.3430419921874999
1.64677734375
1.9142578124999998
1.8385253906249999
1.8586669921874999
1.8489990234375
0.026586914062499998
0.0298095703125
0.475341796875
0.6098876953125
1.1939941406249999
1.767626953125
3.0172119140625
3.034130859375
3.0357421875
2.9608154296875
2.6192138671875
2.3710693359375
2.2486083984375
1.9400390625
2.0133544921874997
1.8554443359375
1.603271484375
1.327734375
1.442138671875
1.3688232421875
1.3623779296874998
3.0357421875
3.0349365234374996
2.7779296875
2.7336181640625
2.0375244140624997
1.6201904296874998
0.14018554687499998
0.0298095703125
0.02578125
0.02578125
0.1248779296875
0.322265625
0.40524902343749997
0.839501953125
1.00546875
1.2366943359375
1.5927978515624999
1.803076171875
1.77890625
1.8538330078124998
1.8062988281249999
0.02900390625
0.0298095703125
0.38591308593749996
0.5567138671874999
1.1110107421875
1.7345947265625
2.856884765625
3.034130859375
3.0349365234374996
3.01318359375
2.7585937499999997
2.5064208984375
2.3340087890625
2.0085205078125
2.0560546875
1.899755859375
1.5968261718749999
1.3575439453125
1.3559326171875
1.397021484375
1.3430419921874999
1.480810546875
3.0365478515624997
2.8190185546874997
2.6876953125
2.4177978515625
1.577490234375
0.7549072265625
0.0281982421875
0.026586914062499998
0.033837890625
0.0314208984375
0.1740234375
0.330322265625
0.62841796875
0.9603515625
1.181103515625
1.4791992187499998
1.9215087890625
1.7176757812499999
1.8006591796875
1.7982421874999999
1.6927001953124998
0.0298095703125
0.38107910156249997
0.3150146484375
0.9394042968749999
1.6081054687499998
2.4169921875
3.0349365234374996
3.0365478515624997
3.0389648437499996
2.9334228515625
2.6401611328124996
2.410546875
2.254248046875
2.1358154296875
1.9940185546875
1.8570556640625
1.3172607421875
1.4034667968749999
1.340625
1.32451171875
1.3100097656249998
3.034130859375
3.0252685546875
2.7779296875
2.6683593749999996
2.34609375
1.0119140625
0.0314208984375
0.02900390625
0.030615234374999998
0.030615234374999998
0.033032226562499996
0.12568359375
0.29648437499999997
0.5679931640625
0.7903564453124999
1.058642578125
1.6298583984375
1.558154296875
1.72412109375
1.7853515624999998
1.7781005859374999
0.030615234374999998
0.2731201171875
0.246533203125
0.488232421875
0.910400390625
2.0471923828125
3.0357421875
3.0389648437499996
3.0317138671875
2.9463134765624996
2.7771240234374996
2.5410644531249997
2.4113525390625
2.2244384765625
2.209130859375
1.9070068359374999
1.716064453125
1.4228027343749998
1.5444580078124999
1.448583984375
1.3873535156249999
3.0357421875
3.0357421875
2.9076416015624997
2.89716796875
2.43955078125
1.5831298828125
0.0298095703125
0.0298095703125
0.030615234374999998
0.026586914062499998
0.0346435546875
0.198193359375
0.21591796875
0.6372802734374999
0.8483642578124999
1.052197265625
1.3905761718749998
1.464697265625
1.722509765625
1.8006591796875
1.7934082031249998
0.0298095703125
0.0281982421875
0.2956787109375
0.4189453125
0.9571289062499999
1.5275390624999998
3.0349365234374996
3.0325195312499997
3.0405761718749997
3.0333251953125
2.8899169921874996
2.7328124999999996
2.7110595703125
2.4814453125
2.3694580078125
2.1680419921875
1.791796875
1.429248046875
1.5597656249999998
1.4703369140625
1.3639892578125
3.034130859375
3.0357421875
2.8947509765625
2.9849853515625
2.2776123046875
1.7039794921875
0.022558593749999998
0.0322265625
0.0298095703125
0.024169921875
0.030615234374999998
0.091845703125
0.1538818359375
0.56396484375
0.7114013671874999
0.9571289062499999
1.3148437499999999
1.64677734375
1.6153564453125
1.7362060546875
1.7450683593749998
0.0314208984375
0.030615234374999998
0.2038330078125
0.3311279296875
0.8209716796875
1.6121337890624998
2.73603515625
3.0381591796875
3.0349365234374996
3.0349365234374996
3.0156005859375
2.7642333984375
2.6433837890625
2.36220703125
2.37509765625
2.12373046875
1.8135498046874998
1.5090087890625
1.538818359375
1.4058837890625
1.4219970703125
3.037353515625
3.0381591796875
2.9326171875
2.89072265625
2.2679443359375
1.843359375
0.889453125
0.0322265625
0.02578125
0.0298095703125
0.02900390625
0.0749267578125
0.111181640625
0.330322265625
0.6195556640625
0.8910644531249999
1.2205810546875
1.4493896484375
1.6105224609375
1.754736328125
1.786962890625
0.02578125
0.023364257812499997
0.27392578125
0.42619628906249996
0.8201660156249999
1.4880615234374999
2.83271484375
3.0325195312499997
3.037353515625
3.0389648437499996
2.9519531249999997
2.7416748046875
2.5869873046875
2.350927734375
2.3066162109375
2.1068115234375
1.796630859375
1.458251953125
1.5355957031249998
1.482421875
1.3736572265625
1.3390136718749999
3.0349365234374996
3.005126953125
2.874609375
2.7142822265624997
1.8578613281249998
0.9837158203124999
0.033837890625
0.030615234374999998
0.030615234374999998
0.02900390625
0.02900390625
0.075732421875
0.2054443359375
0.4833984375
0.67998046875
1.0731445312499999
1.5734619140625
1.4993408203124998
1.6620849609375
1.703173828125
1.6959228515625
0.02900390625
0.06606445312499999
0.02900390625
0.2972900390625
1.1754638671875
1.9916015624999999
3.037353515625
3.0357421875
3.0357421875
3.0365478515624997
2.9358398437499997
2.8270751953124997
2.7191162109375
2.5233398437499996
2.3557617187499997
1.960986328125
1.748291015625
1.6894775390624999
1.3929931640625
1.3317626953125
1.2511962890625
3.0397705078125
3.034130859375
3.0317138671875
2.977734375
2.642578125
1.72412109375
0.030615234374999998
0.02900390625
0.0298095703125
0.0298095703125
0.02900390625
0.02900390625
0.02900390625
0.339990234375
0.5631591796875
0.9087890624999999
1.2439453125
1.2141357421874999
1.5041748046874999
1.6427490234375
1.6894775390624999
0.0281982421875
0.030615234374999998
0.027392578124999997
0.1297119140625
0.5873291015625
1.4139404296875
3.0397705078125
3.0357421875
3.0365478515624997
3.0349365234374996
3.037353515625
2.972900390625
2.9342285156249996
2.811767578125
2.695751953125
2.4741943359375
1.9650146484375
1.4236083984374999
1.6185791015625
1.3833251953124999
1.2987304687499999
3.0357421875
3.0365478515624997
3.0397705078125
3.0349365234374996
2.45888671875
1.82080078125
0.02900390625
0.0314208984375
0.02900390625
0.02900390625
0.0298095703125
0.0281982421875
0.030615234374999998
0.38913574218749997
0.3955810546875
0.7097900390624999
1.087646484375
1.5879638671874998
1.5347900390625
1.6959228515625
1.7603759765625
0.0298095703125
0.02578125
0.0281982421875
0.06767578125
0.7484619140625
1.384130859375
2.7368408203124996
3.034130859375
3.0349365234374996
3.034130859375
3.0397705078125
2.9559814453124997
2.9398681640624997
2.6458007812499997
2.6691650390625
2.3960449218749997
2.1680419921875
1.67900390625
1.7893798828124998
1.6121337890624998
1.4953124999999998
3.0365478515624997
3.0357421875
3.0357421875
3.0357421875
2.4564697265624997
2.00771484375
0.1941650390625
0.030615234374999998
0.0322265625
0.0322265625
0.0322265625
0.02900390625
0.02900390625
0.233642578125
0.33676757812499997
0.5679931640625
0.8918701171875
1.2930908203125
1.3704345703124998
1.5758789062499998
1.6967285156249998
0.0298095703125
0.027392578124999997
0.030615234374999998
0.1168212890625
0.47453613281249996
1.27294921875
2.6361328124999996
3.0357421875
3.0357421875
3.0357421875
3.0357421875
3.0010986328125
2.9656494140625
2.8472167968749997
2.7827636718749997
2.599072265625
2.204296875
1.770849609375
1.767626953125
1.64677734375
1.5122314453124999
1.51787109375
3.0381591796875
3.0381591796875
3.037353515625
2.874609375
2.07216796875
1.1609619140625
0.0298095703125
0.0298095703125
0.0281982421875
0.0298095703125
0.030615234374999998
0.0322265625
0.091845703125
0.35690917968749997
0.5768554687499999
0.9176513671875
1.4977294921875
1.4203857421875
1.5509033203125
1.6411376953124999
1.638720703125
0.02900390625
0.0298095703125
0.02900390625
0.20302734374999998
1.0433349609375
1.9714599609374999
3.0365478515624997
3.0397705078125
3.0325195312499997
3.0357421875
3.034130859375
2.9672607421875
2.9769287109375
2.8657470703124996
2.760205078125
2.534619140625
2.1213134765625
1.8256347656249998
1.6508056640625
1.4953124999999998
1.351904296875
3.037353515625
3.0381591796875
3.0357421875
2.9801513671874997
2.6860839843749997
1.7829345703125
0.0298095703125
0.0322265625
0.0298095703125
0.0298095703125
0.02900390625
0.030615234374999998
0.033837890625
0.2135009765625
0.32145996093749996
0.5365722656249999
1.173046875
1.181103515625
1.448583984375
1.6081054687499998
1.6701416015625
0.02900390625
0.030615234374999998
0.0314208984375
0.07412109374999999
0.39638671875
1.3011474609375
3.0389648437499996
3.0365478515624997
3.0357421875
3.0349365234374996
3.0357421875
3.037353515625
2.995458984375
2.9100585937499996
2.9100585937499996
2.5894042968749997
2.260693359375
1.770849609375
1.8699462890624998
1.622607421875
1.4598632812499999
3.0357421875
3.0365478515624997
3.0357421875
3.0365478515624997
2.5628173828125
1.8667236328124999
0.02900390625
0.0298095703125
0.026586914062499998
0.02900390625
0.0281982421875
0.02900390625
0.030615234374999998
0.033837890625
0.027392578124999997
0.0298095703125
0.0298095703125
0.2022216796875
0.0555908203125
0.072509765625
0.0515625
0.0281982421875
0.0298095703125
0.02900390625
0.026586914062499998
0.0314208984375
0.027392578124999997
0.027392578124999997
1.5968261718749999
2.9124755859375
3.0365478515624997
3.037353515625
3.0413818359375
3.034130859375
3.0317138671875
3.037353515625
3.037353515625
3.0325195312499997
3.0333251953125
3.034130859375
3.0333251953125
3.0067382812499996
3.0389648437499996
3.0349365234374996
3.0365478515624997
3.0357421875
3.0333251953125
3.034130859375
3.0156005859375
0.5518798828125
0.02900390625
0.030615234374999998
0.0298095703125
0.0314208984375
0.0314208984375
0.0298095703125
0.0298095703125
0.0298095703125
0.027392578124999997
0.02900390625
0.02578125
0.0298095703125
0.038671874999999994
0.0298095703125
0.02900390625
0.0298095703125
0.033837890625
0.026586914062499998
0.030615234374999998
0.0298095703125
0.0314208984375
2.093115234375
2.9422851562499996
3.0301025390625
3.0301025390625
3.0397705078125
3.0381591796875
3.0365478515624997
3.0349365234374996
3.0389648437499996
2.866552734375
3.034130859375
3.0309082031249996
3.0309082031249996
3.034130859375
3.0357421875
3.0325195312499997
3.0381591796875
3.0357421875
3.0333251953125
3.0357421875
1.2157470703125
0.02900390625
0.0298095703125
0.0314208984375
0.0314208984375
0.030615234374999998
0.0322265625
0.030615234374999998
0.0314208984375
0.0281982421875
0.362548828125
0.026586914062499998
0.0322265625
0.046728515624999994
0.0298095703125
0.026586914062499998
0.0298095703125
0.0322265625
0.02900390625
0.0281982421875
0.02900390625
0.0314208984375
1.5460693359375
2.8713867187499997
3.0349365234374996
3.0357421875
3.037353515625
3.0381591796875
3.0365478515624997
3.0220458984375
3.034130859375
3.034130859375
3.0365478515624997
3.0389648437499996
3.037353515625
3.034130859375
3.0301025390625
3.034130859375
3.037353515625
3.037353515625
3.0381591796875
3.034130859375
1.3607666015625
0.2827880859375
0.0322265625
0.030615234374999998
0.0322265625
0.0298095703125
0.02900390625
0.0298095703125
0.0281982421875
0.0314208984375
0.0298095703125
0.07734374999999999
0.0459228515625
0.0555908203125
0.030615234374999998
0.0298095703125
0.0298095703125
0.030615234374999998
0.0298095703125
0.033032226562499996
0.0298095703125
0.030615234374999998
1.168212890625
2.489501953125
3.0349365234374996
3.034130859375
3.0333251953125
3.034130859375
3.0317138671875
3.037353515625
3.0365478515624997
3.0357421875
3.037353515625
3.0333251953125
3.0333251953125
3.034130859375
3.0309082031249996
3.0365478515624997
3.034130859375
3.034130859375
3.0381591796875
3.0244628906249997
2.72958984375
0.5003173828124999
0.0281982421875
0.0298095703125
0.0298095703125
0.0298095703125
0.0314208984375
0.0298095703125
0.0281982421875
0.0322265625
0.0298095703125
0.04189453125
0.02900390625
0.0298095703125
0.02578125
0.030615234374999998
0.027392578124999997
0.0281982421875
0.0298095703125
0.0281982421875
0.02900390625
0.030615234374999998
0.030615234374999998
1.9062011718749998
2.7408691406249996
3.0365478515624997
3.034130859375
3.034130859375
3.0413818359375
3.037353515625
3.0357421875
3.0349365234374996
3.0365478515624997
3.0349365234374996
3.0397705078125
3.0365478515624997
3.0333251953125
3.0357421875
3.0357421875
3.0349365234374996
3.0333251953125
3.0365478515624997
3.0365478515624997
1.229443359375
0.02900390625
0.02900390625
0.02900390625
0.030615234374999998
0.030615234374999998
0.030615234374999998
0.02900390625
0.0298095703125
0.0298095703125
0.02900390625
0.0765380859375
0.04189453125
0.030615234374999998
0.02900390625
0.02900390625
0.027392578124999997
0.0298095703125
0.024169921875
0.02900390625
0.030615234374999998
0.026586914062499998
1.5331787109375
2.874609375
3.0357421875
3.037353515625
3.0333251953125
3.034130859375
3.0357421875
3.034130859375
3.0349365234374996
3.0349365234374996
3.0333251953125
3.0365478515624997
3.0333251953125
3.0357421875
3.0349365234374996
3.0357421875
3.034130859375
3.0333251953125
3.034130859375
3.034130859375
1.393798828125
0.0298095703125
0.0281982421875
0.030615234374999998
0.02900390625
0.02900390625
0.02900390625
0.030615234374999998
0.0322265625
0.0298095703125
0.02900390625
0.02900390625
0.033032226562499996
0.0322265625
0.0322265625
0.0298095703125
0.02900390625
0.02900390625
0.0298095703125
0.02900390625
0.030615234374999998
0.0249755859375
1.1448486328125
2.3630126953125
2.956787109375
3.0357421875
3.034130859375
3.0405761718749997
3.0309082031249996
3.0357421875
3.037353515625
3.0357421875
3.0333251953125
3.0357421875
3.0357421875
3.0333251953125
3.0389648437499996
3.034130859375
3.034130859375
3.0357421875
3.0325195312499997
3.0349365234374996
2.5265625
0.3714111328125
0.0281982421875
0.0298095703125
0.0298095703125
0.0281982421875
0.0298095703125
0.02900390625
0.0314208984375
0.0281982421875
0.027392578124999997
0.033032226562499996
0.027392578124999997
0.0298095703125
0.02900390625
0.0298095703125
0.0298095703125
0.027392578124999997
0.0298095703125
0.030615234374999998
0.026586914062499998
0.027392578124999997
0.030615234374999998
1.6371093749999999
2.513671875
3.037353515625
3.0357421875
3.0349365234374996
3.0421875
3.037353515625
3.0357421875
3.0357421875
3.0397705078125
3.0333251953125
3.0333251953125
3.0325195312499997
3.0349365234374996
3.0333251953125
3.0389648437499996
3.034130859375
3.0349365234374996
3.0317138671875
2.921337890625
1.05380859375
0.02900390625
0.02900390625
0.0298095703125
0.0298095703125
0.033032226562499996
0.0314208984375
0.0281982421875
0.026586914062499998
0.02900390625
0.0298095703125
0.02900390625
0.0298095703125
0.0281982421875
0.0298095703125
0.023364257812499997
0.02900390625
0.030615234374999998
0.02578125
0.033032226562499996
0.0281982421875
0.0314208984375
1.4800048828124999
2.784375
3.0357421875
3.0325195312499997
3.0333251953125
3.0389648437499996
3.0349365234374996
3.0421875
3.0357421875
3.034130859375
3.0349365234374996
3.034130859375
3.0365478515624997
3.0317138671875
3.034130859375
3.037353515625
3.034130859375
3.034130859375
3.034130859375
3.0325195312499997
1.2640869140625
0.0314208984375
0.030615234374999998
0.030615234374999998
0.033032226562499996
0.0281982421875
0.02578125
0.033032226562499996
0.0322265625
0.0298095703125
0.0298095703125
0.02900390625
0.0298095703125
0.03544921875
0.02900390625
0.033837890625
0.02900390625
0.02900390625
0.027392578124999997
0.0298095703125
0.0314208984375
0.02900390625
1.3059814453124998
2.3936279296875
3.0333251953125
3.0317138671875
3.0357421875
3.037353515625
3.0357421875
3.0357421875
3.0365478515624997
3.0357421875
3.034130859375
3.034130859375
3.0349365234374996
3.0284912109374997
3.0357421875
3.0357421875
3.0325195312499997
3.034130859375
3.0357421875
3.037353515625
1.641943359375
0.1353515625
0.0281982421875
0.0298095703125
0.033032226562499996
0.0322265625
0.0281982421875
0.0281982421875
0.0249755859375
0.024169921875
0.02900390625
0.02900390625
0.0298095703125
0.0298095703125
0.033032226562499996
0.030615234374999998
0.030615234374999998
0.0281982421875
0.0281982421875
0.026586914062499998
0.0314208984375
0.0281982421875
0.02578125
1.7700439453124999
2.784375
3.0309082031249996
3.0365478515624997
3.0349365234374996
3.0365478515624997
3.0317138671875
3.0405761718749997
3.034130859375
3.0349365234374996
3.0325195312499997
3.034130859375
3.034130859375
3.0365478515624997
3.0357421875
3.0365478515624997
3.0365478515624997
3.0357421875
3.0357421875
3.0357421875
3.0349365234374996
3.034130859375
3.0357421875
3.0357421875
3.0357421875
3.0357421875
3.0381591796875
3.0389648437499996
3.034130859375
3.0365478515624997
3.0381591796875
3.0325195312499997
3.0349365234374996
3.034130859375
3.0357421875
2.8818603515624996
3.0357421875
3.0349365234374996
3.0365478515624997
3.037353515625
3.0365478515624997
3.0357421875
3.0349365234374996
3.0325195312499997
2.905224609375
2.386376953125
2.1333984375
1.7289550781249998
1.3736572265625
0.9192626953124999
0.594580078125
0.19094238281249998
0.18288574218749998
0.058813476562499994
0.026586914062499998
2.55234375
3.034130859375
3.0164062499999997
2.7730957031249996
2.1301757812499997
1.2447509765625
0.1426025390625
0.02900390625
0.0298095703125
0.02900390625
0.0298095703125
0.027392578124999997
0.0322265625
0.10957031249999999
0.3262939453125
0.49064941406249996
0.81533203125
0.5768554687499999
1.1416259765624999
1.2503906249999999
1.29228515625
0.030615234374999998
0.02900390625
0.02900390625
0.2022216796875
0.6123046875
1.3027587890624999
2.4516357421875
3.0357421875
3.0381591796875
3.037353515625
2.6619140624999997
2.3074218749999997
1.8981445312499998
1.5412353515625
1.364794921875
1.2028564453125
0.9772705078124999
0.5929687499999999
0.8177490234375
0.5687988281249999
0.588134765625
0.58330078125
3.0389648437499996
3.037353515625
2.8512451171874997
2.6441894531249996
2.2405517578125
0.6195556640625
0.02900390625
0.0298095703125
0.0298095703125
0.02900390625
0.0298095703125
0.1087646484375
0.246533203125
0.48178710937499997
0.6735351562499999
1.11826171875
1.3478759765625
1.271337890625
1.6572509765624999
1.7055908203124999
1.6951171875
0.02578125
0.030615234374999998
0.3279052734375
0.565576171875
1.384130859375
2.3340087890625
3.0349365234374996
3.0365478515624997
3.0357421875
2.9463134765624996
2.6739990234374997
2.31064453125
2.0939208984374997
1.9263427734374998
1.6862548828125
1.496923828125
1.1674072265625
0.8805908203124999
0.9635742187499999
0.9402099609375
0.9611572265624999
3.0389648437499996
3.034130859375
2.921337890625
2.81015625
2.4613037109375
1.4501953125
0.030615234374999998
0.033032226562499996
0.0298095703125
0.0298095703125
0.053173828124999996
0.19658203124999998
0.182080078125
0.6405029296875
1.0006347656249999
1.2850341796875
1.6749755859375
1.7740722656249999
2.128564453125
2.1615966796875
2.083447265625
0.0322265625
0.02900390625
0.120849609375
0.37382812499999996
1.106982421875
1.7829345703125
3.0357421875
3.0349365234374996
3.034130859375
3.0325195312499997
2.7247558593749996
2.447607421875
2.2760009765625
2.0326904296875
1.861083984375
1.5799072265624998
1.3470703124999999
1.197216796875
1.2093017578125
1.0634765625
1.0320556640625
3.0357421875
3.0381591796875
2.9358398437499997
2.9737060546875
2.2429687499999997
1.609716796875
0.027392578124999997
0.02900390625
0.02900390625
0.0281982421875
0.026586914062499998
0.057202148437499996
0.0708984375
0.48662109374999996
0.6815917968749999
1.019970703125
1.4671142578124998
1.5460693359375
1.76279296875
1.9142578124999998
1.941650390625
0.030615234374999998
0.0314208984375
0.10634765624999999
0.40605468749999996
0.8660888671875
1.9021728515624998
3.0349365234374996
3.0365478515624997
3.0349365234374996
3.034130859375
2.98095703125
2.6852783203125
2.4886962890624997
2.2824462890625
2.1841552734375
1.899755859375
1.5565429687499999
1.1408203125
1.1923828125
1.0884521484375
1.044140625
3.0365478515624997
3.0365478515624997
3.0357421875
2.9237548828124997
2.42666015625
1.7370117187499998
0.768603515625
0.0281982421875
0.0298095703125
0.026586914062499998
0.027392578124999997
0.111181640625
0.16274414062499998
0.41411132812499996
0.8515869140625
1.1456542968749999
1.5331787109375
1.9634033203124999
1.98193359375
2.1462890624999997
2.1793212890625
0.0314208984375
0.0298095703125
0.0314208984375
0.2553955078125
0.7677978515624999
1.4010498046875
2.4202148437499997
3.0357421875
3.037353515625
3.0349365234374996
2.985791015625
2.711865234375
2.4774169921875
2.2236328125
2.05283203125
1.9102294921874998
1.7080078125
1.2511962890625
1.329345703125
1.0304443359375
0.9796874999999999
0.95068359375
3.0357421875
3.0349365234374996
2.924560546875
2.7046142578124996
2.3646240234375
0.6856201171874999
0.033032226562499996
0.02578125
0.0298095703125
0.027392578124999997
0.0958740234375
0.18852539062499998
0.407666015625
0.7484619140625
1.023193359375
1.6121337890624998
2.04638671875
2.0117431640625
2.4613037109375
2.5201171875
2.46533203125
0.0298095703125
0.033032226562499996
0.5357666015625
1.1287353515625
2.099560546875
2.9986816406249996
3.034130859375
3.0381591796875
3.0365478515624997
2.9261718749999996
2.60068359375
2.1438720703125
1.957763671875
1.7466796875
1.4115234374999999
1.0497802734375
0.9611572265624999
0.4842041015625
1.213330078125
1.384130859375
1.5565429687499999
3.0325195312499997
3.029296875
3.0365478515624997
3.0381591796875
3.037353515625
3.0349365234374996
1.7080078125
0.0322265625
0.0314208984375
0.030615234374999998
0.0298095703125
0.0298095703125
0.02900390625
0.0298095703125
0.0298095703125
0.02900390625
0.02900390625
0.02900390625
0.10554199218749999
0.116015625
0.1377685546875
0.030615234374999998
0.0298095703125
0.0322265625
0.0298095703125
0.0298095703125
0.02900390625
0.02900390625
1.5364013671874999
2.8222412109375
3.0389648437499996
3.0389648437499996
3.034130859375
3.0381591796875
3.0357421875
3.0325195312499997
3.034130859375
3.0365478515624997
3.0309082031249996
3.0325195312499997
3.0083496093749997
2.956787109375
3.0357421875
3.034130859375
3.0381591796875
3.0365478515624997
3.034130859375
3.0349365234374996
1.5573486328125
0.4004150390625
0.0322265625
0.0298095703125
0.0298095703125
0.02900390625
0.0281982421875
0.023364257812499997
0.0298095703125
0.02900390625
0.0314208984375
0.0281982421875
0.043505859375
0.13615722656249998
0.175634765625
0.02900390625
0.030615234374999998
0.0314208984375
0.0322265625
0.02900390625
0.02900390625
0.0322265625
1.5807128906249999
2.5531494140624997
3.0309082031249996
3.0357421875
3.0333251953125
3.037353515625
3.037353515625
3.0357421875
3.0317138671875
3.0357421875
2.80048828125
3.034130859375
2.9865966796874996
2.9753173828125
2.9656494140625
3.0357421875
3.0357421875
3.0357421875
3.0333251953125
3.0357421875
1.9529296875
1.3341796874999998
0.030615234374999998
0.0298095703125
0.02900390625
0.033837890625
0.033032226562499996
0.02900390625
0.0281982421875
0.030615234374999998
0.0298095703125
0.36174316406249996
0.054785156249999994
0.2118896484375
0.2255859375
0.041088867187499996
0.02900390625
0.02900390625
0.02900390625
0.02900390625
0.02578125
0.026586914062499998
2.01416015625
2.9970703125
3.034130859375
3.0365478515624997
3.0357421875
3.034130859375
3.0357421875
3.037353515625
3.0357421875
3.034130859375
3.0333251953125
3.0357421875
2.9817626953125
2.9463134765624996
2.9181152343749996
3.0389648437499996
3.037353515625
3.0357421875
3.0333251953125
3.0357421875
3.037353515625
1.5404296874999999
0.02900390625
0.030615234374999998
0.02900390625
0.0298095703125
0.024169921875
0.0314208984375
0.02900390625
0.0314208984375
0.026586914062499998
0.0281982421875
0.0314208984375
0.10151367187499999
0.0523681640625
0.030615234374999998
0.02900390625
0.023364257812499997
0.0298095703125
0.0314208984375
0.0298095703125
0.0298095703125
1.609716796875
2.4685546874999997
3.0365478515624997
3.0413818359375
3.0325195312499997
3.0349365234374996
3.037353515625
3.0333251953125
3.0317138671875
3.0365478515624997
2.995458984375
2.7134765625
2.9277832031249997
2.8560791015625
2.7771240234374996
3.0357421875
3.0349365234374996
3.0357421875
3.037353515625
3.037353515625
2.6353271484375
2.5571777343749997
0.3021240234375
0.030615234374999998
0.027392578124999997
0.0281982421875
0.0298095703125
0.0298095703125
0.02900390625
0.030615234374999998
0.02900390625
0.02900390625
0.033837890625
0.02900390625
0.2215576171875
0.3198486328125
0.030615234374999998
0.02900390625
0.0298095703125
0.030615234374999998
0.0298095703125
0.02900390625
0.033032226562499996
2.1922119140625
3.0365478515624997
3.0365478515624997
3.037353515625
3.0349365234374996
3.0349365234374996
3.0357421875
3.0381591796875
3.0405761718749997
3.0357421875
3.0317138671875
2.9503417968749996
2.8633300781249997
2.8238525390625
3.0357421875
3.0357421875
3.0333251953125
3.034130859375
3.0357421875
3.034130859375
3.0365478515624997
0.4439208984375
0.026586914062499998
0.02900390625
0.0281982421875
0.026586914062499998
0.0322265625
0.026586914062499998
0.030615234374999998
0.0298095703125
0.030615234374999998
0.30051269531249997
0.0523681640625
0.16032714843749998
0.133740234375
0.0322265625
0.02900390625
0.0298095703125
0.02900390625
0.0298095703125
0.0298095703125
0.030615234374999998
0.9434326171874999
2.45888671875
3.0381591796875
3.037353515625
3.0365478515624997
3.0365478515624997
3.0333251953125
3.0349365234374996
3.0333251953125
3.0333251953125
2.6917236328125
3.0164062499999997
2.95517578125
2.9358398437499997
2.9592041015625
3.0357421875
3.0381591796875
3.0357421875
3.0349365234374996
3.034130859375
3.0365478515624997
0.863671875
0.030615234374999998
0.0298095703125
0.0322265625
0.0298095703125
0.0298095703125
0.026586914062499998
0.0322265625
0.033837890625
0.02900390625
0.4068603515625
0.030615234374999998
0.054785156249999994
0.0926513671875
0.07734374999999999
0.030615234374999998
0.0298095703125
0.0322265625
0.0314208984375
0.0314208984375
0.0298095703125
0.02900390625
1.329345703125
2.5531494140624997
3.034130859375
3.0389648437499996
3.0333251953125
3.0357421875
3.0357421875
3.0357421875
3.0333251953125
3.0357421875
3.001904296875
3.0325195312499997
3.0333251953125
2.9946533203124996
3.0357421875
3.0357421875
3.0365478515624997
3.0349365234374996
3.0325195312499997
3.0381591796875
1.5404296874999999
0.0298095703125
0.0298095703125
0.0298095703125
0.0281982421875
0.030615234374999998
0.02900390625
0.02900390625
0.02900390625
0.02900390625
0.02900390625
0.0717041015625
0.02578125
0.02900390625
0.02900390625
0.03544921875
0.0281982421875
0.02578125
0.030615234374999998
0.02900390625
0.0298095703125
0.0314208984375
0.0281982421875
2.26875
3.0156005859375
3.0365478515624997
3.0365478515624997
3.034130859375
3.0357421875
3.034130859375
3.0357421875
3.0413818359375
3.0381591796875
3.0333251953125
3.0325195312499997
2.9906249999999996
3.0357421875
3.0365478515624997
3.0349365234374996
3.0325195312499997
3.0365478515624997
3.0365478515624997
1.7281494140625
0.19497070312499998
0.02900390625
0.027392578124999997
0.0298095703125
0.0314208984375
0.0298095703125
0.024169921875
0.0298095703125
0.02900390625
0.027392578124999997
0.0322265625
0.027392578124999997
0.0314208984375
0.0298095703125
0.030615234374999998
0.02900390625
0.030615234374999998
0.02900390625
0.02900390625
0.0281982421875
0.0281982421875
0.026586914062499998
1.8981445312499998
2.8294921874999996
3.034130859375
3.0389648437499996
3.037353515625
3.034130859375
3.0397705078125
3.0381591796875
3.0357421875
3.0333251953125
3.0325195312499997
3.0357421875
3.037353515625
3.0365478515624997
3.0357421875
3.0357421875
3.0349365234374996
3.0349365234374996
3.0357421875
3.0349365234374996
0.837890625
0.0281982421875
0.026586914062499998
0.0298095703125
0.026586914062499998
3.0325195312499997
3.0381591796875
3.0357421875
3.029296875
3.0365478515624997
3.0365478515624997
3.0357421875
3.034130859375
3.034130859375
3.0365478515624997
3.034130859375
3.0357421875
3.0357421875
3.034130859375
3.0357421875
3.0349365234374996
3.0333251953125
3.0325195312499997
3.0349365234374996
3.037353515625
2.827880859375
2.5015869140625
2.3203125
2.075390625
1.7668212890625
1.45341796875
0.994189453125
1.0207763671874999
0.5841064453125
0.4833984375
0.38349609375
3.0349365234374996
2.882666015625
2.59423828125
2.0230224609375
1.2374999999999998
0.0958740234375
0.0298095703125
0.0298095703125
0.030615234374999998
0.0281982421875
0.095068359375
0.19255371093749998
0.2860107421875
0.4568115234375
0.7234863281249999
1.04736328125
1.239111328125
1.5041748046874999
1.4993408203124998
1.6508056640625
1.590380859375
0.02900390625
0.027392578124999997
0.5067626953125
0.7597412109374999
1.1158447265625
2.302587890625
3.0333251953125
3.0349365234374996
3.0357421875
2.6466064453125
2.0455810546874997
1.6395263671875
1.3583496093749998
1.0594482421875
0.9385986328125
0.742822265625
0.49306640625
0.3472412109375
0.4962890625
0.60263671875
0.726708984375
3.0357421875
3.037353515625
2.753759765625
2.4983642578125
1.8957275390625
1.1053710937499999
0.030615234374999998
0.0298095703125
0.0314208984375
0.0298095703125
0.18046874999999998
0.39799804687499996
0.46567382812499997
0.9732421874999999
1.2020507812499999
1.4655029296875
1.8941162109374998
2.1712646484375
2.0616943359374997
2.04638671875
1.9118408203125
0.02900390625
0.0298095703125
0.530126953125
0.6243896484375
1.5380126953125
1.973876953125
3.034130859375
3.0357421875
3.0381591796875
2.8037109375
2.5233398437499996
2.2373291015625
2.0133544921874997
1.69833984375
1.6532226562499999
1.4107177734374998
1.2374999999999998
1.5243164062499999
1.126318359375
1.1174560546874999
1.1883544921875
3.034130859375
3.0405761718749997
2.663525390625
2.6039062499999996
1.851416015625
1.2834228515625
0.09426269531249999
0.030615234374999998
0.0281982421875
0.027392578124999997
0.13212890624999998
0.39316406249999997
0.436669921875
0.8403076171874999
1.023193359375
1.3253173828125
1.619384765625
1.4123291015625
1.8618896484374998
1.912646484375
1.9102294921874998
0.030615234374999998
0.0298095703125
0.2908447265625
0.5776611328125
1.3873535156249999
1.93681640625
2.860107421875
