3.0357421875
3.0381591796875
2.4774169921875
3.0357421875
1.98193359375
1.5782958984375
0.5091796875
0.0314208984375
0.02578125
0.0298095703125
0.346435546875
0.5357666015625
0.6308349609374999
0.9547119140625
1.1077880859375
1.2665039062499999
1.51787109375
1.2616699218749998
1.6218017578125
1.6604736328124998
1.6250244140624999
0.02900390625
0.02900390625
0.69609375
0.5357666015625
1.4493896484375
1.6636962890625
2.4548583984375
3.037353515625
3.0357421875
2.86494140625
2.56201171875
2.247802734375
2.1213134765625
2.028662109375
1.9988525390624998
1.8635009765625
1.670947265625
1.909423828125
1.4606689453125
1.5589599609375
1.5275390624999998
2.860107421875
3.0357421875
2.69736328125
2.92939453125
2.228466796875
1.7507080078125
0.6211669921874999
0.0298095703125
0.030615234374999998
0.033837890625
0.2860107421875
0.5164306640624999
0.6453369140624999
0.9369873046874999
1.0385009765625
1.224609375
1.456640625
1.2938964843749998
1.7023681640625
1.6242187499999998
1.6475830078125
0.0322265625
0.02900390625
0.6485595703125
0.6759521484375
0.9611572265624999
1.3575439453125
2.43310546875
3.0357421875
3.0381591796875
2.7811523437499996
2.4685546874999997
2.276806640625
2.0947265625
2.0052978515624997
1.9464843749999998
1.9053955078125
1.6056884765625
1.496923828125
1.6854492187499999
1.5243164062499999
1.4993408203124998
1.5009521484375
3.037353515625
2.7166992187499996
2.4693603515625
2.3227294921875
1.735400390625
1.03447265625
0.030615234374999998
0.0298095703125
0.026586914062499998
0.193359375
0.436669921875
0.7114013671874999
0.8523925781249999
1.0650878906249999
1.2383056640624999
1.4759765624999999
1.6089111328124999
1.5017578125
1.6491943359374999
1.638720703125
1.55009765625
0.0298095703125
0.6413085937499999
0.6598388671875
0.9531005859374999
1.2656982421874998
1.9343994140624998
3.0365478515624997
3.0357421875
2.848828125
2.5885986328125
2.2244384765625
2.0600830078125
1.9754882812499999
1.9513183593749999
1.8369140625
1.6886718749999998
1.587158203125
1.6967285156249998
1.5162597656249999
1.52109375
1.5194824218749998
3.0365478515624997
3.034130859375
2.5692626953124997
2.29453125
2.1140624999999997
1.490478515625
0.030615234374999998
0.0298095703125
0.02900390625
0.1474365234375
0.523681640625
0.704150390625
0.7968017578125
1.1013427734374999
1.2318603515625
1.41796875
1.6250244140624999
1.5154541015624998
1.6177734375
1.6242187499999998
1.558154296875
0.02900390625
0.18288574218749998
0.6977050781249999
0.9949951171875
1.34384765625
1.796630859375
3.0349365234374996
3.0357421875
3.0349365234374996
2.6200195312499996
2.3638183593749997
2.083447265625
2.0262451171875
1.960986328125
1.9440673828125
1.7692382812499998
1.56943359375
1.4848388671875
1.5162597656249999
1.4800048828124999
1.4840332031249999
3.0357421875
3.0325195312499997
2.4766113281249997
2.7674560546875
2.07861328125
1.5509033203125
0.0298095703125
0.030615234374999998
0.030615234374999998
0.0733154296875
0.40605468749999996
0.69287109375
0.7613525390625
1.071533203125
1.2157470703125
1.48564453125
1.5460693359375
1.641943359375
1.611328125
1.6282470703124998
1.606494140625
0.02900390625
0.095068359375
0.9160400390625
0.394775390625
1.448583984375
1.7410400390624998
2.4870849609374996
3.0357421875
3.0349365234374996
2.72958984375
2.3396484374999997
2.14951171875
2.0310791015625
1.8876708984375
1.9352050781249999
1.8425537109374999
1.6129394531249999
1.5275390624999998
1.5057861328125
1.493701171875
1.5138427734375
3.0397705078125
3.037353515625
2.5692626953124997
2.8721923828125
1.8280517578125
1.5589599609375
0.19497070312499998
0.027392578124999997
0.02578125
0.0322265625
0.37705078124999997
0.6380859375
0.7549072265625
1.0691162109374999
1.1980224609374999
1.353515625
1.6161621093749998
1.50498046875
1.6636962890625
1.6121337890624998
1.60166015625
0.033032226562499996
0.02900390625
0.8314453125
0.4487548828125
1.119873046875
1.7104248046875
2.4564697265624997
3.034130859375
3.034130859375
2.70380859375
2.3823486328125
2.19140625
2.0181884765625
1.8892822265625
1.8941162109374998
1.7023681640625
1.6048828124999999
1.4171630859375
1.609716796875
1.5702392578125
1.5460693359375
1.4920898437499999
3.0309082031249996
2.6433837890625
2.457275390625
1.9432617187499999
1.5678222656249998
0.855615234375
0.02900390625
0.033837890625
0.0281982421875
0.307763671875
0.546240234375
0.7436279296874999
0.9724365234375
1.1641845703125
1.31162109375
1.5509033203125
1.8264404296874999
1.6814208984374999
1.6161621093749998
1.64677734375
1.5460693359375
0.0322265625
0.7017333984374999
0.7927734375
1.0892578124999999
1.5315673828124998
2.1454833984375
3.0317138671875
3.0357421875
2.8359375
2.5813476562499997
2.2292724609375
2.0254394531249997
1.9593749999999999
1.899755859375
1.843359375
1.6282470703124998
1.3212890625
1.5782958984375
1.4880615234374999
1.5533203125
1.46953125
3.0389648437499996
2.8109619140624997
2.350927734375
2.3082275390625
2.0778076171874997
0.9772705078124999
0.026586914062499998
0.024169921875
0.02900390625
0.3069580078125
0.5631591796875
0.7806884765625
0.9692138671874999
1.1545166015625
1.297119140625
1.474365234375
1.7909912109375
1.5283447265624999
1.638720703125
1.6089111328124999
1.5299560546875
0.027392578124999997
0.4729248046875
0.736376953125
1.0328613281249999
1.2503906249999999
2.023828125
3.0333251953125
3.0325195312499997
2.795654296875
2.479833984375
2.24619140625
2.067333984375
1.9537353515625
1.9134521484375
1.8884765625
1.7499023437499999
1.5476806640624998
1.3543212890624998
1.4977294921875
1.5114257812499998
1.496923828125
3.0365478515624997
2.8351318359374997
2.599072265625
2.3960449218749997
2.0955322265625
1.4356933593749999
0.0322265625
0.027392578124999997
0.0298095703125
0.15791015625
0.41572265625
0.7395996093749999
0.8451416015625
1.152099609375
1.281005859375
1.4091064453125
1.6185791015625
1.8578613281249998
1.635498046875
1.6242187499999998
1.6121337890624998
0.033032226562499996
0.40202636718749996
0.8838134765625
0.5841064453125
1.3140380859374998
1.7523193359375
3.037353515625
3.0333251953125
2.9737060546875
2.6337158203124997
2.241357421875
2.0117431640625
2.012548828125
1.8498046874999998
1.8465820312499999
1.6854492187499999
1.587158203125
1.3108154296874999
1.5621826171875
1.4880615234374999
1.5162597656249999
3.037353515625
3.0357421875
2.384765625
2.4685546874999997
1.7603759765625
1.4816162109375
0.030615234374999998
0.030615234374999998
0.0281982421875
0.040283203125
0.5389892578125
0.7291259765625
0.7677978515624999
1.2624755859374999
1.2890625
1.3946044921874998
1.6185791015625
1.8344970703124999
1.6379150390625
1.641943359375
1.56943359375
0.0298095703125
0.030615234374999998
0.9168457031249999
0.5091796875
1.45341796875
1.6532226562499999
2.9688720703125
3.0365478515624997
3.0357421875
2.6401611328124996
2.34609375
2.1503173828124997
2.035107421875
1.8256347656249998
1.9134521484375
1.7523193359375
1.622607421875
1.8264404296874999
1.4719482421874999
1.5057861328125
1.4574462890625
2.29453125
3.0357421875
2.389599609375
2.6788330078125
1.7249267578124998
1.4759765624999999
0.6678955078125
0.027392578124999997
0.0281982421875
0.030615234374999998
0.3826904296875
0.6324462890625
0.7798828124999999
1.069921875
1.2350830078125
1.458251953125
1.5815185546875
1.4316650390624999
1.651611328125
1.6532226562499999
1.6169677734374999
0.2876220703125
0.02900390625
0.6775634765624999
0.865283203125
1.4316650390624999
1.7555419921875
2.257470703125
3.0381591796875
3.0357421875
2.7779296875
2.4451904296875
2.1076171875
1.9754882812499999
1.909423828125
1.8900878906249998
1.767626953125
1.5589599609375
1.6669189453125
1.4590576171874998
1.522705078125
1.4840332031249999
1.9891845703125
3.037353515625
2.6876953125
2.6111572265625
2.199462890625
1.8216064453124998
0.7194580078124999
0.030615234374999998
0.02900390625
0.0281982421875
0.38591308593749996
0.5849121093749999
0.8161376953124999
1.02802734375
1.213330078125
1.3309570312499999
1.4518066406249999
1.6250244140624999
1.6798095703125
1.6910888671875
1.6322753906249998
0.5994140625
0.02900390625
0.768603515625
0.84111328125
1.018359375
1.2858398437499998
2.305810546875
3.0357421875
3.0365478515624997
2.7416748046875
2.4169921875
2.17529296875
1.944873046875
1.8659179687499998
1.819189453125
1.8014648437499998
1.6169677734374999
1.5782958984375
1.654833984375
1.603271484375
1.5444580078124999
1.5299560546875
3.0333251953125
2.6804443359374996
2.4242431640624997
2.180126953125
1.8570556640625
1.16337890625
0.030615234374999998
0.0249755859375
0.02900390625
0.3907470703125
0.62197265625
0.8282226562499999
0.8822021484375
1.1319580078125
1.316455078125
1.4413330078125
1.662890625
1.6451660156249999
1.716064453125
1.6540283203125
1.6089111328124999
0.0314208984375
0.6098876953125
0.8443359374999999
1.0900634765625
1.2890625
1.8820312499999998
3.0317138671875
3.0381591796875
2.7892089843749996
2.5386474609375
2.1760986328125
1.9674316406249999
1.9593749999999999
2.012548828125
1.828857421875
1.7289550781249998
1.513037109375
1.5686279296874999
1.5299560546875
1.5122314453124999
1.5114257812499998
3.0349365234374996
3.0357421875
2.3662353515625
2.1720703125
1.8868652343749999
1.4880615234374999
0.033837890625
0.02900390625
0.0298095703125
0.120849609375
0.51884765625
0.7871337890625
0.807275390625
1.174658203125
1.3067871093749999
1.5218994140625
1.619384765625
1.619384765625
1.6153564453125
1.6298583984375
1.6048828124999999
0.0298095703125
0.12246093749999999
0.8000244140624999
0.8588378906249999
1.542041015625
1.796630859375
3.0357421875
3.0357421875
3.0317138671875
2.576513671875
2.2751953124999997
2.0415527343749997
1.9553466796874999
1.8788085937499999
1.9182861328124998
1.738623046875
1.5509033203125
1.6290527343749999
1.5017578125
1.5082031249999999
1.4977294921875
3.0365478515624997
3.0309082031249996
2.3452880859375
2.8222412109375
1.9150634765624999
1.5090087890625
0.2505615234375
0.02900390625
0.0298095703125
0.1409912109375
0.4648681640625
0.7959960937499999
0.7726318359375
1.1110107421875
1.22783203125
1.416357421875
1.6024658203125
1.4606689453125
1.622607421875
1.6564453124999998
1.6121337890624998
0.0322265625
0.06606445312499999
0.91201171875
0.5994140625
1.6588623046875
1.75634765625
2.4564697265624997
3.034130859375
3.0357421875
2.6885009765624996
2.25263671875
2.002880859375
1.8868652343749999
1.780517578125
1.8312744140625
1.6733642578124999
1.5589599609375
1.6322753906249998
1.538818359375
1.55009765625
1.538818359375
3.0349365234374996
3.0357421875
2.5974609374999997
2.7972656249999996
1.9343994140624998
1.558154296875
0.5277099609375
0.0298095703125
0.0298095703125
0.027392578124999997
0.4793701171875
0.710595703125
0.8596435546875
1.158544921875
1.2850341796875
1.397021484375
1.6153564453125
1.416357421875
1.6975341796874999
1.6612792968749999
1.6379150390625
0.0298095703125
0.033032226562499996
0.865283203125
0.6324462890625
1.135986328125
1.78857421875
2.466943359375
3.037353515625
3.0357421875
2.6200195312499996
2.3082275390625
2.0713623046875
1.920703125
1.869140625
1.851416015625
1.7813232421874998
1.5984375
1.3752685546874999
1.6169677734374999
1.5541259765625
1.513037109375
1.5146484375
3.037353515625
2.6135742187499997
2.296142578125
2.1785156249999997
1.5476806640624998
0.8830078124999999
0.0298095703125
0.0322265625
0.0281982421875
0.322265625
0.6034423828125
0.849169921875
1.0562255859375
1.2262207031249999
1.4244140625
1.5815185546875
1.803076171875
1.6854492187499999
1.6081054687499998
1.6024658203125
1.542041015625
0.02900390625
0.7468505859375
0.8193603515625
1.0932861328124999
1.432470703125
1.9682373046875
3.0357421875
3.0365478515624997
2.8472167968749997
2.5773193359374997
2.14306640625
1.9730712890625
1.9343994140624998
1.8828369140624999
1.8304687499999999
1.7176757812499999
1.4155517578124999
1.64677734375
1.4735595703125
1.5380126953125
1.4671142578124998
3.0365478515624997
2.8464111328125
2.3396484374999997
2.13984375
1.98193359375
0.8773681640625
0.030615234374999998
0.030615234374999998
0.038671874999999994
0.33757324218749996
0.6131103515624999
0.9168457031249999
1.0610595703124999
1.2423339843749999
1.3736572265625
1.4356933593749999
1.7055908203124999
1.5194824218749998
1.6959228515625
1.6346923828125
1.585546875
0.0298095703125
0.4310302734375
0.81533203125
1.1416259765624999
1.335791015625
1.9835449218749999
3.0365478515624997
3.0397705078125
2.7988769531249997
2.466943359375
2.18818359375
1.972265625
1.8812255859375
1.8232177734375
1.8586669921874999
1.6475830078125
1.5662109375
1.3027587890624999
1.480810546875
1.5202880859374999
1.49853515625
3.0462158203125
2.8625244140625
2.5088378906249997
2.4911132812499996
2.0302734375
1.4066894531249998
0.11440429687499999
0.02900390625
0.02578125
0.20705566406249998
0.49951171875
0.800830078125
0.8999267578125
1.224609375
1.3309570312499999
1.4751708984374998
1.62744140625
1.8498046874999998
1.67900390625
1.65966796875
1.6290527343749999
0.0298095703125
0.38994140624999996
0.97646484375
0.53173828125
1.4187744140624998
1.8425537109374999
3.0349365234374996
3.034130859375
2.85849609375
2.528173828125
2.1664306640624997
1.944873046875
1.9625976562499998
1.8022705078124999
1.8755859375
1.7499023437499999
1.55009765625
1.2624755859374999
1.5621826171875
1.506591796875
1.47275390625
3.0365478515624997
3.0349365234374996
2.4169921875
2.5015869140625
1.6814208984374999
1.4920898437499999
0.030615234374999998
0.030615234374999998
0.02900390625
0.030615234374999998
0.47373046874999997
0.7476562499999999
0.8354736328125
1.2890625
1.2665039062499999
1.458251953125
1.6089111328124999
1.7926025390625
1.6508056640625
1.667724609375
1.6322753906249998
0.033032226562499996
0.0298095703125
0.9772705078124999
0.4640625
1.3672119140624999
1.748291015625
2.5152832031249996
3.0325195312499997
3.037353515625
2.6885009765624996
2.4016845703125
2.1342041015624997
2.0133544921874997
1.8062988281249999
1.9062011718749998
1.7853515624999998
1.5702392578125
1.667724609375
1.4316650390624999
1.4687255859375
1.4501953125
1.8304687499999999
3.0349365234374996
2.415380859375
2.53623046875
1.7184814453125
1.4252197265625
0.66064453125
0.0298095703125
0.0298095703125
0.02900390625
0.375439453125
0.7194580078124999
0.8274169921875
1.084423828125
1.2415283203124998
1.4026611328124998
1.61455078125
1.6556396484375
1.6878662109375
1.6524169921874998
1.651611328125
0.0281982421875
0.0249755859375
0.7758544921874999
0.8338623046875
1.284228515625
1.7893798828124998
2.2389404296874997
3.0357421875
3.0333251953125
2.76181640625
2.321923828125
2.1019775390624997
1.9190917968749999
1.88525390625
1.9198974609375
1.7853515624999998
1.609716796875
1.5807128906249999
1.4759765624999999
1.5090087890625
1.49853515625
1.6185791015625
3.0357421875
2.70380859375
2.40087890625
2.165625
1.8755859375
0.8274169921875
0.0298095703125
0.02900390625
0.0314208984375
0.3673828125
0.6251953124999999
0.849169921875
1.055419921875
1.2374999999999998
1.3599609375
1.5839355468749998
1.7281494140625
1.6733642578124999
1.670947265625
1.6137451171875
1.0119140625
0.0281982421875
0.78955078125
0.8499755859375
1.0675048828125
1.7015624999999999
2.3420654296875
3.037353515625
3.0349365234374996
2.7352294921875
2.4693603515625
2.1889892578125
1.9658203125
1.973876953125
1.89169921875
1.791796875
1.654833984375
1.493701171875
1.5686279296874999
1.5017578125
1.509814453125
1.5146484375
3.0397705078125
2.70380859375
2.4556640625
2.1849609375
1.877197265625
1.2455566406249998
0.026586914062499998
0.027392578124999997
0.030615234374999998
0.22880859374999998
0.5341552734375
0.8096923828125
0.9579345703125
1.2189697265625
1.3333740234375
1.5355957031249998
1.606494140625
1.61455078125
1.66611328125
1.6403320312499998
1.6008544921874999
0.026586914062499998
0.5244873046874999
0.8435302734375
1.1964111328125
1.276171875
1.7595703125
3.0365478515624997
3.0365478515624997
2.9205322265625
2.5652343749999997
2.1793212890625
1.9948242187499998
1.9698486328125
1.8707519531249999
1.85947265625
1.7571533203124998
1.5541259765625
1.4767822265625
1.5082031249999999
1.5025634765625
1.5122314453124999
3.0389648437499996
3.0357421875
2.4991699218749996
2.2429687499999997
1.8538330078124998
1.4510009765624998
0.0314208984375
0.0298095703125
0.030615234374999998
0.3037353515625
0.6372802734374999
0.8274169921875
0.7790771484375
1.15048828125
1.2737548828124998
1.42119140625
1.7329833984374998
1.780517578125
1.64677734375
1.6322753906249998
1.59521484375
0.0314208984375
0.1168212890625
0.8991210937499999
0.775048828125
1.5927978515624999
1.7821289062499999
3.034130859375
3.0357421875
2.9503417968749996
2.5096435546875
2.2405517578125
2.0254394531249997
1.9190917968749999
1.8344970703124999
1.8377197265624998
1.6314697265625
1.5791015625
1.7208984374999998
1.4872558593749998
1.5509033203125
1.4953124999999998
3.0333251953125
3.037353515625
2.3154785156249997
2.7932373046874996
1.76279296875
1.4219970703125
0.44633789062499996
0.02900390625
0.0298095703125
0.1152099609375
0.443115234375
0.7371826171875
0.8177490234375
1.116650390625
1.2511962890625
1.4518066406249999
1.622607421875
1.4058837890625
1.64677734375
1.67578125
1.6371093749999999
0.0281982421875
0.0281982421875
0.839501953125
0.7154296874999999
1.5654052734375
1.767626953125
2.4749999999999996
3.0365478515624997
3.0357421875
2.682861328125
2.2880859375
2.0423583984375
1.9569580078125
1.8820312499999998
1.88525390625
1.7668212890625
1.5347900390625
1.75634765625
1.42119140625
1.533984375
1.5138427734375
2.995458984375
3.037353515625
2.6143798828125
2.7513427734375
1.9746826171874998
1.5460693359375
0.2892333984375
0.0298095703125
0.0281982421875
0.02900390625
0.3907470703125
0.6630615234374999
0.8660888671875
1.1158447265625
1.2914794921875
1.4074951171874999
1.606494140625
1.3478759765625
1.6822265625
1.6250244140624999
1.6508056640625
0.02900390625
0.033032226562499996
0.7726318359375
0.765380859375
1.069921875
1.7635986328125
2.392822265625
3.034130859375
3.0357421875
2.7416748046875
2.447607421875
2.18818359375
1.98193359375
1.8981445312499998
1.8981445312499998
1.786962890625
1.5895751953125
1.4308593749999998
1.6532226562499999
1.5251220703125
1.4816162109375
1.480810546875
3.0365478515624997
2.6095458984374997
2.334814453125
2.14951171875
1.59521484375
0.90556640625
0.027392578124999997
0.027392578124999997
0.0314208984375
0.3391845703125
0.6227783203124999
0.8830078124999999
1.0497802734375
1.19560546875
1.36962890625
1.4437499999999999
1.6822265625
1.6854492187499999
1.6604736328124998
1.6669189453125
1.585546875
0.0249755859375
0.726708984375
0.7903564453124999
1.058642578125
1.4139404296875
2.0439697265625
3.0381591796875
3.0333251953125
2.8061279296875
2.4677490234375
2.0906982421875
1.9625976562499998
1.8908935546874999
1.8344970703124999
1.8062988281249999
1.6588623046875
1.5323730468749999
1.674169921875
1.5033691406249998
1.542041015625
1.506591796875
3.0389648437499996
2.9269775390625
2.418603515625
2.10439453125
1.9746826171874998
1.0731445312499999
0.02900390625
0.033837890625
0.027392578124999997
0.30937499999999996
0.54140625
0.7718261718749999
1.0111083984375
1.20849609375
1.329345703125
1.4461669921875
1.714453125
1.5702392578125
1.6830322265625
1.6346923828125
1.5605712890624999
0.02578125
0.34160156249999996
0.8282226562499999
1.1778808593749999
1.353515625
1.9988525390624998
3.0357421875
3.037353515625
2.850439453125
2.4822509765625
2.2953369140624997
2.0173828124999997
1.9674316406249999
1.9062011718749998
1.8570556640625
1.7055908203124999
1.5114257812499998
1.2818115234374998
1.496923828125
1.506591796875
1.493701171875
3.0357421875
2.9020019531249996
2.457275390625
2.5805419921875
1.972265625
1.426025390625
0.026586914062499998
0.024169921875
0.0281982421875
0.1409912109375
0.456005859375
0.81533203125
0.8016357421875
1.1939941406249999
1.3478759765625
1.4832275390624998
1.5637939453124998
1.7176757812499999
1.6685302734374998
1.7023681640625
1.654833984375
0.030615234374999998
0.36496582031249997
1.09248046875
0.5792724609375
1.5380126953125
1.8256347656249998
3.0357421875
3.0421875
2.8689697265625
2.5821533203125
2.1849609375
1.96904296875
1.9505126953124998
1.7692382812499998
1.8707519531249999
1.7668212890625
1.6008544921874999
1.3269287109374999
1.538818359375
1.509814453125
1.48564453125
3.0349365234374996
3.0365478515624997
2.43955078125
2.6578857421874997
1.6967285156249998
1.4542236328125
0.0298095703125
0.0281982421875
0.027392578124999997
0.03544921875
0.4954833984375
0.75087890625
0.8854248046875
1.1722412109375
1.2592529296875
1.393798828125
1.6371093749999999
1.7297607421874999
1.7313720703125
1.6701416015625
1.6266357421875
0.0314208984375
0.0314208984375
0.9901611328125
0.5406005859374999
1.2447509765625
1.7426513671875
2.81982421875
3.034130859375
3.0365478515624997
2.6498291015624997
2.3565673828125
2.09150390625
1.960986328125
1.7257324218749999
1.8763916015625
1.6854492187499999
1.5758789062499998
1.542041015625
1.50498046875
1.5235107421874998
1.5186767578125
1.5799072265624998
3.0357421875
2.5007812499999997
2.3372314453125
2.16884765625
1.4574462890625
0.8499755859375
0.02900390625
0.02900390625
0.0515625
0.3907470703125
0.7130126953125
0.85400390625
1.087646484375
1.2262207031249999
1.3825195312499998
1.590380859375
1.732177734375
1.6177734375
1.641943359375
1.6282470703124998
1.219775390625
0.0281982421875
0.7887451171875
0.8926757812499999
1.222998046875
1.6894775390624999
2.2308837890624997
3.0389648437499996
3.034130859375
2.747314453125
2.43955078125
2.0955322265625
1.95615234375
1.9698486328125
1.9247314453125
1.8183837890624999
1.7442626953125
1.4638916015624999
1.5057861328125
1.513037109375
1.5355957031249998
1.5267333984375
3.0349365234374996
2.7561767578125
2.3904052734375
2.286474609375
1.9440673828125
0.9031494140624999
0.0314208984375
0.02900390625
0.030615234374999998
0.26748046875
0.5486572265624999
0.7404052734375
0.9651855468749999
1.171435546875
1.2826171874999999
1.5009521484375
1.786962890625
1.5791015625
1.6491943359374999
1.6089111328124999
1.456640625
0.0298095703125
0.6888427734375
0.7130126953125
0.9990234375
1.1448486328125
2.1132568359375
3.0333251953125
3.0365478515624997
2.856884765625
2.5797363281249996
2.29453125
2.0488037109375
1.9835449218749999
1.9215087890625
1.9343994140624998
1.75634765625
1.5944091796875
1.4993408203124998
1.542041015625
1.5299560546875
1.5114257812499998
3.0389648437499996
2.8834716796874997
2.6498291015624997
2.3557617187499997
2.096337890625
1.348681640625
0.0281982421875
0.0298095703125
0.02900390625
0.11037597656249999
0.38671875
0.655810546875
0.7154296874999999
0.9635742187499999
1.206884765625
1.3148437499999999
1.5799072265624998
1.7982421874999999
1.699951171875
1.6846435546874998
1.61455078125
0.0281982421875
0.36093749999999997
0.6582275390625
0.9208740234374999
1.095703125
1.7088134765624998
3.0349365234374996
3.034130859375
3.0333251953125
2.747314453125
2.3952392578125
2.173681640625
2.1543457031249997
1.9916015624999999
1.9343994140624998
1.7289550781249998
1.60166015625
1.461474609375
1.558154296875
1.5299560546875
1.5275390624999998
3.0381591796875
3.0381591796875
2.747314453125
2.5096435546875
1.9779052734375
1.603271484375
0.033837890625
0.02900390625
0.02900390625
0.040283203125
0.28681640625
0.44230957031249996
0.5003173828124999
1.013525390625
1.1045654296875
1.2769775390625
1.5637939453124998
1.832080078125
1.6411376953124999
1.6620849609375
1.6306640625
0.026586914062499998
0.02900390625
0.7283203125
0.404443359375
1.3744628906249998
1.7168701171874998
3.037353515625
3.037353515625
3.037353515625
2.80048828125
2.5193115234374996
2.2598876953125
2.1809326171875
2.0616943359374997
2.0278564453125
1.8844482421875
1.658056640625
1.9118408203125
1.4477783203124999
1.4735595703125
1.4276367187499999
3.0333251953125
3.0357421875
2.495947265625
3.0228515624999996
1.9972412109375
1.6935058593749999
0.23686523437499998
0.02900390625
0.030615234374999998
0.030615234374999998
0.2578125
0.5204589843749999
0.5067626953125
0.837890625
1.05380859375
1.3712402343749999
1.5194824218749998
1.200439453125
1.5992431640625
1.6363037109374998
1.6137451171875
0.033837890625
0.0298095703125
0.6405029296875
0.6413085937499999
1.3551269531249999
1.6129394531249999
2.3074218749999997
3.037353515625
3.037353515625
2.8705810546875
2.5757080078124996
2.3323974609375
2.1325927734375
2.0536376953124997
2.02060546875
1.8828369140624999
1.658056640625
1.9102294921874998
1.464697265625
1.5605712890624999
1.5267333984375
2.70380859375
3.0365478515624997
2.818212890625
2.905224609375
2.2453857421875
1.735400390625
0.6517822265625
0.027392578124999997
0.0217529296875
0.027392578124999997
0.28439941406249997
0.49467773437499996
0.639697265625
0.894287109375
1.0505859375
1.1674072265625
1.53720703125
1.2995361328125
1.7208984374999998
1.6508056640625
1.6040771484374998
0.0298095703125
0.0314208984375
0.5808837890624999
0.6888427734375
0.7984130859374999
1.2238037109375
2.212353515625
3.0333251953125
3.0381591796875
2.8576904296874996
2.6216308593749997
2.3154785156249997
2.126953125
2.07861328125
2.0181884765625
1.996435546875
1.699951171875
1.60166015625
1.7426513671875
1.5758789062499998
1.4977294921875
1.4872558593749998
3.0357421875
2.7972656249999996
2.544287109375
2.3887939453125
1.8707519531249999
1.2028564453125
0.02900390625
0.0298095703125
0.0298095703125
0.11279296875
0.323876953125
0.549462890625
0.7798828124999999
1.0094970703125
1.2366943359375
1.3792968749999999
1.5662109375
1.69189453125
1.674169921875
1.6806152343749998
1.5670166015625
0.033032226562499996
0.4729248046875
0.575244140625
0.7710205078125
1.2093017578125
1.8143554687499999
3.0333251953125
3.037353515625
3.0067382812499996
2.7779296875
2.4041015624999997
2.196240234375
2.1503173828124997
2.0334960937499997
1.9529296875
1.8175781249999998
1.545263671875
1.706396484375
1.5001464843749999
1.546875
1.5444580078124999
3.037353515625
3.0357421875
2.5845703125
2.4435791015625
2.1986572265624997
1.2262207031249999
0.030615234374999998
0.0281982421875
0.0314208984375
0.1796630859375
0.4165283203125
0.5808837890624999
0.7049560546875
0.9208740234374999
1.1190673828125
1.3623779296874998
1.5396240234374998
1.4622802734375
1.5992431640625
1.6588623046875
1.6185791015625
0.0281982421875
0.069287109375
0.55751953125
0.8048583984375
1.3059814453124998
1.7490966796874998
3.037353515625
3.0365478515624997
3.01318359375
2.7320068359375
2.4500244140625
2.2179931640625
2.0955322265625
2.0334960937499997
2.0109375
1.8361083984375
1.6395263671875
1.480810546875
1.533984375
1.5355957031249998
1.5138427734375
3.034130859375
3.037353515625
2.576513671875
2.9447021484375
2.1704589843749997
1.5726562499999999
0.4358642578125
0.0298095703125
0.030615234374999998
0.050756835937499994
0.38913574218749997
0.581689453125
0.6243896484375
0.928125
1.0320556640625
1.2850341796875
1.5355957031249998
1.5799072265624998
1.6572509765624999
1.6725585937499998
1.6234130859375
0.0298095703125
0.0314208984375
0.7798828124999999
0.3311279296875
1.3043701171875
1.5887695312499999
2.6031005859375
3.0325195312499997
3.027685546875
2.779541015625
2.4274658203125
2.244580078125
2.160791015625
1.9295654296875
2.0246337890625
1.8546386718749999
1.6346923828125
1.6072998046875
1.577490234375
1.5509033203125
1.47275390625
3.0333251953125
3.0309082031249996
2.6490234375
3.0107666015624996
1.980322265625
1.6427490234375
0.472119140625
0.0298095703125
0.030615234374999998
0.043505859375
0.33757324218749996
0.5671875
0.6308349609374999
1.0207763671874999
1.07958984375
1.26328125
1.48564453125
1.4316650390624999
1.6298583984375
1.609716796875
1.6177734375
0.02900390625
0.0322265625
0.7661865234374999
0.2940673828125
0.9651855468749999
1.448583984375
2.473388671875
3.0357421875
3.0381591796875
2.8238525390625
2.5982666015625
2.360595703125
2.1599853515625
2.028662109375
2.064111328125
1.9295654296875
1.6266357421875
1.3543212890624998
1.5573486328125
1.5122314453124999
1.49853515625
1.4550292968749998
3.034130859375
2.6868896484375
2.4919189453125
2.42666015625
1.6540283203125
0.894287109375
0.0281982421875
0.0281982421875
0.027392578124999997
0.1877197265625
0.44150390624999997
0.6453369140624999
0.80888671875
1.0248046874999999
1.232666015625
1.4735595703125
1.7684326171875
1.6008544921874999
1.5782958984375
1.6242187499999998
1.529150390625
0.030615234374999998
0.572021484375
0.684814453125
0.8725341796874999
1.3752685546874999
2.0415527343749997
3.0309082031249996
3.034130859375
2.8995849609374997
2.666748046875
2.367041015625
2.164013671875
2.0745849609375
2.0109375
1.9271484374999999
1.7023681640625
1.4437499999999999
1.6927001953124998
1.5235107421874998
1.5396240234374998
1.4759765624999999
3.034130859375
2.900390625
2.521728515625
2.4274658203125
2.083447265625
0.903955078125
0.02900390625
0.022558593749999998
0.02578125
0.2199462890625
0.407666015625
0.630029296875
0.813720703125
1.018359375
1.164990234375
1.3462646484374998
1.7611816406249998
1.5154541015624998
1.7055908203124999
1.6443603515624998
1.538818359375
0.0298095703125
0.5478515625
0.58974609375
0.8830078124999999
1.1448486328125
1.93359375
3.0349365234374996
3.037353515625
2.9326171875
2.666748046875
2.4210205078125
2.222021484375
2.1076171875
2.03671875
1.972265625
1.7329833984374998
1.590380859375
1.3712402343749999
1.4896728515625
1.52109375
1.5146484375
3.0389648437499996
2.9833740234375
2.7102539062499997
2.56845703125
2.14951171875
1.542041015625
0.027392578124999997
0.02900390625
0.026586914062499998
0.062841796875
0.31259765624999997
0.549462890625
0.688037109375
1.0046630859374999
1.142431640625
1.2737548828124998
1.4751708984374998
1.7853515624999998
1.6346923828125
1.6330810546874999
1.6177734375
0.02900390625
0.278759765625
0.7436279296874999
0.2860107421875
1.0739501953125
1.5218994140625
2.7175048828125
3.0333251953125
3.0333251953125
2.80048828125
2.454052734375
2.2260498046875
2.1720703125
2.070556640625
2.0214111328124997
1.8707519531249999
1.6588623046875
1.3212890625
1.60166015625
1.5412353515625
1.5412353515625
3.0349365234374996
3.0357421875
2.4693603515625
2.6031005859375
1.9617919921875
1.6040771484374998
0.0298095703125
0.0281982421875
0.03544921875
0.0298095703125
0.34965820312499996
0.588134765625
0.6066650390625
1.01513671875
1.077978515625
1.2745605468749999
1.5170654296875
1.8062988281249999
1.5992431640625
1.6427490234375
1.611328125
0.02900390625
0.02900390625
0.7661865234374999
0.2860107421875
1.3083984375
1.6266357421875
2.8270751953124997
3.0357421875
3.0357421875
2.7577880859375
2.4774169921875
2.2985595703125
2.14951171875
1.9948242187499998
2.031884765625
1.880419921875
1.651611328125
1.8755859375
1.4920898437499999
1.5605712890624999
1.5726562499999999
2.415380859375
3.0349365234374996
2.518505859375
2.7932373046874996
2.4427734375
1.5895751953125
0.7194580078124999
0.02900390625
0.0298095703125
0.0314208984375
0.275537109375
0.5607421874999999
0.613916015625
0.8830078124999999
1.039306640625
1.224609375
1.546875
1.4139404296875
1.6427490234375
1.6475830078125
1.5960205078124998
0.252978515625
0.0314208984375
0.562353515625
0.6670898437499999
1.1666015625
1.574267578125
2.1825439453124997
3.037353515625
3.0325195312499997
2.9181152343749996
2.5958496093749996
2.2429687499999997
2.115673828125
2.0576660156249997
2.0713623046875
1.93681640625
1.71123046875
1.8876708984375
1.5404296874999999
1.61455078125
1.53720703125
2.080224609375
3.037353515625
2.8029052734374997
2.67158203125
2.4806396484374997
1.877197265625
0.8274169921875
0.0281982421875
0.0298095703125
0.02900390625
0.2135009765625
0.436669921875
0.5873291015625
0.833056640625
1.0675048828125
1.2528076171875
1.4598632812499999
1.43408203125
1.66611328125
1.6524169921874998
1.5791015625
0.7315429687499999
0.0281982421875
0.4729248046875
0.6469482421874999
0.7613525390625
1.200439453125
2.2695556640625
3.0365478515624997
3.0357421875
2.8810546875
2.62646484375
2.415380859375
2.2002685546875
2.13984375
2.0262451171875
1.9730712890625
1.7418457031249999
1.611328125
1.714453125
1.5960205078124998
1.5017578125
1.5186767578125
3.0381591796875
2.7722900390625
2.5894042968749997
2.3323974609375
1.87236328125
1.2181640624999999
0.02900390625
0.02900390625
0.026586914062499998
0.1329345703125
0.3391845703125
0.607470703125
0.78955078125
1.00224609375
1.1923828125
1.4373046875
1.5267333984375
1.4945068359375
1.635498046875
1.6153564453125
1.56298828125
0.02900390625
0.41813964843749996
0.554296875
0.7629638671875
1.184326171875
1.6612792968749999
3.0405761718749997
3.0349365234374996
3.0317138671875
2.6562744140624996
2.328369140625
2.222021484375
2.1382324218749997
2.08828125
1.9674316406249999
1.791796875
1.670947265625
1.7072021484375
1.5509033203125
1.522705078125
1.5186767578125
3.0381591796875
3.0349365234374996
2.5636230468749996
2.3614013671875
2.1229248046875
1.622607421875
0.0298095703125
0.030615234374999998
0.030615234374999998
0.00322265625
0.36093749999999997
0.539794921875
0.6034423828125
0.9772705078124999
1.110205078125
1.264892578125
1.5984375
1.65
1.690283203125
1.6749755859375
1.6242187499999998
0.030615234374999998
0.0314208984375
0.623583984375
0.652587890625
1.271337890625
1.6701416015625
3.0357421875
3.037353515625
3.034130859375
2.7384521484374997
2.4532470703125
2.2582763671875
2.1487060546875
2.0552490234375
2.0745849609375
1.835302734375
1.65
1.6137451171875
1.513037109375
1.5009521484375
1.4896728515625
3.0357421875
3.0365478515624997
2.5064208984375
3.0333251953125
2.0681396484375
1.654833984375
0.4197509765625
0.0314208984375
0.027392578124999997
0.02900390625
0.2666748046875
0.5712158203125
0.6018310546875
0.928125
1.0965087890625
1.377685546875
1.513037109375
1.3833251953124999
1.5589599609375
1.63388671875
1.58232421875
0.0281982421875
0.0298095703125
0.6501708984375
0.4197509765625
1.3043701171875
1.6564453124999998
2.4298828125
3.0365478515624997
3.0357421875
2.8689697265625
2.5950439453125
2.3001708984375
2.1599853515625
2.0890869140625
1.9891845703125
1.899755859375
1.6161621093749998
1.6806152343749998
1.5033691406249998
1.5194824218749998
1.50498046875
3.0357421875
3.0349365234374996
2.7263671874999997
3.037353515625
2.157568359375
1.6371093749999999
0.307763671875
0.02578125
0.0281982421875
0.0298095703125
0.278759765625
0.47856445312499996
0.6276123046875
0.9007324218749999
1.0086914062499999
1.2262207031249999
1.4477783203124999
1.3333740234375
1.6435546875
1.603271484375
1.5927978515624999
0.030615234374999998
0.0298095703125
0.6582275390625
0.546240234375
0.9305419921875
1.4397216796874999
2.3557617187499997
3.037353515625
3.0405761718749997
2.8294921874999996
2.5257568359375
2.3267578125
2.2357177734375
2.0471923828125
2.0173828124999997
1.957763671875
1.6798095703125
1.4437499999999999
1.6564453124999998
1.5758789062499998
1.525927734375
1.493701171875
3.0381591796875
2.7408691406249996
2.51044921875
2.462109375
1.7603759765625
1.07958984375
0.02900390625
0.0298095703125
0.02900390625
0.27231445312499997
0.404443359375
0.5865234375
0.7565185546875
1.0376953125
1.2463623046874999
1.3494873046875
1.6878662109375
1.474365234375
1.6105224609375
1.6121337890624998
1.5146484375
0.0298095703125
0.588134765625
0.65419921875
0.9249023437499999
1.4518066406249999
1.9134521484375
3.0357421875
3.037353515625
2.900390625
2.6748046875
2.34931640625
2.13984375
2.0439697265625
1.9827392578124998
1.9013671875
1.6371093749999999
1.590380859375
1.7080078125
1.5597656249999998
1.60166015625
1.5476806640624998
3.0365478515624997
2.9600097656249997
2.7078369140625
2.560400390625
2.1946289062499997
1.6556396484375
0.0281982421875
0.0314208984375
0.02900390625
0.07412109374999999
0.39638671875
0.5736328125
0.67998046875
0.9474609374999999
1.147265625
1.3994384765624999
1.6290527343749999
1.42119140625
1.6121337890624998
1.6306640625
1.5396240234374998
0.023364257812499997
0.29970703125
0.5937744140625
0.871728515625
1.2093017578125
1.9166748046875
3.0397705078125
3.027685546875
3.0333251953125
2.666748046875
2.4306884765625
2.1889892578125
2.1116455078125
2.0584716796875
2.02705078125
1.8256347656249998
1.5879638671874998
1.3148437499999999
1.6072998046875
1.5428466796875
1.5678222656249998
3.0357421875
2.931005859375
2.6707763671875
2.6876953125
1.960986328125
1.5807128906249999
0.026586914062499998
0.0298095703125
0.026586914062499998
0.10231933593749999
0.32951660156249996
0.646142578125
0.6727294921875
1.074755859375
1.106982421875
1.3075927734375
1.53076171875
1.786962890625
1.6322753906249998
1.635498046875
1.577490234375
0.02900390625
0.207861328125
0.7661865234374999
0.2731201171875
1.19560546875
1.5033691406249998
3.0357421875
3.034130859375
3.029296875
2.7287841796874996
2.4532470703125
2.1615966796875
2.1140624999999997
1.8715576171875
1.9360107421875
1.8570556640625
1.7088134765624998
1.9505126953124998
1.6564453124999998
1.5831298828125
1.5243164062499999
3.0317138671875
3.0389648437499996
2.55234375
2.8270751953124997
1.9787109374999998
1.638720703125
0.7661865234374999
0.0298095703125
0.0322265625
0.0314208984375
0.359326171875
0.56396484375
0.588134765625
0.8854248046875
1.0642822265625
1.224609375
1.509814453125
1.7821289062499999
1.61455078125
1.6161621093749998
1.590380859375
0.030615234374999998
0.033837890625
0.5099853515625
0.2578125
1.2254150390625
1.6540283203125
2.848828125
3.0381591796875
3.034130859375
2.8230468749999997
2.5458984375
2.2832519531249997
2.102783203125
1.9658203125
2.0326904296875
1.9343994140624998
1.6556396484375
1.7845458984375
1.4477783203124999
1.5807128906249999
1.5090087890625
2.0431640625
3.037353515625
2.5128662109374997
2.6304931640625
2.344482421875
1.6991455078125
0.8241943359374999
0.0281982421875
0.027392578124999997
0.02900390625
0.230419921875
0.5124023437499999
0.6131103515624999
0.8950927734374999
1.106982421875
1.2157470703125
1.4791992187499998
1.4493896484375
1.6048828124999999
1.56943359375
1.5702392578125
0.75732421875
0.0281982421875
0.5841064453125
0.7065673828125
0.871728515625
1.58232421875
2.1744873046874997
3.034130859375
3.0389648437499996
2.8633300781249997
2.592626953125
2.2880859375
2.1261474609374997
2.07861328125
2.02060546875
1.9311767578124999
1.7096191406249999
1.5976318359375
1.5138427734375
1.5670166015625
1.506591796875
1.7990478515625
3.034130859375
2.7690673828124996
2.6232421875
2.4927246093749997
1.88525390625
1.368017578125
0.027392578124999997
0.02900390625
0.0281982421875
0.185302734375
0.45358886718749997
0.6413085937499999
0.7395996093749999
1.0642822265625
1.174658203125
1.4058837890625
1.6048828124999999
1.60166015625
1.6137451171875
1.58232421875
1.0417236328125
0.030615234374999998
0.45036621093749996
0.6936767578124999
0.9160400390625
1.229443359375
2.0971435546875
3.0357421875
3.0357421875
3.0325195312499997
2.6208251953125
2.358984375
2.176904296875
2.0455810546874997
2.023828125
1.9537353515625
1.6975341796874999
1.6395263671875
1.722509765625
1.5678222656249998
1.5782958984375
1.55009765625
3.0357421875
2.8319091796875
2.57490234375
2.4339111328125
2.035107421875
1.1980224609374999
0.02900390625
0.0322265625
0.030615234374999998
0.169189453125
0.36899414062499997
0.5663818359375
0.733154296875
0.9708251953125
1.1617675781249999
1.33740234375
1.5597656249999998
1.619384765625
1.6572509765624999
1.6371093749999999
1.5799072265624998
0.030615234374999998
0.407666015625
0.6437255859375
0.5994140625
1.147265625
1.59521484375
3.034130859375
3.0365478515624997
3.001904296875
2.7368408203124996
2.489501953125
2.228466796875
2.1277587890625
2.0214111328124997
1.9142578124999998
1.8143554687499999
1.6137451171875
1.606494140625
1.6024658203125
1.5412353515625
1.5057861328125
3.0397705078125
3.034130859375
2.518505859375
2.4322998046874997
2.077001953125
1.65
0.02900390625
0.0298095703125
0.02900390625
0.02900390625
0.3714111328125
0.559130859375
0.597802734375
1.010302734375
1.1174560546874999
1.3929931640625
1.5243164062499999
1.6532226562499999
1.5976318359375
1.619384765625
1.587158203125
0.030615234374999998
0.0298095703125
0.6912597656249999
0.46970214843749997
1.3591552734374999
1.6185791015625
3.0381591796875
3.037353515625
3.0381591796875
2.7610107421874996
2.4886962890624997
2.280029296875
2.1632080078125
2.075390625
2.0431640625
1.9271484374999999
1.6121337890624998
1.6894775390624999
1.5033691406249998
1.5484863281249999
1.5057861328125
3.0357421875
3.0357421875
2.4967529296874997
2.98740234375
2.15595703125
1.638720703125
0.24814453125
0.02578125
0.0298095703125
0.04189453125
0.30051269531249997
0.49870605468749996
0.60263671875
0.9305419921875
1.0691162109374999
1.2938964843749998
1.4928955078125
1.3382080078124998
1.6524169921874998
1.6508056640625
1.6008544921874999
0.033032226562499996
0.02900390625
0.6324462890625
0.6670898437499999
1.4034667968749999
1.5839355468749998
2.344482421875
3.0381591796875
3.0357421875
2.8286865234375
2.5628173828125
2.254248046875
2.160791015625
2.028662109375
2.0173828124999997
1.883642578125
1.7208984374999998
1.4961181640624999
1.5678222656249998
1.6363037109374998
1.5541259765625
3.0389648437499996
3.0365478515624997
2.7481201171875
2.9712890625
2.205908203125
1.7724609375
1.0626708984375
0.0314208984375
0.0298095703125
0.030615234374999998
0.27231445312499997
0.52529296875
0.6493652343749999
0.8145263671874999
1.0642822265625
1.2342773437499999
1.4115234374999999
1.2423339843749999
1.6483886718749998
1.5863525390625
1.5887695312499999
0.033837890625
0.0298095703125
0.6018310546875
0.7234863281249999
0.9595458984374999
1.4300537109375
2.29453125
3.0349365234374996
3.0389648437499996
2.9865966796874996
2.5885986328125
2.3662353515625
2.18173828125
1.5331787109375
2.0254394531249997
1.98515625
1.7104248046875
1.4510009765624998
1.5525146484374999
1.538818359375
1.5122314453124999
1.4928955078125
3.0389648437499996
2.7384521484374997
2.463720703125
2.3178955078125
1.7829345703125
1.068310546875
0.026586914062499998
0.0281982421875
0.030615234374999998
0.143408203125
0.40605468749999996
0.65419921875
0.7790771484375
0.97001953125
1.1126220703125
1.3962158203125
1.5525146484374999
1.477587890625
1.5919921874999998
1.6089111328124999
1.5807128906249999
0.027392578124999997
0.5969970703124999
0.5929687499999999
1.0167480468749999
1.3365966796875
2.01416015625
3.0389648437499996
3.0301025390625
2.9986816406249996
2.6997802734375
2.3372314453125
2.160791015625
2.1164794921875
2.0359130859375
1.941650390625
1.8328857421875
1.6346923828125
1.6451660156249999
1.5283447265624999
1.53720703125
1.48564453125
3.037353515625
2.9970703125
2.68125
2.3501220703125
2.2018798828125
1.5782958984375
0.0281982421875
0.026586914062499998
0.02900390625
0.0443115234375
0.4189453125
0.6324462890625
0.688037109375
0.9627685546875
1.1271240234375
1.276171875
1.5678222656249998
1.482421875
1.6363037109374998
1.61455078125
1.5726562499999999
0.0281982421875
0.153076171875
0.5478515625
0.936181640625
1.155322265625
1.8369140625
3.0397705078125
3.0357421875
3.037353515625
2.6530517578125
2.3920166015624997
2.1487060546875
2.0689453125
2.0052978515624997
1.9545410156249998
1.706396484375
1.6105224609375
1.3946044921874998
1.6395263671875
1.5565429687499999
1.5791015625
3.0349365234374996
3.029296875
2.6143798828125
2.8810546875
2.183349609375
1.6218017578125
0.1087646484375
0.0298095703125
0.02578125
0.10957031249999999
0.3552978515625
0.694482421875
0.704150390625
1.0167480468749999
1.0731445312499999
1.3180664062499998
1.5186767578125
1.7337890624999999
1.6411376953124999
1.6282470703124998
1.6056884765625
0.0314208984375
0.0845947265625
0.807275390625
0.1957763671875
1.21494140625
1.5492919921875
2.66513671875
3.037353515625
3.0333251953125
2.785986328125
2.486279296875
2.2494140625
2.1809326171875
1.9376220703125
2.0020751953125
1.8707519531249999
1.606494140625
1.3237060546875
1.577490234375
1.5323730468749999
1.49853515625
3.0357421875
3.034130859375
2.592626953125
2.969677734375
1.8739746093749998
1.6451660156249999
0.0394775390625
0.0281982421875
0.0314208984375
0.0314208984375
0.348046875
0.5921630859375
0.6703125
0.9555175781249999
1.05380859375
1.303564453125
1.496923828125
1.716064453125
1.5919921874999998
1.6000488281249998
1.58232421875
0.0298095703125
0.0322265625
0.7307373046875
0.3158203125
1.0707275390625
1.5484863281249999
2.4774169921875
3.0389648437499996
3.037353515625
2.8447998046875
2.5853759765624997
2.318701171875
2.13662109375
1.98193359375
2.018994140625
1.899755859375
1.6612792968749999
1.6645019531249998
1.4703369140625
1.5734619140625
1.5347900390625
1.7168701171874998
3.0389648437499996
2.642578125
2.43955078125
1.9376220703125
1.6250244140624999
0.8967041015624999
0.02900390625
0.0281982421875
0.0298095703125
0.2586181640625
0.5349609375
0.6429199218749999
0.8467529296874999
1.0417236328125
1.2286376953125
1.4864501953125
1.6532226562499999
1.6290527343749999
1.6459716796875
1.5984375
0.02900390625
0.026586914062499998
0.6082763671875
0.7017333984374999
0.9724365234375
1.6363037109374998
2.0359130859375
3.0349365234374996
3.0357421875
2.882666015625
2.46533203125
2.2566650390625
2.08505859375
2.054443359375
2.0020751953125
1.8876708984375
1.699951171875
1.6814208984374999
1.4945068359375
1.6129394531249999
1.5573486328125
1.56298828125
3.0357421875
2.8778320312499996
2.47177734375
2.44921875
1.9907958984374998
0.9676025390624999
0.033837890625
0.027392578124999997
0.0314208984375
0.2537841796875
0.45842285156249996
0.6807861328125
0.8612548828125
1.03447265625
1.1722412109375
1.461474609375
1.6733642578124999
1.658056640625
1.6379150390625
1.6161621093749998
1.5017578125
0.02900390625
0.5647705078124999
0.7138183593749999
0.8225830078124999
1.5597656249999998
2.064111328125
3.0357421875
3.0349365234374996
2.9036132812499997
2.608740234375
2.3638183593749997
2.1487060546875
2.1277587890625
2.05927734375
1.941650390625
1.7418457031249999
1.6129394531249999
1.5436523437499998
1.5315673828124998
1.5001464843749999
1.493701171875
3.0357421875
2.91328125
2.7577880859375
2.47177734375
2.0633056640625
1.4759765624999999
0.030615234374999998
0.033837890625
0.02578125
0.0765380859375
0.34965820312499996
0.662255859375
0.7565185546875
0.9821044921875
1.17626953125
1.380908203125
1.49853515625
1.5484863281249999
1.587158203125
1.5887695312499999
1.5678222656249998
0.0298095703125
0.3117919921875
0.6429199218749999
1.007080078125
1.0239990234375
1.5460693359375
3.034130859375
3.0349365234374996
3.0357421875
2.7755126953125
2.4661376953125
2.225244140625
2.1358154296875
1.998046875
1.9601806640625
1.8361083984375
1.5984375
1.5573486328125
1.53720703125
1.5484863281249999
1.542041015625
3.0357421875
3.0333251953125
2.7521484375
2.502392578125
2.0044921875
1.496923828125
0.02900390625
0.027392578124999997
0.0298095703125
0.15871582031249998
0.3923583984375
0.607470703125
0.7033447265624999
0.9796874999999999
1.1053710937499999
1.27294921875
1.5275390624999998
1.662890625
1.6056884765625
1.6395263671875
1.59521484375
0.0281982421875
0.3053466796875
0.6856201171874999
0.281982421875
1.45341796875
1.577490234375
3.0357421875
3.0357421875
3.0325195312499997
2.7207275390624996
2.4790283203124996
2.1624023437499997
2.176904296875
2.002880859375
2.0455810546874997
1.8022705078124999
1.6572509765624999
1.812744140625
1.5968261718749999
1.571044921875
1.53076171875
3.0284912109374997
3.0357421875
2.47822265625
2.9156982421874997
1.91748046875
1.6806152343749998
0.684814453125
0.0281982421875
0.0322265625
0.02900390625
0.323876953125
0.5824951171875
0.6654785156249999
0.9474609374999999
1.100537109375
1.2560302734375
1.4840332031249999
1.3237060546875
1.6314697265625
1.6532226562499999
1.6266357421875
0.030615234374999998
0.02900390625
0.6034423828125
0.7146240234375
1.329345703125
1.5911865234375
2.3565673828125
3.037353515625
3.0357421875
2.7908203124999997
2.4322998046874997
2.28486328125
2.1591796875
2.0745849609375
2.035107421875
1.9102294921874998
1.6645019531249998
1.828857421875
1.5597656249999998
1.554931640625
1.5009521484375
2.8190185546874997
3.0365478515624997
2.737646484375
2.8214355468749996
2.3396484374999997
1.7200927734375
0.688037109375
0.0298095703125
0.02900390625
0.0298095703125
0.2513671875
0.5212646484375
0.6638671875
0.8958984375
1.0626708984375
1.198828125
1.4719482421874999
1.3075927734375
1.622607421875
1.619384765625
1.6218017578125
0.16435546874999998
0.027392578124999997
0.546240234375
0.710595703125
0.6098876953125
1.5678222656249998
2.180126953125
3.0389648437499996
3.037353515625
2.8609130859375
2.57490234375
2.34931640625
2.1760986328125
2.0794189453125
2.044775390625
1.9311767578124999
1.6935058593749999
1.5799072265624998
1.6749755859375
1.5412353515625
1.4961181640624999
1.46953125
3.0349365234374996
2.7730957031249996
2.5177001953125
2.3267578125
1.7652099609374998
1.132763671875
0.0281982421875
0.030615234374999998
0.030615234374999998
0.1893310546875
0.4149169921875
0.671923828125
0.7839111328124999
0.984521484375
1.2181640624999999
1.348681640625
1.587158203125
1.6886718749999998
1.63388671875
1.61455078125
1.5509033203125
0.030615234374999998
0.5502685546875
0.5865234375
0.8685058593749999
1.300341796875
1.7668212890625
3.037353515625
3.0446044921874997
2.9849853515625
2.68125
2.31708984375
2.1325927734375
2.064111328125
1.9835449218749999
1.9182861328124998
1.7176757812499999
1.6290527343749999
1.767626953125
1.5460693359375
1.5347900390625
1.4606689453125
3.0357421875
3.0357421875
2.5805419921875
2.3525390625
2.228466796875
1.2608642578125
0.02900390625
0.02900390625
0.0298095703125
0.1732177734375
0.39638671875
0.6171386718749999
0.8032470703125
0.9692138671874999
1.147265625
1.3011474609375
1.5605712890624999
1.4526123046875
1.6379150390625
1.6854492187499999
1.6250244140624999
0.0314208984375
0.5349609375
0.572021484375
0.7984130859374999
1.20849609375
1.835302734375
3.0357421875
3.0365478515624997
2.9970703125
2.69091796875
2.450830078125
2.157568359375
2.1333984375
2.0649169921875
2.0334960937499997
1.8377197265624998
1.5968261718749999
1.380908203125
1.5138427734375
1.5331787109375
1.5202880859374999
3.0365478515624997
3.034130859375
2.5394531249999996
3.0075439453125
2.1865722656249997
1.6048828124999999
0.033032226562499996
0.0298095703125
0.02900390625
0.0652587890625
0.36416015625
0.6227783203124999
0.630029296875
0.978076171875
1.1674072265625
1.3857421875
1.5041748046874999
1.6298583984375
1.625830078125
1.622607421875
1.6121337890624998
0.02900390625
0.0298095703125
0.7951904296875
0.6010253906249999
1.2665039062499999
1.4574462890625
2.38154296875
3.0357421875
3.0357421875
2.808544921875
2.4758056640625
2.2357177734375
2.1503173828124997
2.04638671875
2.0415527343749997
1.9198974609375
1.6693359374999999
1.4364990234375
1.6282470703124998
1.5726562499999999
1.5492919921875
3.0349365234374996
3.034130859375
2.457275390625
3.0333251953125
2.018994140625
1.5428466796875
0.2280029296875
0.02900390625
0.02578125
0.050756835937499994
0.3585205078125
0.594580078125
0.704150390625
0.9885498046875
1.0787841796875
1.2447509765625
1.5533203125
1.5927978515624999
1.6121337890624998
1.62744140625
1.5726562499999999
0.0298095703125
0.02900390625
0.791162109375
0.5043457031249999
0.9418212890625
1.5299560546875
2.4210205078125
3.0357421875
3.0357421875
2.7730957031249996
2.4741943359375
2.2276611328125
2.0898925781249997
1.9489013671875
1.9585693359374998
1.7821289062499999
1.651611328125
1.4606689453125
1.5106201171875
1.52109375
1.5428466796875
1.509814453125
3.0333251953125
2.7207275390624996
2.4121582031249997
2.015771484375
1.5968261718749999
0.95390625
0.02578125
0.0314208984375
0.0346435546875
0.269091796875
0.5357666015625
0.6421142578125
0.88623046875
1.0546142578125
1.287451171875
1.5146484375
1.7926025390625
1.6435546875
1.6540283203125
1.6443603515624998
0.02578125
0.026586914062499998
0.6179443359375
0.6340576171875
0.8999267578125
1.6218017578125
2.077001953125
3.0301025390625
3.0381591796875
2.8633300781249997
2.5313964843749996
2.2421630859375
2.0898925781249997
2.05283203125
1.9754882812499999
1.880419921875
1.7772949218749998
1.4598632812499999
1.554931640625
1.5114257812499998
1.5154541015624998
1.4703369140625
3.0349365234374996
2.8560791015625
2.3404541015625
2.4903076171875
2.0737792968749997
1.0111083984375
0.030615234374999998
0.02900390625
0.027392578124999997
0.23686523437499998
0.46567382812499997
0.6807861328125
0.90556640625
1.061865234375
1.252001953125
1.4638916015624999
1.7184814453125
1.5678222656249998
1.6105224609375
1.5791015625
1.538818359375
0.0281982421875
0.6372802734374999
0.655810546875
1.1158447265625
1.1150390625
1.9295654296875
3.0349365234374996
3.0365478515624997
2.9181152343749996
2.6522460937499996
2.4210205078125
2.1946289062499997
2.0649169921875
1.9706542968749998
1.9134521484375
1.7660156249999999
1.59521484375
1.4622802734375
1.5057861328125
1.5009521484375
1.4783935546875
3.0365478515624997
2.9382568359374996
2.7465087890624997
2.5724853515625
2.10439453125
1.4477783203124999
0.0314208984375
0.02900390625
0.0298095703125
0.1796630859375
0.41733398437499997
0.700927734375
0.7404052734375
1.0634765625
1.1851318359375
1.3502929687499998
1.58232421875
1.56943359375
1.65
1.65
1.5944091796875
0.0322265625
0.294873046875
0.84111328125
1.084423828125
1.1529052734375
1.62744140625
3.037353515625
3.034130859375
3.034130859375
2.7134765625
2.36220703125
2.1277587890625
2.086669921875
1.920703125
1.8739746093749998
1.6701416015625
1.5428466796875
1.4042724609375
1.5444580078124999
1.4953124999999998
1.4961181640624999
3.0325195312499997
3.0317138671875
2.6699707031249997
2.6901123046874997
1.8264404296874999
1.5138427734375
0.0322265625
0.024169921875
0.027392578124999997
0.175634765625
0.410888671875
0.6090820312499999
0.7565185546875
1.0707275390625
1.116650390625
1.3510986328124999
1.6121337890624998
1.812744140625
1.683837890625
1.6798095703125
1.6322753906249998
0.02900390625
0.2537841796875
0.85400390625
0.25458984375
1.4518066406249999
1.6048828124999999
2.8391601562499997
3.034130859375
3.0317138671875
2.7102539062499997
2.4234375
2.075390625
2.0375244140624997
1.8925048828125
1.9988525390624998
1.8546386718749999
1.6048828124999999
1.7458740234374999
1.5565429687499999
1.5146484375
1.5073974609374998
3.0357421875
3.0333251953125
2.41376953125
2.6135742187499997
1.7893798828124998
1.6693359374999999
0.6912597656249999
0.027392578124999997
0.0346435546875
0.030615234374999998
0.32548828124999996
0.6260009765625
0.6517822265625
0.9740478515625
1.1384033203125
1.3873535156249999
1.5170654296875
1.7813232421874998
1.6346923828125
1.662890625
1.6330810546874999
0.02578125
0.0281982421875
0.639697265625
0.32145996093749996
1.3365966796875
1.6943115234375
2.56201171875
3.037353515625
3.037353515625
2.7884033203125
2.4427734375
2.1849609375
2.0415527343749997
1.8489990234375
1.92392578125
1.8409423828125
1.6000488281249998
1.7499023437499999
1.442138671875
1.59521484375
1.5017578125
2.157568359375
3.0333251953125
2.4935302734375
2.4419677734375
2.3138671875
1.59521484375
0.7718261718749999
0.026586914062499998
0.0322265625
0.03544921875
0.35368652343749996
0.6421142578125
0.781494140625
1.0046630859374999
1.147265625
1.2858398437499998
1.546875
1.5170654296875
1.71123046875
1.6532226562499999
1.6185791015625
0.61552734375
0.033837890625
0.7057617187499999
0.87333984375
1.0111083984375
1.7603759765625
2.2389404296874997
3.0325195312499997
3.0357421875
2.7916259765625
2.4693603515625
2.1180908203124997
1.973876953125
1.9053955078125
1.84013671875
1.7821289062499999
1.5927978515624999
1.5847412109374999
1.458251953125
1.56943359375
1.5380126953125
1.8175781249999998
3.0349365234374996
2.731201171875
2.5080322265625
2.3477050781249997
1.7176757812499999
1.252001953125
0.02900390625
0.027392578124999997
0.0298095703125
0.2715087890625
0.5760498046875
0.72509765625
0.9031494140624999
1.187548828125
1.31162109375
1.4268310546874998
1.6612792968749999
1.7152587890625
1.6403320312499998
1.6604736328124998
1.1110107421875
0.0281982421875
0.588134765625
0.80888671875
1.1448486328125
1.3269287109374999
2.24619140625
3.0365478515624997
3.0333251953125
2.9100585937499996
2.5330078124999997
2.2510253906249997
2.031884765625
1.9754882812499999
1.9440673828125
1.8981445312499998
1.7249267578124998
1.5573486328125
1.6572509765624999
1.4880615234374999
1.50498046875
1.4920898437499999
3.0357421875
2.7142822265624997
2.4911132812499996
2.1777099609375
1.7442626953125
1.222998046875
0.026586914062499998
0.02900390625
0.0281982421875
0.26828613281249997
0.49306640625
0.760546875
0.87333984375
1.11181640625
1.3204833984375
1.5517089843749998
1.58232421875
1.5057861328125
1.6242187499999998
1.65
1.59521484375
0.026586914062499998
0.546240234375
0.7549072265625
0.6566162109375
1.26005859375
1.74345703125
3.0317138671875
3.0349365234374996
2.9342285156249996
2.642578125
2.3017822265625
2.0246337890625
1.9916015624999999
1.9706542968749998
1.8900878906249998
1.7845458984375
1.6008544921874999
1.6935058593749999
1.5186767578125
1.5283447265624999
1.4711425781249998
3.037353515625
3.0333251953125
2.367041015625
2.2856689453125
1.9625976562499998
1.5702392578125
0.02900390625
0.02900390625
0.02900390625
0.15227050781249998
0.5115966796875
0.736376953125
0.7734375
1.1561279296875
1.2479736328125
1.3994384765624999
1.62744140625
1.670947265625
1.6886718749999998
1.6556396484375
1.5919921874999998
0.0281982421875
0.04189453125
0.839501953125
0.5647705078124999
1.5146484375
1.65
3.0389648437499996
3.0349365234374996
3.034130859375
2.6296874999999997
2.27841796875
2.101171875
1.998046875
1.89169921875
1.8828369140624999
1.6846435546874998
1.5597656249999998
1.5637939453124998
1.5525146484374999
1.4993408203124998
1.4791992187499998
3.0357421875
3.0357421875
2.3468994140625
2.8552734374999997
1.98515625
1.51787109375
0.5220703125
0.02900390625
0.02900390625
0.09345703124999999
0.46567382812499997
0.6751464843749999
0.7984130859374999
1.0884521484375
1.1931884765625
1.3978271484375
1.5807128906249999
1.46953125
1.6371093749999999
1.65
1.6081054687499998
0.0281982421875
0.0362548828125
0.816943359375
0.8967041015624999
1.667724609375
1.7539306640624999
2.4564697265624997
3.0357421875
3.0309082031249996
2.721533203125
2.41376953125
2.0794189453125
2.0181884765625
1.915869140625
1.9013671875
1.828857421875
1.5782958984375
1.4332763671875
1.4896728515625
1.525927734375
1.5025634765625
3.0349365234374996
3.0357421875
2.673193359375
2.7263671874999997
2.0197998046875
1.47275390625
0.9579345703125
0.02900390625
0.0298095703125
0.02900390625
0.41572265625
0.6815917968749999
0.84755859375
1.03125
1.22783203125
1.364794921875
1.5517089843749998
1.4276367187499999
1.6894775390624999
1.6395263671875
1.5847412109374999
0.030615234374999998
0.02900390625
0.7500732421874999
0.94423828125
0.8507812499999999
1.593603515625
2.399267578125
3.0357421875
3.0381591796875
2.7303955078124997
2.3855712890625
2.1140624999999997
1.92392578125
1.8393310546875
1.8812255859375
1.8304687499999999
1.6048828124999999
1.522705078125
1.587158203125
1.5355957031249998
1.5162597656249999
1.4671142578124998
3.0333251953125
2.6458007812499997
2.2905029296875
2.0633056640625
1.5218994140625
0.871728515625
0.0298095703125
0.0298095703125
0.030615234374999998
0.3673828125
0.6380859375
0.8338623046875
0.9788818359375
1.1722412109375
1.364794921875
1.4477783203124999
1.6910888671875
1.56298828125
1.6282470703124998
1.6693359374999999
1.6024658203125
0.027392578124999997
0.7065673828125
0.8113037109375
1.1851318359375
1.6081054687499998
2.0012695312499997
3.0349365234374996
3.034130859375
2.771484375
2.4339111328125
2.0858642578124997
1.9198974609375
1.8860595703124998
1.8377197265624998
1.786962890625
1.5782958984375
1.5122314453124999
1.6330810546874999
1.5025634765625
1.5170654296875
1.4896728515625
3.0349365234374996
2.8456054687499996
2.4967529296874997
2.0737792968749997
1.9940185546875
1.41796875
0.030615234374999998
0.033032226562499996
0.0298095703125
0.2771484375
0.623583984375
0.849169921875
0.9692138671874999
1.229443359375
1.348681640625
1.4244140625
1.6290527343749999
1.5025634765625
1.6685302734374998
1.6379150390625
1.5911865234375
0.02900390625
0.339990234375
0.7758544921874999
1.0884521484375
1.3664062499999998
2.0294677734374997
3.034130859375
3.0389648437499996
2.9898193359375
2.5160888671875
2.2236328125
2.0302734375
1.9505126953124998
1.9102294921874998
1.8602783203125
1.6935058593749999
1.496923828125
1.3083984375
1.5267333984375
1.5073974609374998
1.5162597656249999
3.0365478515624997
2.85849609375
2.3936279296875
2.760205078125
1.9625976562499998
1.4429443359374998
0.02900390625
0.02900390625
0.02578125
0.19899902343749998
0.5953857421875
0.85400390625
0.8580322265625
1.2785888671874999
1.3011474609375
1.542041015625
1.6282470703124998
1.7587646484375
1.654833984375
1.63388671875
1.6234130859375
0.026586914062499998
0.298095703125
0.9772705078124999
0.5808837890624999
1.5243164062499999
1.7297607421874999
2.60068359375
3.034130859375
3.0099609375
2.5845703125
2.1865722656249997
2.0407470703125
1.9537353515625
1.7474853515625
1.85947265625
1.7370117187499998
1.554931640625
1.3656005859375
1.5645996093749999
1.5331787109375
1.5162597656249999
3.037353515625
3.0357421875
2.410546875
2.7481201171875
1.7007568359374998
1.4236083984374999
0.252978515625
0.030615234374999998
0.02900390625
0.0668701171875
0.581689453125
0.7734375
0.8854248046875
1.1545166015625
1.2576416015624998
1.3873535156249999
1.619384765625
1.69833984375
1.6685302734374998
1.6645019531249998
1.635498046875
0.0298095703125
0.02900390625
1.0707275390625
0.7218749999999999
1.2415283203124998
1.6636962890625
2.745703125
3.0389648437499996
3.0357421875
2.570068359375
2.2671386718749997
2.0576660156249997
1.9472900390624999
1.7853515624999998
1.880419921875
1.670947265625
1.5976318359375
1.609716796875
1.4711425781249998
1.4977294921875
1.5082031249999999
1.5863525390625
3.0325195312499997
2.5265625
2.196240234375
1.7507080078125
1.3921875
0.7935791015625
0.0298095703125
0.0298095703125
0.02900390625
0.44150390624999997
0.775048828125
0.8830078124999999
1.1375976562499999
1.2624755859374999
1.4066894531249998
1.58232421875
1.7184814453125
1.635498046875
1.687060546875
1.6129394531249999
0.0298095703125
0.0281982421875
0.816943359375
0.926513671875
1.1770751953125
1.8248291015625
2.2614990234375
3.0365478515624997
3.037353515625
2.7158935546875
2.3340087890625
2.0874755859375
1.8981445312499998
1.9303710937499998
1.8304687499999999
1.7909912109375
1.67578125
1.4800048828124999
1.4542236328125
1.5267333984375
1.48564453125
1.496923828125
3.0397705078125
2.6901123046874997
2.1857666015625
2.10439453125
1.73056640625
0.8612548828125
0.02900390625
0.030615234374999998
0.02578125
0.41572265625
0.7057617187499999
0.8926757812499999
1.14404296875
1.2624755859374999
1.3712402343749999
1.6048828124999999
1.8006591796875
1.6959228515625
1.6669189453125
1.62744140625
1.5267333984375
0.02900390625
0.7637695312499999
0.9498779296875
1.24072265625
1.3156494140625
2.1946289062499997
3.0349365234374996
3.037353515625
2.70380859375
2.4234375
2.1277587890625
1.8498046874999998
1.8377197265624998
1.812744140625
1.7982421874999999
1.6371093749999999
1.571044921875
1.5750732421875
1.533984375
1.5251220703125
1.5484863281249999
3.0349365234374996
2.6619140624999997
2.5096435546875
2.199462890625
1.8361083984375
1.33740234375
0.0322265625
0.0298095703125
0.0298095703125
0.330322265625
0.6324462890625
0.8991210937499999
0.968408203125
1.235888671875
1.3543212890624998
1.458251953125
1.6322753906249998
1.667724609375
1.6943115234375
1.6411376953124999
1.58232421875
0.0298095703125
0.54140625
0.9643798828125
1.2802001953125
1.3188720703124999
1.8224121093749999
3.0357421875
3.0357421875
2.8359375
2.5007812499999997
2.14306640625
1.9384277343749998
1.9408447265625
1.8062988281249999
1.7861572265624999
1.5944091796875
1.542041015625
1.5009521484375
1.5380126953125
1.5533203125
1.5315673828124998
3.034130859375
3.0365478515624997
2.434716796875
2.3340087890625
1.72734375
1.335791015625
0.027392578124999997
0.026586914062499998
0.02900390625
0.2989013671875
0.605859375
0.8290283203125
1.06025390625
1.3059814453124998
1.327734375
1.458251953125
1.6266357421875
1.7072021484375
1.6234130859375
1.6556396484375
1.611328125
0.0281982421875
0.5244873046874999
0.9555175781249999
0.546240234375
1.5919921874999998
1.754736328125
2.744091796875
3.037353515625
2.8866943359375
2.5152832031249996
2.2365234375
1.9924072265625
1.9086181640625
1.819189453125
1.8522216796875
1.72412109375
1.56943359375
1.738623046875
1.5073974609374998
1.4703369140625
1.4679199218749999
3.0365478515624997
3.037353515625
2.2614990234375
2.5418701171875
1.6218017578125
1.4542236328125
0.4519775390625
0.0298095703125
0.02900390625
0.1313232421875
0.48017578125
0.8274169921875
0.9208740234374999
1.2262207031249999
1.2995361328125
1.4091064453125
1.587158203125
1.770849609375
1.638720703125
1.670947265625
1.6209960937499999
0.02900390625
0.0298095703125
0.813720703125
0.472119140625
1.554931640625
1.8699462890624998
2.6433837890625
3.0357421875
3.034130859375
2.698974609375
2.2566650390625
2.028662109375
1.91748046875
1.7692382812499998
1.8699462890624998
1.7700439453124999
1.5766845703124999
1.75634765625
1.5001464843749999
1.571044921875
1.5001464843749999
2.5885986328125
3.037353515625
2.289697265625
2.4991699218749996
2.151123046875
1.4526123046875
0.671923828125
0.026586914062499998
0.0298095703125
0.09345703124999999
0.48259277343749996
0.7541015624999999
0.8870361328124999
1.1045654296875
1.30517578125
1.3704345703124998
1.5944091796875
1.474365234375
1.7152587890625
1.6636962890625
1.6177734375
0.1152099609375
0.027392578124999997
0.7694091796875
1.0771728515624999
1.235888671875
1.8046875
2.350927734375
3.0381591796875
3.0357421875
2.68125
2.360595703125
2.051220703125
1.9118408203125
1.85625
1.8256347656249998
1.7233154296875
1.5218994140625
1.4912841796874998
1.4381103515625
1.5404296874999999
1.4888671875
1.4526123046875
3.0365478515624997
2.6143798828125
2.367041015625
2.173681640625
1.522705078125
1.0256103515625
0.0281982421875
0.02578125
0.02900390625
0.3391845703125
0.6952880859374999
0.9079833984375
1.0223876953125
1.27939453125
1.3664062499999998
1.561376953125
1.6427490234375
1.690283203125
1.6435546875
1.670947265625
0.5115966796875
0.02578125
0.717041015625
0.9732421874999999
1.2866455078124999
1.4526123046875
2.0093261718749997
3.0357421875
3.0357421875
2.7811523437499996
2.3396484374999997
2.099560546875
1.941650390625
1.8884765625
1.8820312499999998
1.791796875
1.683837890625
1.4655029296875
1.6185791015625
1.4550292968749998
1.5009521484375
1.464697265625
3.0381591796875
2.5877929687499996
2.3267578125
1.980322265625
1.9400390625
1.0481689453125
0.026586914062499998
0.030615234374999998
0.0314208984375
0.37382812499999996
0.6405029296875
0.87978515625
1.029638671875
1.255224609375
1.3946044921874998
1.5984375
1.654833984375
1.5525146484374999
1.6491943359374999
1.6435546875
1.5968261718749999
0.030615234374999998
0.655810546875
0.8467529296874999
0.9877441406249999
1.4284423828125
1.9376220703125
3.0389648437499996
3.0365478515624997
2.82626953125
2.4564697265624997
2.164013671875
1.9102294921874998
1.82080078125
1.8224121093749999
1.7684326171875
1.6604736328124998
1.5428466796875
1.6967285156249998
1.5218994140625
1.56298828125
1.5267333984375
3.0357421875
2.9140869140624996
2.3211181640625
2.0681396484375
1.8240234375
1.41796875
