1.14404296875
0.0298095703125
0.033032226562499996
0.02900390625
0.330322265625
0.913623046875
1.1432373046875
1.2310546875
1.5984375
1.4816162109375
1.5879638671874998
1.7362060546875
1.832080078125
1.7337890624999999
1.7128417968749998
1.6524169921874998
0.026586914062499998
0.15146484375
1.2834228515625
1.2511962890625
1.883642578125
2.0560546875
2.7303955078124997
3.0357421875
2.9221435546874996
2.238134765625
1.9706542968749998
1.748291015625
1.67900390625
1.5799072265624998
1.6927001953124998
1.6322753906249998
1.426025390625
1.6266357421875
1.4066894531249998
1.4518066406249999
1.47275390625
2.2421630859375
2.9769287109375
2.102783203125
1.9545410156249998
2.0334960937499997
1.1174560546874999
0.5647705078124999
0.0322265625
0.033032226562499996
0.3182373046875
0.734765625
1.0562255859375
1.2858398437499998
1.4542236328125
1.52109375
1.6040771484374998
1.714453125
1.5662109375
1.6604736328124998
1.6886718749999998
1.6242187499999998
0.5309326171875
0.11359863281249999
1.1367919921875
1.3317626953125
1.7168701171874998
2.109228515625
2.421826171875
3.0325195312499997
2.763427734375
2.3138671875
1.9811279296875
1.6733642578124999
1.635498046875
1.6314697265625
1.69189453125
1.63388671875
1.50498046875
1.6129394531249999
1.4236083984374999
1.5154541015624998
1.522705078125
1.796630859375
3.0357421875
2.325146484375
1.9311767578124999
2.1422607421874997
1.4461669921875
0.6163330078125
0.02900390625
0.02900390625
0.15871582031249998
0.791162109375
1.061865234375
1.2020507812499999
1.3921875
1.5347900390625
1.5863525390625
1.641943359375
1.703173828125
1.7853515624999998
1.674169921875
1.6322753906249998
1.32451171875
0.02900390625
1.0900634765625
1.2439453125
1.2028564453125
1.5283447265624999
2.4145751953125
3.0357421875
3.037353515625
2.38154296875
2.0117431640625
1.80791015625
1.62744140625
1.67900390625
1.6266357421875
1.6427490234375
1.4800048828124999
1.413134765625
1.51787109375
1.4574462890625
1.4896728515625
1.5267333984375
3.0365478515624997
2.312255859375
2.14951171875
1.8844482421875
1.533984375
0.9788818359375
0.0314208984375
0.022558593749999998
0.1200439453125
0.572021484375
0.9692138671874999
1.2536132812499998
1.3382080078124998
1.4896728515625
1.56943359375
1.690283203125
1.716064453125
1.7466796875
1.6894775390624999
1.674169921875
1.6177734375
0.0322265625
0.7951904296875
1.18271484375
1.2785888671874999
1.506591796875
2.099560546875
3.034130859375
3.0357421875
2.5837646484374996
2.13662109375
1.8409423828125
1.667724609375
1.71123046875
1.6846435546874998
1.67578125
1.6008544921874999
1.4195800781249999
1.442138671875
1.464697265625
1.47275390625
1.4832275390624998
3.0405761718749997
2.727978515625
2.17529296875
1.8715576171875
1.4300537109375
1.0336669921875
0.02900390625
0.02900390625
0.0298095703125
0.5768554687499999
0.9498779296875
1.2568359375
1.27939453125
1.506591796875
1.5541259765625
1.59521484375
1.738623046875
1.7208984374999998
1.6765869140624998
1.6604736328124998
1.6242187499999998
0.02578125
0.43425292968749996
1.2898681640624998
1.3269287109374999
1.9811279296875
2.0052978515624997
3.0333251953125
3.0349365234374996
2.615185546875
2.160791015625
1.867529296875
1.690283203125
1.67578125
1.60166015625
1.6693359374999999
1.5670166015625
1.4800048828124999
1.5960205078124998
1.4679199218749999
1.490478515625
1.5057861328125
2.921337890625
2.8166015625
1.9513183593749999
1.9916015624999999
1.3156494140625
1.1303466796875
0.5035400390625
0.02900390625
0.033837890625
0.4165283203125
0.928125
1.2423339843749999
1.255224609375
1.400244140625
1.4767822265625
1.5734619140625
1.7370117187499998
1.5533203125
1.7088134765624998
1.6935058593749999
1.65966796875
0.026586914062499998
0.28681640625
1.0828125
1.268115234375
1.9295654296875
2.070556640625
2.5144775390625
3.0357421875
2.7851806640624996
2.3420654296875
1.883642578125
1.69189453125
1.6056884765625
1.5944091796875
1.65966796875
1.619384765625
1.474365234375
1.63388671875
1.461474609375
1.4872558593749998
1.456640625
2.5394531249999996
3.0333251953125
2.2171875
1.9464843749999998
1.8369140625
1.1915771484375
0.5003173828124999
0.030615234374999998
0.0298095703125
0.24895019531249998
0.839501953125
1.100537109375
1.2399169921875
1.41796875
1.493701171875
1.577490234375
1.7152587890625
1.53076171875
1.722509765625
1.690283203125
1.658056640625
0.7395996093749999
0.02900390625
1.0771728515624999
1.3140380859374998
1.14404296875
2.064111328125
2.39765625
3.0349365234374996
3.0365478515624997
2.4322998046874997
2.038330078125
1.8119384765625
1.6290527343749999
1.622607421875
1.63388671875
1.5380126953125
1.4630859374999998
1.413134765625
1.538818359375
1.525927734375
1.4945068359375
1.4961181640624999
3.0365478515624997
2.305810546875
2.0496093749999997
1.931982421875
1.2721435546875
0.839501953125
0.0298095703125
0.0298095703125
0.207861328125
0.67998046875
1.010302734375
1.2777832031249998
1.3664062499999998
1.4896728515625
1.5726562499999999
1.6830322265625
1.7249267578124998
1.7152587890625
1.67900390625
1.6773925781249999
1.6427490234375
0.03544921875
0.9498779296875
1.155322265625
1.1279296875
1.5799072265624998
2.096337890625
3.0357421875
3.0357421875
2.5249511718749997
2.07861328125
1.754736328125
1.619384765625
1.6564453124999998
1.6733642578124999
1.6290527343749999
1.4920898437499999
1.46630859375
1.6427490234375
1.5114257812499998
1.5323730468749999
1.5033691406249998
3.0365478515624997
2.5636230468749996
2.08828125
1.85625
1.6371093749999999
0.913623046875
0.02900390625
0.0314208984375
0.0298095703125
0.65419921875
0.978076171875
1.2125244140625
1.3285400390625
1.48564453125
1.5541259765625
1.6161621093749998
1.722509765625
1.5944091796875
1.6814208984374999
1.6854492187499999
1.6185791015625
0.02900390625
0.9257080078125
1.1996337890625
1.276171875
1.9682373046875
2.07216796875
3.0365478515624997
3.0333251953125
2.5402587890625
2.112451171875
1.82080078125
1.6121337890624998
1.74345703125
1.6959228515625
1.72734375
1.6000488281249998
1.4373046875
1.361572265625
1.4356933593749999
1.4864501953125
1.4719482421874999
3.0333251953125
2.6562744140624996
1.96904296875
2.0471923828125
1.5138427734375
1.135986328125
0.0620361328125
0.02900390625
0.030615234374999998
0.468896484375
0.8934814453125
1.2383056640624999
1.2205810546875
1.5009521484375
1.525927734375
1.6475830078125
1.72734375
1.7088134765624998
1.6725585937499998
1.6612792968749999
1.6298583984375
0.0322265625
0.4439208984375
1.2044677734375
1.2753662109375
1.9625976562499998
2.0955322265625
2.5273681640624996
3.0357421875
2.8133789062499996
2.3050048828125
1.9118408203125
1.7096191406249999
1.670947265625
1.64677734375
1.69189453125
1.6218017578125
1.4598632812499999
1.56298828125
1.513037109375
1.4993408203124998
1.4735595703125
3.034130859375
3.0357421875
2.254248046875
2.0246337890625
1.5670166015625
1.1110107421875
0.39799804687499996
0.030615234374999998
0.0281982421875
0.2860107421875
0.855615234375
1.135986328125
1.2423339843749999
1.4356933593749999
1.506591796875
1.5589599609375
1.7120361328125
1.5839355468749998
1.6846435546874998
1.6846435546874998
1.6306640625
0.0298095703125
0.0322265625
1.155322265625
1.3108154296874999
1.1899658203124999
2.0326904296875
2.43955078125
3.037353515625
3.0204345703124997
2.29453125
1.973876953125
1.8054931640624998
1.7208984374999998
1.6604736328124998
1.6991455078125
1.6024658203125
1.46953125
1.3301513671874998
1.4783935546875
1.4888671875
1.4993408203124998
1.4864501953125
3.0397705078125
2.305810546875
1.928759765625
1.7426513671875
1.1794921875
0.7718261718749999
0.0281982421875
0.0281982421875
0.2038330078125
0.69609375
1.1456542968749999
1.284228515625
1.3954101562499999
1.48564453125
1.5791015625
1.6218017578125
1.8699462890624998
1.699951171875
1.662890625
1.654833984375
0.2634521484375
0.0322265625
1.026416015625
1.1625732421875
1.1480712890625
1.819189453125
2.1785156249999997
3.0349365234374996
3.034130859375
2.4903076171875
2.1664306640624997
1.7603759765625
1.6379150390625
1.6669189453125
1.6612792968749999
1.6290527343749999
1.5492919921875
1.364794921875
1.5476806640624998
1.4961181640624999
1.4961181640624999
1.4598632812499999
3.034130859375
2.41376953125
1.9714599609374999
1.9142578124999998
1.7136474609374999
0.816943359375
0.027392578124999997
0.033032226562499996
0.08056640625
0.6268066406249999
1.0062744140625
1.2374999999999998
1.3494873046875
1.4655029296875
1.5645996093749999
1.6685302734374998
1.7555419921875
1.625830078125
1.6765869140624998
1.64677734375
1.5831298828125
0.0298095703125
0.9966064453125
1.1923828125
1.3865478515624998
1.786962890625
2.1333984375
3.0349365234374996
3.0325195312499997
2.5394531249999996
2.1035888671875
1.8667236328124999
1.662890625
1.7015624999999999
1.6725585937499998
1.6685302734374998
1.5557373046874998
1.41796875
1.2995361328125
1.4356933593749999
1.5001464843749999
1.4896728515625
3.0349365234374996
2.5072265624999996
2.0657226562499997
1.9956298828124999
1.66611328125
1.1271240234375
0.02900390625
0.02900390625
0.054785156249999994
0.5285156249999999
0.9329589843749999
1.26328125
1.276171875
1.5146484375
1.5428466796875
1.5976318359375
1.7337890624999999
1.59521484375
1.6773925781249999
1.6403320312499998
1.609716796875
0.0314208984375
0.5824951171875
1.3285400390625
1.3494873046875
1.7901855468749999
2.03994140625
3.0349365234374996
3.0317138671875
2.6876953125
2.2171875
1.867529296875
1.6951171875
1.7176757812499999
1.654833984375
1.6483886718749998
1.56298828125
1.4655029296875
1.3470703124999999
1.5436523437499998
1.4880615234374999
1.4711425781249998
3.0349365234374996
3.0083496093749997
2.0052978515624997
2.0810302734375
1.3510986328124999
1.1448486328125
0.4165283203125
0.026586914062499998
0.026586914062499998
0.510791015625
0.910400390625
1.2101074218749999
1.22783203125
1.4493896484375
1.4791992187499998
1.5396240234374998
1.703173828125
1.7934082031249998
1.7015624999999999
1.6846435546874998
1.658056640625
0.0298095703125
0.526904296875
1.297119140625
1.3301513671874998
1.4993408203124998
1.9916015624999999
2.6095458984374997
3.0357421875
2.698974609375
2.2623046875
1.9142578124999998
1.670947265625
1.6636962890625
1.6620849609375
1.6951171875
1.603271484375
1.4381103515625
1.4526123046875
1.5114257812499998
1.4840332031249999
1.4920898437499999
3.0365478515624997
3.034130859375
2.222021484375
1.8989501953124999
1.3986328124999998
1.1190673828125
0.7049560546875
0.030615234374999998
0.02900390625
0.2876220703125
0.742822265625
1.1561279296875
1.2673095703125
1.4026611328124998
1.5299560546875
1.5815185546875
1.719287109375
1.6822265625
1.638720703125
1.6773925781249999
1.6443603515624998
0.0298095703125
0.030615234374999998
1.0336669921875
1.2955078125
1.30517578125
1.9440673828125
2.5394531249999996
3.034130859375
3.0357421875
2.4484130859374997
1.9956298828124999
1.7587646484375
1.64677734375
1.65966796875
1.6967285156249998
1.6781982421875
1.5678222656249998
1.3575439453125
1.4316650390624999
1.4945068359375
1.477587890625
1.47275390625
3.034130859375
2.2510253906249997
1.9078125
2.075390625
1.6209960937499999
0.720263671875
0.0201416015625
0.0298095703125
0.2634521484375
0.749267578125
1.055419921875
1.2334716796875
1.3849365234375
1.47275390625
1.5331787109375
1.722509765625
1.8796142578125
1.7096191406249999
1.6717529296875
1.6314697265625
1.6209960937499999
0.02900390625
1.06025390625
1.2262207031249999
1.3639892578125
1.8739746093749998
2.254248046875
3.0405761718749997
2.9761230468749997
2.450830078125
2.0439697265625
1.7700439453124999
1.6137451171875
1.6475830078125
1.590380859375
1.5976318359375
1.4928955078125
1.5235107421874998
1.5283447265624999
1.5484863281249999
1.558154296875
1.5009521484375
3.037353515625
2.4049072265625
2.1422607421874997
1.9867675781249998
1.6798095703125
1.0803955078125
0.0314208984375
0.02900390625
0.1152099609375
0.5849121093749999
1.042529296875
1.2181640624999999
1.2826171874999999
1.506591796875
1.5283447265624999
1.6008544921874999
1.7539306640624999
1.6781982421875
1.6862548828125
1.66611328125
1.6121337890624998
0.030615234374999998
0.6920654296875
1.2818115234374998
1.3172607421875
1.62744140625
2.0101318359375
3.034130859375
3.034130859375
2.6619140624999997
2.08828125
1.828857421875
1.667724609375
1.703173828125
1.6701416015625
1.6806152343749998
1.5831298828125
1.4622802734375
1.3543212890624998
1.4993408203124998
1.4993408203124998
1.46953125
3.0357421875
2.898779296875
2.14306640625
2.0069091796875
1.284228515625
1.1271240234375
0.0281982421875
0.0298095703125
0.02578125
0.5204589843749999
0.9289306640624999
1.197216796875
1.2503906249999999
1.5670166015625
1.4920898437499999
1.6669189453125
1.6830322265625
1.8046875
1.651611328125
1.6403320312499998
1.6564453124999998
0.02900390625
0.6348632812499999
1.3059814453124998
1.2350830078125
1.754736328125
2.0713623046875
2.6385498046875
3.0349365234374996
2.7110595703125
2.2518310546875
1.9625976562499998
1.7072021484375
1.6894775390624999
1.577490234375
1.651611328125
1.5927978515624999
1.432470703125
1.6089111328124999
1.482421875
1.4791992187499998
1.4864501953125
3.034130859375
2.995458984375
2.1180908203124997
1.9053955078125
1.276171875
1.147265625
0.59619140625
0.0314208984375
0.027392578124999997
0.3794677734375
0.77666015625
1.1641845703125
1.22783203125
1.393798828125
1.474365234375
1.593603515625
1.7176757812499999
1.843359375
1.67578125
1.6854492187499999
1.6290527343749999
0.02900390625
0.06767578125
1.1077880859375
1.327734375
1.6781982421875
2.101171875
2.3799316406249997
3.0349365234374996
2.8431884765624997
2.405712890625
1.9086181640625
1.7104248046875
1.6306640625
1.585546875
1.7281494140625
1.6169677734374999
1.5057861328125
1.5734619140625
1.4373046875
1.5033691406249998
1.4655029296875
1.662890625
3.0349365234374996
2.204296875
1.9279541015625
2.09150390625
1.4518066406249999
0.6614501953124999
0.02900390625
0.02900390625
0.3343505859375
0.8104980468749999
1.068310546875
1.2383056640624999
1.4373046875
1.53076171875
1.538818359375
1.7217041015624999
1.699951171875
1.722509765625
1.654833984375
1.6491943359374999
1.46953125
0.0281982421875
1.042529296875
1.2536132812499998
1.2528076171875
2.0600830078125
2.3936279296875
3.037353515625
2.9583984374999996
2.3952392578125
2.0173828124999997
1.8167724609375
1.670947265625
1.6975341796874999
1.6943115234375
1.6169677734374999
1.496923828125
1.42119140625
1.4026611328124998
1.4864501953125
1.445361328125
1.51787109375
3.0357421875
2.3195068359374997
2.1342041015624997
2.1390380859375
1.571044921875
1.0489746093749999
0.02900390625
0.0298095703125
0.141796875
0.55751953125
1.061865234375
1.2511962890625
1.3019531249999998
1.525927734375
1.5799072265624998
1.6854492187499999
1.6733642578124999
1.6886718749999998
1.6483886718749998
1.6363037109374998
1.5895751953125
0.0298095703125
0.775048828125
1.1794921875
1.2826171874999999
1.4945068359375
2.0625
3.0357421875
3.034130859375
2.6401611328124996
2.1301757812499997
1.8473876953125
1.69189453125
1.7297607421874999
1.69189453125
1.662890625
1.5895751953125
1.4171630859375
1.4751708984374998
1.5041748046874999
1.5218994140625
1.4791992187499998
3.0365478515624997
2.7384521484374997
2.164013671875
1.9223144531249998
1.44052734375
1.0650878906249999
0.027392578124999997
0.02900390625
0.02900390625
0.5905517578125
0.9651855468749999
1.1923828125
1.27294921875
1.4912841796874998
1.5299560546875
1.6411376953124999
1.751513671875
1.7450683593749998
1.6733642578124999
1.6443603515624998
1.5831298828125
0.02900390625
0.758935546875
1.2673095703125
1.2608642578125
1.5654052734375
1.98837890625
3.0365478515624997
3.037353515625
2.642578125
2.1712646484375
1.9110351562499999
1.6363037109374998
1.7088134765624998
1.6298583984375
1.6564453124999998
1.5299560546875
1.461474609375
1.641943359375
1.5243164062499999
1.525927734375
1.4977294921875
3.0357421875
2.8391601562499997
2.0052978515624997
1.9867675781249998
1.2689208984375
1.1093994140624999
0.5873291015625
0.027392578124999997
0.02900390625
0.391552734375
0.95390625
1.1939941406249999
1.2093017578125
1.4550292968749998
1.464697265625
1.5533203125
1.7329833984374998
1.8409423828125
1.7104248046875
1.6685302734374998
1.6234130859375
0.02578125
0.19497070312499998
1.0658935546875
1.26328125
1.8054931640624998
2.0560546875
2.771484375
3.0365478515624997
2.8625244140625
2.2429687499999997
1.9464843749999998
1.7297607421874999
1.6403320312499998
1.5645996093749999
1.67578125
1.6048828124999999
1.448583984375
1.6379150390625
1.4542236328125
1.4759765624999999
1.4759765624999999
2.333203125
3.0349365234374996
2.0496093749999997
1.9279541015625
1.9053955078125
1.1690185546875
0.6179443359375
0.0201416015625
0.024169921875
0.3279052734375
0.7871337890625
1.1110107421875
1.2399169921875
1.4203857421875
1.4840332031249999
1.538818359375
1.674169921875
1.525927734375
1.7176757812499999
1.6765869140624998
1.6564453124999998
0.8693115234375
0.1635498046875
1.0892578124999999
1.3027587890624999
1.12470703125
2.0625
2.3388427734375
3.0365478515624997
2.9068359375
2.3557617187499997
2.018994140625
1.7257324218749999
1.6886718749999998
1.7007568359374998
1.719287109375
1.619384765625
1.45341796875
1.4147460937499998
1.4107177734374998
1.49853515625
1.490478515625
1.8989501953124999
3.0365478515624997
2.3009765625
2.09150390625
2.0778076171874997
1.368017578125
0.8572265625
0.02578125
0.02900390625
0.1861083984375
0.6533935546874999
1.07958984375
1.255224609375
1.3269287109374999
1.5017578125
1.5267333984375
1.6330810546874999
1.65
1.7378173828124999
1.6604736328124998
1.651611328125
1.3140380859374998
0.0281982421875
0.881396484375
1.2495849609374998
1.1416259765624999
1.6129394531249999
2.3372314453125
3.034130859375
3.034130859375
2.570068359375
2.023828125
1.7781005859374999
1.6435546875
1.619384765625
1.6169677734374999
1.638720703125
1.5122314453124999
1.46953125
1.60166015625
1.4864501953125
1.51787109375
1.5170654296875
3.0333251953125
2.3178955078125
2.1462890624999997
1.8892822265625
1.5267333984375
1.010302734375
0.030615234374999998
0.02900390625
0.1377685546875
0.6147216796875
0.9498779296875
1.2109130859375
1.3204833984375
1.4800048828124999
1.5082031249999999
1.5992431640625
1.699951171875
1.5960205078124998
1.654833984375
1.699951171875
1.6056884765625
0.0281982421875
0.8346679687499999
1.19560546875
1.2987304687499999
1.5033691406249998
2.0778076171874997
3.0357421875
3.0365478515624997
2.5652343749999997
2.1809326171875
1.82080078125
1.67578125
1.7152587890625
1.7523193359375
1.67900390625
1.590380859375
1.4316650390624999
1.513037109375
1.4953124999999998
1.5122314453124999
1.4791992187499998
3.034130859375
2.7021972656249997
1.9521240234375
1.8900878906249998
1.4389160156249998
1.1819091796874999
0.02900390625
0.02578125
0.0281982421875
0.4189453125
0.95390625
1.1754638671875
1.20849609375
1.5315673828124998
1.5267333984375
1.658056640625
1.699951171875
1.6443603515624998
1.6572509765624999
1.6491943359374999
1.5984375
0.02900390625
0.3391845703125
1.2383056640624999
1.2544189453124999
1.9666259765624998
2.0173828124999997
2.771484375
3.037353515625
2.8359375
2.2147705078124997
1.92392578125
1.740234375
1.7418457031249999
1.651611328125
1.719287109375
1.5895751953125
1.458251953125
1.513037109375
1.4840332031249999
1.4872558593749998
1.4840332031249999
3.003515625
2.8238525390625
2.0310791015625
2.0737792968749997
1.3897705078125
1.18271484375
0.502734375
0.0298095703125
0.02900390625
0.37785644531249996
0.78310546875
1.1375976562499999
1.1899658203124999
1.3768798828125
1.5073974609374998
1.577490234375
1.748291015625
1.606494140625
1.699951171875
1.6701416015625
1.6185791015625
0.030615234374999998
0.2586181640625
1.087646484375
1.281005859375
1.87236328125
2.0794189453125
2.49755859375
3.0381591796875
2.7996826171875
2.3799316406249997
1.9142578124999998
1.6830322265625
1.6701416015625
1.6121337890624998
1.7088134765624998
1.62744140625
1.5517089843749998
1.667724609375
1.49853515625
1.5146484375
1.490478515625
2.5499267578125
3.0365478515624997
2.36220703125
2.0343017578125
1.8788085937499999
1.2777832031249998
0.5849121093749999
0.0298095703125
0.027392578124999997
0.1699951171875
0.7549072265625
1.03125
1.216552734375
1.4171630859375
1.4864501953125
1.5484863281249999
1.6951171875
1.5017578125
1.7104248046875
1.67900390625
1.6572509765624999
0.555908203125
0.027392578124999997
1.0167480468749999
1.2890625
1.0731445312499999
2.083447265625
2.521728515625
3.034130859375
3.0357421875
2.450830078125
2.1116455078125
1.8369140625
1.716064453125
1.6894775390624999
1.6935058593749999
1.63388671875
1.4816162109375
1.432470703125
1.5565429687499999
1.4953124999999998
1.4622802734375
1.4437499999999999
3.0357421875
2.3340087890625
2.096337890625
1.973876953125
1.3027587890624999
0.837890625
0.033032226562499996
0.0281982421875
0.13212890624999998
0.5712158203125
0.9047607421874999
1.2254150390625
1.2568359375
1.3865478515624998
1.5355957031249998
1.6806152343749998
1.706396484375
1.7208984374999998
1.6564453124999998
1.670947265625
1.6081054687499998
0.0298095703125
0.8370849609375
1.0634765625
1.0530029296874999
1.542041015625
2.1358154296875
3.0325195312499997
3.0365478515624997
2.6321044921874996
2.2308837890624997
1.8167724609375
1.6822265625
1.670947265625
1.6878662109375
1.6765869140624998
1.590380859375
1.4469726562499998
1.6242187499999998
1.4735595703125
1.5267333984375
1.5001464843749999
3.0357421875
2.6804443359374996
2.1865722656249997
1.9472900390624999
1.7490966796874998
0.85400390625
0.0298095703125
0.0298095703125
0.030615234374999998
0.5953857421875
0.8870361328124999
1.1150390625
1.2656982421874998
1.42119140625
1.5170654296875
1.619384765625
1.7716552734375
1.6105224609375
1.719287109375
1.6846435546874998
1.606494140625
0.0298095703125
0.40605468749999996
1.1110107421875
1.2286376953125
1.8876708984375
2.0729736328125
3.0309082031249996
3.0333251953125
2.6723876953124996
2.2437744140625
1.9182861328124998
1.7096191406249999
1.6927001953124998
1.6725585937499998
1.6878662109375
1.546875
1.4751708984374998
1.4066894531249998
1.4993408203124998
1.509814453125
1.506591796875
3.0365478515624997
2.76181640625
2.038330078125
2.1583740234374997
1.6185791015625
1.1996337890625
0.4229736328125
0.0298095703125
0.0249755859375
0.3585205078125
0.7806884765625
1.09892578125
1.1432373046875
1.3801025390625
1.4598632812499999
1.55009765625
1.7088134765624998
1.703173828125
1.6781982421875
1.6822265625
1.651611328125
0.022558593749999998
0.31662597656249997
1.1545166015625
1.21494140625
1.9625976562499998
2.05927734375
2.616796875
3.0333251953125
2.818212890625
2.4113525390625
1.9811279296875
1.7571533203124998
1.6701416015625
1.6717529296875
1.7257324218749999
1.6379150390625
1.4429443359374998
1.44052734375
1.4791992187499998
1.4630859374999998
1.47275390625
3.0365478515624997
3.034130859375
2.3662353515625
2.125341796875
1.6604736328124998
1.1867431640625
0.16435546874999998
0.0298095703125
0.02900390625
0.21672363281249998
0.7138183593749999
1.0143310546875
1.148876953125
1.3801025390625
1.4348876953124998
1.53720703125
1.7289550781249998
1.6290527343749999
1.6854492187499999
1.67578125
1.638720703125
0.026586914062499998
0.02900390625
1.03447265625
1.200439453125
1.0836181640625
2.0713623046875
2.5233398437499996
3.0446044921874997
3.0365478515624997
2.4604980468749997
2.11083984375
1.8522216796875
1.7466796875
1.6645019531249998
1.6878662109375
1.662890625
1.490478515625
1.3156494140625
1.47275390625
1.4655029296875
1.5041748046874999
1.4767822265625
3.0357421875
2.4065185546875
2.0496093749999997
1.8256347656249998
1.2052734375
0.7178466796874999
0.0281982421875
0.02900390625
0.182080078125
0.58974609375
1.0159423828125
1.1295410156249999
1.2656982421874998
1.4228027343749998
1.5243164062499999
1.5992431640625
1.8635009765625
1.722509765625
1.690283203125
1.69189453125
1.6121337890624998
0.0281982421875
0.9216796875
1.095703125
1.0675048828125
1.7539306640624999
2.1503173828124997
3.0389648437499996
3.0357421875
2.6055175781249997
2.238134765625
1.864306640625
1.6588623046875
1.6717529296875
1.63388671875
1.6169677734374999
1.5114257812499998
1.4518066406249999
1.5670166015625
1.4880615234374999
1.4751708984374998
1.4993408203124998
3.0365478515624997
2.550732421875
2.1293701171875
1.9988525390624998
1.8224121093749999
0.8685058593749999
0.0298095703125
0.0314208984375
0.0298095703125
0.5486572265624999
0.8354736328125
1.1214843749999999
1.297119140625
1.4542236328125
1.546875
1.5919921874999998
1.764404296875
1.61455078125
1.7128417968749998
1.674169921875
1.6209960937499999
0.02900390625
0.4922607421875
1.023193359375
1.229443359375
1.6620849609375
2.1704589843749997
3.0349365234374996
3.0357421875
2.6748046875
2.2679443359375
1.9859619140625
1.8280517578125
1.75634765625
1.732177734375
1.716064453125
1.5839355468749998
1.4276367187499999
1.2568359375
1.4115234374999999
1.4308593749999998
1.4228027343749998
3.0365478515624997
2.6458007812499997
2.14306640625
2.1503173828124997
1.7772949218749998
1.1690185546875
0.0314208984375
0.030615234374999998
0.0298095703125
0.3585205078125
0.7468505859375
1.1593505859375
1.142431640625
1.4195800781249999
1.5202880859374999
1.6540283203125
1.69833984375
1.8264404296874999
1.7104248046875
1.641943359375
1.635498046875
0.030615234374999998
0.427001953125
1.187548828125
1.2342773437499999
1.819189453125
2.03994140625
2.6852783203125
3.0349365234374996
2.80048828125
2.3646240234375
1.964208984375
1.7635986328125
1.740234375
1.533984375
1.7442626953125
1.66611328125
1.509814453125
1.297119140625
1.4800048828124999
1.4526123046875
1.474365234375
3.0357421875
3.037353515625
2.2888916015625
2.199462890625
1.3857421875
1.1013427734374999
0.1973876953125
0.0314208984375
0.030615234374999998
0.1812744140625
0.7178466796874999
1.045751953125
1.16337890625
1.3792968749999999
1.4526123046875
1.538818359375
1.7458740234374999
1.82724609375
1.7289550781249998
1.7128417968749998
1.6451660156249999
0.0281982421875
0.0298095703125
1.16015625
1.2439453125
1.3261230468749998
2.022216796875
2.7416748046875
3.0349365234374996
3.021240234375
2.3436767578124997
1.9754882812499999
1.7555419921875
1.6395263671875
1.59521484375
1.7217041015624999
1.5428466796875
1.4542236328125
1.409912109375
1.368017578125
1.5033691406249998
1.50498046875
1.474365234375
3.0333251953125
2.31708984375
1.941650390625
1.413134765625
1.0127197265624999
0.604248046875
0.027392578124999997
0.0298095703125
0.1780517578125
0.607470703125
1.026416015625
1.174658203125
1.3414306640625
1.4518066406249999
1.5686279296874999
1.7337890624999999
1.9062011718749998
1.7184814453125
1.7289550781249998
1.66611328125
0.0298095703125
0.02900390625
1.0094970703125
1.168212890625
1.1867431640625
1.9658203125
2.4604980468749997
3.034130859375
3.0365478515624997
2.5845703125
2.0552490234375
1.8062988281249999
1.67900390625
1.6862548828125
1.71123046875
1.65966796875
1.5726562499999999
1.2882568359375
1.4558349609374999
1.4518066406249999
1.4671142578124998
1.4493896484375
3.0357421875
2.4758056640625
2.00771484375
2.2437744140625
1.7611816406249998
0.6743408203125
0.027392578124999997
0.02900390625
0.030615234374999998
0.5607421874999999
0.91201171875
1.164990234375
1.3124267578125
1.44052734375
1.5275390624999998
1.732177734375
1.87236328125
1.6693359374999999
1.6693359374999999
1.6588623046875
1.6346923828125
0.02900390625
0.9257080078125
1.0513916015625
1.3341796874999998
1.78857421875
2.260693359375
3.0309082031249996
3.034130859375
2.608740234375
2.2405517578125
1.9593749999999999
1.72412109375
1.7152587890625
1.6927001953124998
1.6508056640625
1.5605712890624999
1.442138671875
1.3559326171875
1.4735595703125
1.4671142578124998
1.4864501953125
3.0365478515624997
2.5225341796875
2.2776123046875
2.0906982421875
1.8546386718749999
1.0900634765625
0.030615234374999998
0.0281982421875
0.02578125
0.42539062499999997
0.8693115234375
1.084423828125
1.1496826171874999
1.4945068359375
1.554931640625
1.6282470703124998
1.7797119140625
1.6943115234375
1.7499023437499999
1.67578125
1.6322753906249998
0.027392578124999997
0.5502685546875
1.1915771484375
1.2745605468749999
1.6411376953124999
1.98515625
3.0357421875
3.0349365234374996
2.760205078125
2.1970458984375
1.9142578124999998
1.7208984374999998
1.754736328125
1.7410400390624998
1.6991455078125
1.5428466796875
1.4518066406249999
1.2753662109375
1.5114257812499998
1.496923828125
1.4993408203124998
3.0357421875
3.037353515625
2.2373291015625
2.1873779296875
1.3341796874999998
1.1448486328125
0.026586914062499998
0.033837890625
0.026586914062499998
0.3552978515625
0.7549072265625
1.013525390625
1.1375976562499999
1.5033691406249998
1.4800048828124999
1.5919921874999998
1.7329833984374998
1.8635009765625
1.6846435546874998
1.6967285156249998
1.6717529296875
0.02578125
0.4358642578125
1.239111328125
1.2020507812499999
1.6491943359374999
2.0471923828125
2.81982421875
3.0389648437499996
2.8335205078124996
2.384765625
2.051220703125
1.7394287109375
1.699951171875
1.59521484375
1.67578125
1.6161621093749998
1.409912109375
1.5299560546875
1.474365234375
1.4364990234375
1.4735595703125
3.0333251953125
3.037353515625
2.260693359375
2.01416015625
1.3124267578125
1.1996337890625
0.646142578125
0.0281982421875
0.0298095703125
0.2135009765625
0.572021484375
1.0062744140625
1.12470703125
1.3148437499999999
1.44052734375
1.5863525390625
1.74345703125
1.8651123046875
1.6935058593749999
1.714453125
1.6556396484375
0.0314208984375
0.0322265625
0.958740234375
1.19560546875
1.4848388671875
2.0359130859375
2.6385498046875
3.0357421875
3.0389648437499996
2.57490234375
2.0520263671875
1.7926025390625
1.7104248046875
1.6177734375
1.6991455078125
1.603271484375
1.4518066406249999
1.4687255859375
1.380908203125
1.4800048828124999
1.4816162109375
1.5509033203125
3.0325195312499997
2.3098388671875
2.031884765625
2.3485107421875
1.1835205078125
0.6098876953125
0.02900390625
0.0298095703125
0.18852539062499998
0.610693359375
0.894287109375
1.095703125
1.348681640625
1.48564453125
1.542041015625
1.6427490234375
1.8393310546875
1.780517578125
1.670947265625
1.619384765625
1.5396240234374998
0.0281982421875
0.97001953125
1.16337890625
1.190771484375
1.98515625
2.392822265625
3.0357421875
3.0333251953125
2.5571777343749997
2.1946289062499997
1.848193359375
1.7023681640625
1.6717529296875
1.6475830078125
1.6935058593749999
1.5605712890624999
1.4501953125
1.4034667968749999
1.480810546875
1.4791992187499998
1.4719482421874999
3.0365478515624997
2.4532470703125
2.3138671875
2.2913085937499997
1.7217041015624999
1.0836181640625
0.0314208984375
0.030615234374999998
0.0281982421875
0.42539062499999997
0.8838134765625
1.1214843749999999
1.2374999999999998
1.46630859375
1.5162597656249999
1.6081054687499998
1.8788085937499999
1.740234375
1.69833984375
1.6910888671875
1.6153564453125
0.02578125
0.6888427734375
1.0948974609375
1.2270263671875
1.4501953125
2.051220703125
3.034130859375
3.0325195312499997
2.747314453125
2.1986572265624997
1.9215087890625
1.7611816406249998
1.7587646484375
1.7184814453125
1.735400390625
1.6161621093749998
1.4187744140624998
1.35673828125
1.44052734375
1.4687255859375
1.4800048828124999
3.037353515625
2.4484130859374997
2.263916015625
2.0761962890625
1.4493896484375
1.116650390625
0.0298095703125
0.02900390625
0.030615234374999998
0.3802734375
0.7549072265625
1.0836181640625
1.171435546875
1.4461669921875
1.4711425781249998
1.7023681640625
1.7490966796874998
1.8312744140625
1.7257324218749999
1.6862548828125
1.6105224609375
0.030615234374999998
0.580078125
1.18916015625
1.1480712890625
1.56298828125
2.031884765625
2.9833740234375
3.037353515625
2.7658447265625
2.3074218749999997
2.0012695312499997
1.7337890624999999
1.703173828125
1.5782958984375
1.6733642578124999
1.6153564453125
1.4848388671875
1.6927001953124998
1.477587890625
1.4783935546875
1.4542236328125
3.0365478515624997
3.034130859375
2.115673828125
2.1519287109375
1.35673828125
1.1545166015625
0.476953125
0.02900390625
0.030615234374999998
0.2747314453125
0.7951904296875
1.077978515625
1.110205078125
1.332568359375
1.4687255859375
1.5766845703124999
1.7619873046874999
1.8868652343749999
1.6943115234375
1.6894775390624999
1.6218017578125
0.0298095703125
0.037060546874999996
0.9240966796875
1.1577392578124999
1.7410400390624998
2.0576660156249997
2.9640380859374997
3.0357421875
2.9688720703125
2.3694580078125
2.0230224609375
1.8240234375
1.7120361328125
1.6153564453125
1.7362060546875
1.658056640625
1.4526123046875
1.6153564453125
1.3712402343749999
1.4751708984374998
1.4800048828124999
2.1543457031249997
3.037353515625
2.1809326171875
2.0826416015625
2.173681640625
1.1537109374999999
0.5551025390625
0.027392578124999997
0.02900390625
0.20947265625
0.613916015625
0.9112060546874999
1.0803955078125
1.3704345703124998
1.4655029296875
1.525927734375
1.7088134765624998
1.5734619140625
1.7716552734375
1.699951171875
1.6483886718749998
1.206884765625
0.027392578124999997
0.9804931640625
1.1867431640625
1.0812011718749999
2.0552490234375
2.4903076171875
3.0357421875
3.037353515625
2.5434814453124996
2.1922119140625
1.8699462890624998
1.7442626953125
1.7345947265625
1.716064453125
1.6403320312499998
1.5662109375
1.3986328124999998
1.3285400390625
1.416357421875
1.429248046875
1.6935058593749999
3.0365478515624997
2.4016845703125
2.2324951171875
2.2502197265625
1.490478515625
0.9176513671875
0.0314208984375
0.026586914062499998
0.1297119140625
0.44230957031249996
0.87978515625
1.095703125
1.22783203125
1.482421875
1.5243164062499999
1.6749755859375
1.7047851562499998
1.7853515624999998
1.69833984375
1.6991455078125
1.4872558593749998
0.02900390625
0.7863281249999999
1.155322265625
1.1271240234375
1.393798828125
2.4113525390625
3.0349365234374996
3.0365478515624997
2.7134765625
2.1946289062499997
1.89169921875
1.6991455078125
1.6427490234375
1.6435546875
1.6806152343749998
1.496923828125
1.4373046875
1.5879638671874998
1.4759765624999999
1.4759765624999999
1.4872558593749998
3.0365478515624997
2.441162109375
2.30419921875
2.0093261718749997
1.587158203125
0.966796875
0.0281982421875
0.0314208984375
0.033837890625
0.45761718749999997
0.8435302734375
1.0868408203125
1.19560546875
1.380908203125
1.5251220703125
1.5960205078124998
1.7772949218749998
1.7249267578124998
1.722509765625
1.6765869140624998
1.5927978515624999
0.0298095703125
0.752490234375
1.1545166015625
1.2463623046874999
1.4477783203124999
2.0600830078125
3.037353515625
3.0325195312499997
2.6876953125
2.3098388671875
1.980322265625
1.740234375
1.740234375
1.7120361328125
1.6943115234375
1.6137451171875
1.4638916015624999
1.474365234375
1.4687255859375
1.493701171875
1.456640625
3.0325195312499997
2.8472167968749997
2.0181884765625
2.0326904296875
1.5138427734375
1.1923828125
0.36577148437499996
0.0298095703125
0.02900390625
0.2578125
0.7871337890625
1.08603515625
1.1375976562499999
1.4219970703125
1.5073974609374998
1.5758789062499998
1.6991455078125
1.7047851562499998
1.683837890625
1.6830322265625
1.62744140625
0.0298095703125
0.159521484375
0.9772705078124999
1.1480712890625
1.920703125
2.05283203125
2.827880859375
3.0325195312499997
2.98095703125
2.389599609375
2.0955322265625
1.8925048828125
1.7458740234374999
1.6846435546874998
1.7152587890625
1.625830078125
1.44052734375
1.545263671875
1.4526123046875
1.4953124999999998
1.4622802734375
2.9334228515625
3.0349365234374996
2.0681396484375
2.115673828125
1.844970703125
1.1915771484375
0.22236328125
0.0281982421875
0.02900390625
0.3037353515625
0.6912597656249999
0.95068359375
1.0965087890625
1.3591552734374999
1.45341796875
1.509814453125
1.7128417968749998
1.5218994140625
1.6967285156249998
1.71123046875
1.6927001953124998
0.24814453125
0.026586914062499998
0.9788818359375
1.1980224609374999
1.0675048828125
2.0890869140625
2.5201171875
3.037353515625
2.9430908203125
2.466943359375
2.080224609375
1.819189453125
1.6935058593749999
1.6443603515624998
1.706396484375
1.6685302734374998
1.493701171875
1.36962890625
1.4679199218749999
1.5162597656249999
1.4896728515625
1.47275390625
3.0357421875
2.3920166015624997
2.1084228515625
1.9827392578124998
1.2979248046874998
0.81533203125
0.0298095703125
0.02900390625
0.1313232421875
0.5599365234375
0.9555175781249999
1.1142333984375
1.2616699218749998
1.4461669921875
1.55009765625
1.6056884765625
1.791796875
1.75634765625
1.6910888671875
1.674169921875
0.652587890625
0.0322265625
0.8185546874999999
1.0207763671874999
1.0086914062499999
1.6048828124999999
2.1599853515625
3.0389648437499996
3.034130859375
2.6353271484375
2.1019775390624997
1.861083984375
1.7168701171874998
1.7233154296875
1.67900390625
1.69833984375
1.6000488281249998
1.43408203125
1.6072998046875
1.45341796875
1.4816162109375
1.4840332031249999
3.034130859375
2.591015625
2.151123046875
1.98515625
1.8151611328125
0.881396484375
0.02900390625
0.0298095703125
0.0249755859375
0.5051513671875
0.8451416015625
1.11826171875
1.2826171874999999
1.4276367187499999
1.4791992187499998
1.6765869140624998
1.72412109375
1.590380859375
1.706396484375
1.6564453124999998
1.60166015625
0.02900390625
0.8121093749999999
1.0546142578125
1.252001953125
1.5073974609374998
2.1205078125
3.0325195312499997
3.0333251953125
2.6941406249999997
2.3098388671875
2.0093261718749997
1.7104248046875
1.7047851562499998
1.72412109375
1.7587646484375
1.6209960937499999
1.4550292968749998
1.29228515625
1.4445556640625
1.4791992187499998
1.513037109375
3.0389648437499996
2.682861328125
2.0665283203125
2.08828125
1.7136474609374999
1.2109130859375
0.027392578124999997
0.033032226562499996
0.030615234374999998
0.36577148437499996
0.7194580078124999
1.0771728515624999
1.0965087890625
1.384130859375
1.50498046875
1.574267578125
1.7200927734375
1.590380859375
1.7023681640625
1.6846435546874998
1.6604736328124998
0.0314208984375
0.41330566406249997
1.2157470703125
1.264892578125
1.8578613281249998
1.973876953125
2.5934326171874997
3.0357421875
2.80048828125
2.3904052734375
1.9714599609374999
1.799853515625
1.732177734375
1.65966796875
1.670947265625
1.5654052734375
1.4791992187499998
1.3986328124999998
1.5017578125
1.4655029296875
1.5009521484375
3.0349365234374996
3.0325195312499997
2.1003662109375
2.165625
1.4767822265625
1.1222900390625
0.4471435546875
0.030615234374999998
0.02900390625
0.3585205078125
0.7935791015625
1.01513671875
1.1351806640625
1.3656005859375
1.4155517578124999
1.5122314453124999
1.7378173828124999
1.7595703125
1.7096191406249999
1.6943115234375
1.6475830078125
0.0322265625
0.02900390625
1.1110107421875
1.1690185546875
1.252001953125
1.980322265625
2.6192138671875
3.034130859375
2.85849609375
2.425048828125
2.0737792968749997
1.8344970703124999
1.7531249999999998
1.7152587890625
1.7378173828124999
1.6645019531249998
1.4655029296875
1.3156494140625
1.3986328124999998
1.48564453125
1.50498046875
1.4622802734375
3.0333251953125
2.3533447265625
2.01416015625
1.6129394531249999
1.1770751953125
0.726708984375
0.030615234374999998
0.02900390625
0.16274414062499998
0.597802734375
0.974853515625
1.0997314453125
1.2697265624999998
1.416357421875
1.574267578125
1.73056640625
1.8796142578125
1.6765869140624998
1.6894775390624999
1.6733642578124999
0.0298095703125
0.026586914062499998
0.9369873046874999
1.068310546875
1.077978515625
1.7571533203124998
2.241357421875
3.0389648437499996
3.034130859375
2.6176025390624997
2.1551513671875
1.8900878906249998
1.7265380859375
1.6943115234375
1.7168701171874998
1.66611328125
1.6185791015625
1.32451171875
1.4429443359374998
1.4445556640625
1.4501953125
1.4510009765624998
3.0333251953125
2.44921875
2.08828125
2.1567626953125
1.7861572265624999
0.7291259765625
0.0298095703125
0.030615234374999998
0.0620361328125
0.61552734375
0.9152343749999999
1.1045654296875
1.2834228515625
1.4510009765624998
1.542041015625
1.6564453124999998
1.85625
1.683837890625
1.6781982421875
1.670947265625
1.6218017578125
0.033837890625
0.961962890625
1.0771728515624999
1.287451171875
1.72412109375
2.2268554687499997
3.0325195312499997
3.034130859375
2.566845703125
2.1841552734375
1.8941162109374998
1.7096191406249999
1.6894775390624999
1.6604736328124998
1.6266357421875
1.5073974609374998
1.4791992187499998
1.3728515625
1.5122314453124999
1.5001464843749999
1.5082031249999999
3.037353515625
2.5177001953125
2.2276611328125
2.109228515625
1.8280517578125
1.1666015625
0.0298095703125
0.0322265625
0.027392578124999997
0.4318359375
0.7637695312499999
1.0836181640625
1.1512939453125
1.4735595703125
1.513037109375
1.5831298828125
1.7410400390624998
1.6209960937499999
1.6765869140624998
1.6572509765624999
1.6306640625
0.0322265625
0.565576171875
1.224609375
1.2818115234374998
1.6185791015625
1.996435546875
3.034130859375
3.0405761718749997
2.7344238281249997
2.34287109375
1.9674316406249999
1.7611816406249998
1.7611816406249998
1.732177734375
1.6975341796874999
1.6322753906249998
1.4203857421875
1.2979248046874998
1.5202880859374999
1.5001464843749999
1.4711425781249998
3.0365478515624997
3.0204345703124997
2.1777099609375
2.1454833984375
1.4115234374999999
1.155322265625
0.02900390625
0.0322265625
0.0314208984375
0.348046875
0.7436279296874999
1.0409179687499999
1.1126220703125
1.493701171875
1.4493896484375
1.6266357421875
1.7088134765624998
1.848193359375
1.6725585937499998
1.6725585937499998
1.6379150390625
0.0298095703125
0.476953125
1.2109130859375
1.1939941406249999
1.5807128906249999
2.022216796875
2.6852783203125
3.034130859375
2.8359375
2.392822265625
2.0810302734375
1.8014648437499998
1.7821289062499999
1.6693359374999999
1.7660156249999999
1.6153564453125
1.432470703125
1.4574462890625
1.4598632812499999
1.4574462890625
1.4630859374999998
3.037353515625
3.034130859375
2.230078125
2.00771484375
1.3744628906249998
1.1537109374999999
0.5824951171875
0.0281982421875
0.026586914062499998
0.24331054687499998
0.6646728515625
1.0376953125
1.094091796875
1.2785888671874999
1.4219970703125
1.5533203125
1.71123046875
1.8248291015625
1.719287109375
1.719287109375
1.6612792968749999
0.033032226562499996
0.0281982421875
0.9885498046875
1.2528076171875
1.4373046875
2.0133544921874997
2.81015625
3.0365478515624997
2.9640380859374997
2.4709716796875
2.0278564453125
1.8119384765625
1.69189453125
1.6451660156249999
1.687060546875
1.635498046875
1.4872558593749998
1.4953124999999998
1.4622802734375
1.5202880859374999
1.51787109375
1.5557373046874998
3.0357421875
2.3001708984375
1.989990234375
2.23974609375
1.6379150390625
0.7210693359375
0.027392578124999997
0.0281982421875
0.17482910156249998
0.6131103515624999
0.9345703125
1.134375
1.3510986328124999
1.4469726562499998
1.5082031249999999
1.6717529296875
1.8054931640624998
1.7692382812499998
1.7104248046875
1.641943359375
1.603271484375
0.0281982421875
0.9482666015625
1.1174560546874999
1.2463623046874999
1.9263427734374998
2.3525390625
3.0357421875
3.0349365234374996
2.6047119140625
2.1946289062499997
1.9303710937499998
1.76279296875
1.7329833984374998
1.7007568359374998
1.6612792968749999
1.6072998046875
1.426025390625
1.3897705078125
1.4622802734375
1.4928955078125
1.4622802734375
3.037353515625
2.3879882812499997
2.25263671875
2.173681640625
1.67900390625
1.0610595703124999
0.0298095703125
0.0298095703125
0.0362548828125
0.44956054687499997
0.9087890624999999
1.1287353515625
1.1778808593749999
1.4711425781249998
1.5315673828124998
1.6886718749999998
1.7152587890625
1.7023681640625
1.66611328125
1.6524169921874998
1.6129394531249999
0.0281982421875
0.710595703125
1.074755859375
1.3172607421875
1.50498046875
2.0343017578125
3.0349365234374996
3.0381591796875
2.737646484375
2.2196044921875
1.93359375
1.7442626953125
1.6935058593749999
1.6733642578124999
1.7055908203124999
1.6201904296874998
1.456640625
1.4074951171874999
1.4791992187499998
1.482421875
1.477587890625
3.0333251953125
2.8995849609374997
2.2582763671875
2.0423583984375
1.4526123046875
1.0803955078125
0.0298095703125
0.030615234374999998
0.03544921875
0.456005859375
0.8451416015625
1.0594482421875
1.1666015625
1.4348876953124998
1.432470703125
1.5718505859374998
1.73056640625
1.8304687499999999
1.732177734375
1.6822265625
1.611328125
0.027392578124999997
0.6292236328124999
1.2076904296875
1.1456542968749999
1.9166748046875
1.9698486328125
3.0357421875
3.0349365234374996
2.70380859375
2.321923828125
1.9811279296875
1.7668212890625
1.7539306640624999
1.65
1.7096191406249999
1.5565429687499999
1.490478515625
1.6943115234375
1.4840332031249999
1.496923828125
1.4590576171874998
3.0333251953125
2.9841796874999997
2.1052001953125
2.115673828125
1.3978271484375
1.1641845703125
0.565576171875
0.027392578124999997
0.0281982421875
0.2578125
0.6993164062499999
1.0272216796875
1.1222900390625
1.3792968749999999
1.4469726562499998
1.5662109375
1.71123046875
1.815966796875
1.69189453125
1.69833984375
1.6540283203125
0.0314208984375
0.0604248046875
0.966796875
1.16015625
1.7772949218749998
2.0649169921875
2.4403564453124997
3.0381591796875
3.0010986328125
2.5168945312499997
2.0665283203125
1.8441650390625
1.7507080078125
1.6379150390625
1.7345947265625
1.6725585937499998
1.5122314453124999
1.6105224609375
1.3905761718749998
1.4598632812499999
1.456640625
2.2437744140625
3.034130859375
2.1567626953125
2.0947265625
2.125341796875
1.3494873046875
0.55107421875
0.0322265625
0.030615234374999998
0.28439941406249997
0.6654785156249999
0.9555175781249999
1.106982421875
1.2995361328125
1.4107177734374998
1.513037109375
1.6620849609375
1.5251220703125
1.748291015625
1.7055908203124999
1.6653076171874999
1.1303466796875
0.02900390625
0.958740234375
1.1384033203125
1.042529296875
2.0117431640625
2.4097412109375
3.0317138671875
3.0325195312499997
2.5241455078125
2.189794921875
1.899755859375
1.7297607421874999
1.6991455078125
1.7426513671875
1.6935058593749999
1.5017578125
1.4300537109375
1.4091064453125
1.5025634765625
1.4848388671875
1.4719482421874999
3.034130859375
2.3887939453125
2.1922119140625
2.21396484375
1.4977294921875
0.9079833984375
0.02900390625
0.02578125
0.0604248046875
0.53173828125
0.9394042968749999
1.15693359375
1.2576416015624998
1.4268310546874998
1.4880615234374999
1.5621826171875
1.7208984374999998
1.770849609375
1.69833984375
1.6878662109375
1.3583496093749998
0.0298095703125
0.8104980468749999
1.0723388671875
1.0892578124999999
1.4493896484375
2.00771484375
3.0357421875
3.0333251953125
2.6691650390625
2.1422607421874997
1.8707519531249999
1.735400390625
1.77568359375
1.7257324218749999
1.6773925781249999
1.545263671875
1.464697265625
1.6056884765625
1.464697265625
1.4735595703125
1.456640625
3.0325195312499997
2.753759765625
2.2751953124999997
1.95615234375
1.6435546875
1.0691162109374999
0.0346435546875
0.033032226562499996
0.0281982421875
0.4842041015625
0.816943359375
1.0771728515624999
1.2890625
1.42119140625
1.4630859374999998
1.5895751953125
1.7007568359374998
1.5944091796875
1.6733642578124999
1.6645019531249998
1.6185791015625
0.0281982421875
0.6985107421875
1.0836181640625
1.1939941406249999
1.4139404296875
2.075390625
3.0325195312499997
3.0333251953125
2.719921875
2.2913085937499997
2.0488037109375
1.79501953125
1.7764892578125
1.7426513671875
1.7265380859375
1.5758789062499998
1.445361328125
1.4598632812499999
1.46953125
1.4606689453125
1.4332763671875
3.0349365234374996
2.8037109375
2.0504150390625
2.1744873046874997
1.622607421875
1.2818115234374998
0.1409912109375
0.0298095703125
0.02578125
0.2771484375
0.6654785156249999
1.045751953125
1.0546142578125
1.3591552734374999
1.4993408203124998
1.6862548828125
1.706396484375
1.7015624999999999
1.7072021484375
1.65966796875
1.64677734375
0.027392578124999997
0.21269531249999998
1.00546875
1.1867431640625
1.9078125
2.0101318359375
2.9986816406249996
3.034130859375
2.9237548828124997
2.5152832031249996
2.10439453125
1.835302734375
1.76279296875
1.63388671875
1.69833984375
1.6411376953124999
1.4574462890625
1.6161621093749998
1.4558349609374999
1.4961181640624999
1.4864501953125
3.0244628906249997
3.034130859375
2.05927734375
2.1648193359375
1.7700439453124999
1.1794921875
0.49306640625
0.0298095703125
0.0298095703125
0.307763671875
0.69287109375
0.9796874999999999
1.1021484375
1.33740234375
1.429248046875
1.509814453125
1.7055908203124999
1.5380126953125
1.7329833984374998
1.73056640625
1.6524169921874998
0.0298095703125
0.0281982421875
0.9796874999999999
1.1964111328125
1.013525390625
2.01416015625
2.4564697265624997
3.037353515625
2.8931396484375
2.466943359375
2.083447265625
1.8635009765625
1.7772949218749998
1.714453125
1.7047851562499998
1.6395263671875
1.4719482421874999
1.3639892578125
1.46953125
1.5106201171875
1.49853515625
1.477587890625
3.0365478515624997
2.4290771484375
2.13662109375
1.9875732421874999
1.2947021484374999
0.8354736328125
0.027392578124999997
0.027392578124999997
0.18449707031249998
0.543017578125
0.9434326171874999
1.10859375
1.2656982421874998
1.4389160156249998
1.5460693359375
1.65
1.780517578125
1.6967285156249998
1.6620849609375
1.6564453124999998
0.5647705078124999
0.0298095703125
0.8902587890625
1.0401123046875
0.9611572265624999
1.60166015625
2.1543457031249997
3.037353515625
3.0389648437499996
2.6852783203125
2.173681640625
1.9029785156249999
1.7499023437499999
1.7861572265624999
1.791796875
1.722509765625
1.5879638671874998
1.4066894531249998
1.53076171875
1.4171630859375
1.4461669921875
1.4759765624999999
3.0357421875
2.560400390625
2.109228515625
2.015771484375
1.8578613281249998
0.8765624999999999
0.02900390625
0.02900390625
0.0281982421875
0.5043457031249999
0.8282226562499999
1.0812011718749999
1.2455566406249998
1.380908203125
1.5106201171875
1.6773925781249999
1.722509765625
1.5847412109374999
1.7088134765624998
1.651611328125
1.5976318359375
0.02900390625
0.8258056640625
1.0119140625
1.2286376953125
1.5758789062499998
2.126953125
3.0357421875
3.037353515625
2.65869140625
2.25263671875
1.960986328125
1.7764892578125
1.7700439453124999
1.7716552734375
1.7257324218749999
1.542041015625
1.4888671875
1.3204833984375
1.4526123046875
1.4759765624999999
1.474365234375
3.0381591796875
2.6683593749999996
2.144677734375
1.957763671875
1.7764892578125
1.173046875
0.29245605468749997
0.0298095703125
0.026586914062499998
0.3673828125
0.8354736328125
1.077978515625
1.119873046875
1.35673828125
1.4759765624999999
1.558154296875
1.7120361328125
1.65
1.7587646484375
1.71123046875
1.6169677734374999
0.0281982421875
0.40605468749999996
1.1351806640625
1.1883544921875
1.7587646484375
1.9489013671875
3.034130859375
3.0357421875
2.8012939453124996
2.41376953125
1.98193359375
1.7909912109375
1.7635986328125
1.7217041015624999
1.7442626953125
1.654833984375
1.4501953125
1.3510986328124999
1.5106201171875
1.4872558593749998
1.4606689453125
3.0365478515624997
3.034130859375
2.0955322265625
2.1849609375
1.4791992187499998
1.2503906249999999
0.198193359375
0.0281982421875
0.0298095703125
0.32951660156249996
0.6832031249999999
0.9434326171874999
1.0650878906249999
1.3849365234375
1.4123291015625
1.5235107421874998
1.719287109375
1.7531249999999998
1.6653076171874999
1.654833984375
1.6540283203125
0.02900390625
0.027392578124999997
1.074755859375
1.1303466796875
1.2495849609374998
2.031884765625
2.657080078125
3.034130859375
2.9737060546875
2.5015869140625
2.1624023437499997
1.8683349609375
1.7297607421874999
1.7055908203124999
1.7410400390624998
1.6524169921874998
1.4679199218749999
1.3341796874999998
1.477587890625
1.45341796875
1.4550292968749998
1.442138671875
3.037353515625
2.4145751953125
2.0697509765624997
1.6218017578125
1.1255126953124999
0.6703125
0.0298095703125
0.02900390625
0.13615722656249998
0.5889404296874999
0.9716308593749999
1.09892578125
1.2608642578125
1.4219970703125
1.5396240234374998
1.7039794921875
1.8941162109374998
1.687060546875
1.687060546875
1.658056640625
0.0298095703125
0.02578125
0.9176513671875
1.2423339843749999
1.1867431640625
1.9013671875
2.25263671875
3.0365478515624997
3.037353515625
2.5885986328125
2.0826416015625
1.82724609375
1.6951171875
1.7635986328125
1.7152587890625
1.7023681640625
1.509814453125
1.3092041015625
1.496923828125
1.4953124999999998
1.4993408203124998
1.4993408203124998
3.0333251953125
2.437939453125
2.02060546875
2.165625
1.7772949218749998
0.64775390625
0.02900390625
0.02578125
0.02900390625
0.5389892578125
0.855615234375
1.0884521484375
1.2995361328125
1.474365234375
1.5073974609374998
1.5782958984375
1.8989501953124999
1.7176757812499999
1.738623046875
1.706396484375
1.5887695312499999
0.0298095703125
0.913623046875
1.0892578124999999
1.3083984375
1.8763916015625
2.389599609375
3.0357421875
3.0357421875
2.592626953125
2.1470947265625
1.8216064453124998
1.5984375
1.6314697265625
1.67578125
1.6927001953124998
1.4912841796874998
1.400244140625
1.2802001953125
1.41796875
1.4228027343749998
1.4228027343749998
3.0309082031249996
2.5370361328124997
2.2993652343749997
2.1245361328125
1.8635009765625
1.0256103515625
0.0298095703125
0.0281982421875
0.026586914062499998
0.33837890625
0.688037109375
1.0763671875
1.1029541015625
1.5106201171875
1.587158203125
1.716064453125
1.7619873046874999
1.6733642578124999
1.7539306640624999
1.7362060546875
1.7096191406249999
0.02900390625
0.4962890625
1.2318603515625
1.3253173828125
1.62744140625
2.0471923828125
3.0333251953125
3.034130859375
2.802099609375
2.3452880859375
1.915869140625
1.7015624999999999
1.7378173828124999
1.7200927734375
1.7023681640625
1.5911865234375
1.3639892578125
1.1738525390624999
1.458251953125
1.456640625
1.4816162109375
3.0349365234374996
3.0333251953125
2.183349609375
2.1624023437499997
1.2125244140625
1.13115234375
0.02900390625
0.02900390625
0.024169921875
0.359326171875
0.75087890625
1.0465576171875
1.1126220703125
1.3752685546874999
1.416357421875
1.5718505859374998
1.7748779296875
1.941650390625
1.7313720703125
1.6959228515625
1.6653076171874999
0.0281982421875
0.02900390625
1.316455078125
1.26328125
1.6959228515625
2.1551513671875
2.9664550781249996
3.0349365234374996
2.7803466796875
2.3436767578124997
1.9658203125
1.76279296875
1.706396484375
1.5331787109375
1.7313720703125
1.5597656249999998
1.4413330078125
1.5919921874999998
1.4880615234374999
1.4574462890625
1.4687255859375
1.738623046875
3.0357421875
2.29453125
2.0488037109375
1.3317626953125
1.139208984375
0.491455078125
0.0298095703125
0.0298095703125
0.18852539062499998
0.5873291015625
0.961962890625
1.1375976562499999
1.377685546875
1.5299560546875
1.59521484375
1.7579589843749999
1.7184814453125
1.6935058593749999
1.7015624999999999
1.6314697265625
0.033837890625
0.033032226562499996
0.945849609375
1.2511962890625
1.53720703125
2.1374267578125
2.528173828125
3.0349365234374996
3.0365478515624997
2.566845703125
2.04638671875
1.783740234375
1.6459716796875
1.6435546875
1.714453125
1.6822265625
1.5396240234374998
1.4840332031249999
1.3704345703124998
1.4751708984374998
1.5106201171875
1.6081054687499998
3.0365478515624997
2.410546875
2.0149658203125
2.2985595703125
1.5597656249999998
0.6171386718749999
0.0281982421875
0.023364257812499997
0.030615234374999998
0.5647705078124999
0.878173828125
1.0892578124999999
1.329345703125
1.4542236328125
1.5033691406249998
1.7088134765624998
1.8071044921875
1.7611816406249998
1.7039794921875
1.6588623046875
1.5863525390625
0.030615234374999998
0.913623046875
1.100537109375
1.2141357421874999
1.9134521484375
2.354150390625
3.0349365234374996
3.0333251953125
2.6039062499999996
2.2679443359375
1.9875732421874999
1.7595703125
1.7055908203124999
1.6781982421875
1.6862548828125
1.587158203125
1.4244140625
1.448583984375
1.4598632812499999
1.4872558593749998
1.47275390625
3.037353515625
2.4403564453124997
2.3525390625
2.32998046875
1.732177734375
0.984521484375
0.02900390625
0.02900390625
0.02900390625
0.3955810546875
0.8701171875
1.106982421875
1.17626953125
1.3857421875
1.477587890625
1.5686279296874999
1.77890625
1.7692382812499998
1.732177734375
1.7088134765624998
1.6008544921874999
0.026586914062499998
0.631640625
1.1126220703125
1.2536132812499998
1.40830078125
2.07861328125
3.0317138671875
3.0325195312499997
2.7851806640624996
2.2486083984375
1.9674316406249999
1.780517578125
1.8119384765625
1.719287109375
1.7329833984374998
1.5517089843749998
1.464697265625
1.3422363281249998
1.4590576171874998
1.4759765624999999
1.4655029296875
3.0357421875
2.9664550781249996
2.3227294921875
2.1462890624999997
1.4783935546875
1.1512939453125
0.02900390625
0.0281982421875
0.0281982421875
0.38510742187499997
0.7033447265624999
0.9659912109375
1.1416259765624999
1.4469726562499998
1.4381103515625
1.5863525390625
1.7611816406249998
1.8570556640625
1.699951171875
1.6951171875
1.6572509765624999
0.027392578124999997
0.580078125
1.1770751953125
1.1593505859375
1.8054931640624998
2.015771484375
3.0164062499999997
3.0357421875
2.7908203124999997
2.402490234375
2.1148681640625
1.8417480468749998
1.8135498046874998
1.6975341796874999
1.7233154296875
1.6169677734374999
1.4155517578124999
1.6081054687499998
1.4356933593749999
1.4356933593749999
1.456640625
3.034130859375
3.0333251953125
2.1197021484375
2.125341796875
1.3583496093749998
1.1706298828125
0.43344726562499997
0.02900390625
0.0298095703125
0.1941650390625
0.562353515625
0.9482666015625
1.071533203125
1.4348876953124998
1.4993408203124998
1.6798095703125
1.7128417968749998
1.8240234375
1.6862548828125
1.71123046875
1.6612792968749999
0.030615234374999998
0.0298095703125
0.9232910156249999
1.0731445312499999
1.7490966796874998
2.093115234375
2.776318359375
3.0365478515624997
3.034130859375
2.6119628906249996
2.1140624999999997
1.8763916015625
1.7740722656249999
1.6475830078125
1.7289550781249998
1.662890625
1.4469726562499998
1.622607421875
1.400244140625
1.5283447265624999
1.4719482421874999
2.225244140625
3.0365478515624997
2.1849609375
2.09150390625
2.16884765625
1.3704345703124998
0.468896484375
0.0322265625
0.02900390625
0.2054443359375
0.588134765625
0.9289306640624999
1.1295410156249999
1.2777832031249998
1.3986328124999998
1.4848388671875
1.706396484375
1.593603515625
1.7740722656249999
1.7176757812499999
1.6733642578124999
1.0014404296875
0.0298095703125
0.9466552734375
1.1706298828125
0.966796875
2.0431640625
2.4322998046874997
3.0365478515624997
3.0333251953125
2.6232421875
2.228466796875
1.9674316406249999
1.7370117187499998
1.67578125
1.6411376953124999
1.5807128906249999
1.5009521484375
1.5243164062499999
1.46630859375
1.5436523437499998
1.4751708984374998
1.4429443359374998
3.0349365234374996
2.4258544921875
2.222021484375
2.2429687499999997
1.5299560546875
0.9112060546874999
0.0281982421875
0.0281982421875
0.030615234374999998
0.45842285156249996
0.8427246093749999
1.074755859375
1.239111328125
1.458251953125
1.546875
1.662890625
1.7764892578125
1.77890625
1.6951171875
1.6886718749999998
1.297119140625
0.02900390625
0.7758544921874999
1.1351806640625
1.08603515625
1.4107177734374998
2.1543457031249997
3.0357421875
3.0365478515624997
2.7183105468749997
2.13662109375
1.8828369140624999
1.7781005859374999
1.8095214843749998
1.7394287109375
1.6862548828125
1.593603515625
1.4026611328124998
1.5879638671874998
1.4356933593749999
1.456640625
1.429248046875
3.0365478515624997
2.8045166015625
2.2421630859375
1.957763671875
1.6846435546874998
0.9208740234374999
0.0281982421875
0.026586914062499998
0.0298095703125
0.4471435546875
0.781494140625
1.045751953125
1.1625732421875
1.3865478515624998
1.4945068359375
1.6862548828125
1.7208984374999998
1.5992431640625
1.7128417968749998
1.71123046875
1.66611328125
0.0298095703125
0.734765625
1.0997314453125
1.184326171875
1.9037841796875
2.0794189453125
3.034130859375
3.037353515625
2.711865234375
2.3396484374999997
2.012548828125
1.7474853515625
1.7466796875
1.6886718749999998
1.719287109375
1.6298583984375
1.482421875
1.5041748046874999
1.4791992187499998
1.4888671875
1.4429443359374998
3.0357421875
2.8456054687499996
2.051220703125
2.1696533203125
1.5927978515624999
1.1980224609374999
0.3158203125
0.027392578124999997
0.030615234374999998
0.281982421875
0.720263671875
1.0368896484374999
1.087646484375
1.3019531249999998
1.429248046875
1.5791015625
1.751513671875
1.7724609375
1.7474853515625
1.683837890625
1.6725585937499998
0.0281982421875
0.28439941406249997
1.0948974609375
1.2044677734375
1.93681640625
1.9795166015624999
3.0333251953125
3.0357421875
2.8689697265625
2.43955078125
1.9867675781249998
1.748291015625
1.7023681640625
1.641943359375
1.72734375
1.5887695312499999
1.46953125
1.6008544921874999
1.4848388671875
1.4832275390624998
1.4687255859375
3.034130859375
3.0365478515624997
2.07861328125
2.1245361328125
1.77890625
1.1794921875
0.5502685546875
0.0281982421875
0.02900390625
0.2811767578125
0.708984375
1.02158203125
1.1190673828125
1.3631835937499999
1.4558349609374999
1.546875
1.748291015625
1.5734619140625
1.7233154296875
1.6588623046875
1.6177734375
0.0539794921875
0.0249755859375
1.0094970703125
1.235888671875
1.03125
2.0471923828125
2.5289794921874997
3.0325195312499997
2.9592041015625
2.437939453125
2.1164794921875
1.8981445312499998
1.7337890624999999
1.7289550781249998
1.714453125
1.6451660156249999
1.4606689453125
1.335791015625
1.4010498046875
1.4735595703125
1.4840332031249999
1.4832275390624998
3.0381591796875
2.354150390625
2.109228515625
1.9859619140625
1.26005859375
0.8040527343749999
0.027392578124999997
0.0298095703125
0.07412109374999999
0.546240234375
1.02802734375
1.155322265625
1.229443359375
1.3792968749999999
1.4945068359375
1.7015624999999999
1.7813232421874998
1.7072021484375
1.6564453124999998
1.67900390625
0.694482421875
0.0281982421875
0.8604492187499999
1.042529296875
0.9966064453125
1.6306640625
2.16884765625
3.0357421875
3.0317138671875
2.673193359375
2.1229248046875
1.8707519531249999
1.7499023437499999
1.7152587890625
1.7128417968749998
1.7289550781249998
1.61455078125
1.4832275390624998
1.6105224609375
1.4526123046875
1.45341796875
1.4542236328125
3.034130859375
2.5716796874999996
2.199462890625
1.9867675781249998
1.8014648437499998
0.7968017578125
0.027392578124999997
0.027392578124999997
0.02900390625
0.526904296875
0.837890625
1.0578369140625
1.2342773437499999
1.4066894531249998
1.5460693359375
1.65
1.7813232421874998
1.6330810546874999
1.740234375
1.6717529296875
1.6105224609375
0.0298095703125
0.8322509765624999
1.039306640625
1.2479736328125
1.6967285156249998
2.0898925781249997
3.0365478515624997
3.0349365234374996
2.6401611328124996
2.2292724609375
1.94970703125
1.735400390625
1.7458740234374999
1.703173828125
1.6653076171874999
1.49853515625
1.46630859375
1.3478759765625
1.50498046875
1.5033691406249998
1.4800048828124999
3.034130859375
2.6143798828125
2.0761962890625
2.1567626953125
1.7579589843749999
1.18916015625
0.34562988281249996
0.0281982421875
0.0298095703125
0.36093749999999997
0.7291259765625
1.0489746093749999
1.094091796875
1.37607421875
1.5436523437499998
1.635498046875
1.69189453125
1.5758789062499998
1.6693359374999999
1.6572509765624999
1.619384765625
0.02900390625
0.4068603515625
1.216552734375
1.2785888671874999
1.8763916015625
2.018994140625
3.0357421875
3.0357421875
2.8319091796875
2.405712890625
1.9948242187499998
1.7732666015624998
1.7410400390624998
1.7684326171875
1.7249267578124998
1.641943359375
1.4469726562499998
1.3309570312499999
1.4848388671875
1.4711425781249998
1.4872558593749998
3.0349365234374996
3.034130859375
2.0439697265625
2.131787109375
1.4510009765624998
1.2044677734375
0.1119873046875
0.0298095703125
0.0298095703125
0.33193359375
0.7114013671874999
0.98291015625
1.123095703125
1.3817138671875
1.4510009765624998
1.545263671875
1.69833984375
1.6943115234375
1.6588623046875
1.6524169921874998
1.6371093749999999
0.0298095703125
0.026586914062499998
1.1617675781249999
1.27294921875
1.2906738281249999
2.0326904296875
2.553955078125
3.037353515625
2.83271484375
2.3742919921875
2.015771484375
1.7845458984375
1.7426513671875
1.69189453125
1.7337890624999999
1.65
1.5436523437499998
1.40185546875
1.506591796875
1.4977294921875
1.5122314453124999
1.496923828125
3.0349365234374996
2.321923828125
2.006103515625
1.5686279296874999
1.174658203125
0.7130126953125
0.0281982421875
0.027392578124999997
0.1877197265625
0.688037109375
1.026416015625
1.1706298828125
1.3019531249999998
1.4284423828125
1.5082031249999999
1.5718505859374998
1.877197265625
1.7047851562499998
1.6854492187499999
1.65966796875
0.0298095703125
0.0281982421875
0.9756591796874999
1.1190673828125
1.1295410156249999
1.8570556640625
2.25263671875
3.0333251953125
3.034130859375
2.5660400390625
2.1068115234375
1.8111328125
1.7370117187499998
1.732177734375
1.7096191406249999
1.6508056640625
1.482421875
1.3309570312499999
1.474365234375
1.4510009765624998
1.474365234375
1.4598632812499999
3.0349365234374996
2.450830078125
2.0496093749999997
2.164013671875
1.7700439453124999
0.823388671875
0.026586914062499998
0.0298095703125
0.057202148437499996
0.594580078125
0.9095947265625
1.1287353515625
1.2834228515625
1.3865478515624998
1.4655029296875
1.65
1.8054931640624998
1.6588623046875
1.6749755859375
1.6910888671875
1.638720703125
0.02900390625
0.90234375
1.069921875
1.2850341796875
1.7200927734375
2.2590820312499997
3.0357421875
3.0357421875
2.6103515625
2.2187988281249997
1.9440673828125
1.7184814453125
1.732177734375
1.7152587890625
1.6910888671875
1.6177734375
1.4397216796874999
1.3720458984375
1.4848388671875
1.4832275390624998
1.4671142578124998
3.034130859375
2.4983642578125
2.2147705078124997
2.160791015625
1.8385253906249999
1.1456542968749999
0.02900390625
0.026586914062499998
0.0322265625
0.407666015625
0.8322509765624999
1.135986328125
1.119873046875
1.4195800781249999
1.477587890625
1.5621826171875
1.7418457031249999
1.638720703125
1.69833984375
1.6435546875
1.5992431640625
0.0281982421875
0.594580078125
1.2777832031249998
1.2898681640624998
1.6604736328124998
2.01416015625
3.034130859375
3.0365478515624997
2.771484375
2.3549560546875
1.8973388671875
1.7208984374999998
1.72734375
1.6975341796874999
1.6725585937499998
1.5444580078124999
1.456640625
1.400244140625
1.5315673828124998
1.5154541015624998
1.545263671875
3.0357421875
2.9962646484374997
2.1164794921875
2.0745849609375
1.2850341796875
1.1239013671875
0.24331054687499998
0.02900390625
0.02900390625
0.4318359375
0.8177490234375
1.0965087890625
1.116650390625
1.3913818359374999
1.4115234374999999
1.5573486328125
1.6959228515625
1.8578613281249998
1.7104248046875
1.67578125
1.6693359374999999
0.027392578124999997
0.033837890625
1.2318603515625
1.203662109375
1.5847412109374999
1.9859619140625
2.824658203125
3.0333251953125
2.72314453125
2.3259521484375
2.0230224609375
1.8071044921875
1.74345703125
1.6403320312499998
1.748291015625
1.6653076171874999
1.464697265625
1.53720703125
1.4735595703125
1.461474609375
1.4816162109375
1.848193359375
3.0325195312499997
2.1922119140625
1.972265625
1.3253173828125
1.1319580078125
0.6662841796875
0.030615234374999998
0.02900390625
0.26103515625
0.6735351562499999
1.1150390625
1.1666015625
1.3720458984375
1.445361328125
1.538818359375
1.6491943359374999
1.609716796875
1.6620849609375
1.687060546875
1.6395263671875
0.02900390625
0.027392578124999997
0.978076171875
1.24072265625
1.477587890625
2.01416015625
2.3501220703125
3.037353515625
3.0429931640624996
2.5475097656249996
2.0415527343749997
1.8087158203125
1.7208984374999998
1.7023681640625
1.7345947265625
1.6701416015625
1.5557373046874998
1.5275390624999998
1.4042724609375
1.5017578125
1.4800048828124999
1.5565429687499999
3.0333251953125
2.344482421875
1.9835449218749999
2.231689453125
1.593603515625
0.636474609375
0.030615234374999998
0.027392578124999997
0.23203125
