1.1657958984374999
1.1786865234375
1.533984375
1.5718505859374998
1.7982421874999999
1.8087158203125
1.770849609375
1.7716552734375
1.719287109375
1.658056640625
0.030615234374999998
0.6195556640625
1.284228515625
1.4107177734374998
1.6693359374999999
2.3259521484375
3.0365478515624997
3.0349365234374996
2.6820556640624997
2.2590820312499997
1.8103271484374999
1.6201904296874998
1.6306640625
1.5718505859374998
1.5968261718749999
1.53720703125
1.4058837890625
1.2890625
1.4139404296875
1.4123291015625
1.43408203125
3.0357421875
3.0357421875
2.2357177734375
2.0681396484375
1.31162109375
0.994189453125
0.027392578124999997
0.0298095703125
0.0298095703125
0.37785644531249996
0.7468505859375
1.074755859375
1.1931884765625
1.5637939453124998
1.5436523437499998
1.6604736328124998
1.848193359375
1.9658203125
1.8336914062499998
1.7531249999999998
1.6717529296875
0.02900390625
0.02578125
1.3478759765625
1.303564453125
1.9400390625
2.1229248046875
3.037353515625
3.034130859375
2.7328124999999996
2.29775390625
1.9303710937499998
1.6886718749999998
1.6177734375
1.4381103515625
1.61455078125
1.4671142578124998
1.4203857421875
1.6371093749999999
1.4550292968749998
1.4550292968749998
1.4469726562499998
2.1358154296875
3.0325195312499997
2.1551513671875
2.0036865234375
1.24716796875
1.0111083984375
0.40122070312499997
0.026586914062499998
0.026586914062499998
0.18852539062499998
0.5986083984375
1.0812011718749999
1.16015625
1.4518066406249999
1.5533203125
1.6508056640625
1.8377197265624998
1.69189453125
1.7926025390625
1.7700439453124999
1.6991455078125
0.030615234374999998
0.0298095703125
1.0030517578125
1.1666015625
1.7249267578124998
2.2357177734375
2.70380859375
3.0349365234374996
3.0349365234374996
2.5354248046874996
2.018994140625
1.7152587890625
1.5815185546875
1.5984375
1.6089111328124999
1.5517089843749998
1.4711425781249998
1.4840332031249999
1.2955078125
1.4389160156249998
1.4203857421875
1.7176757812499999
3.034130859375
2.3396484374999997
1.998046875
2.2389404296874997
1.393798828125
0.4874267578125
0.02900390625
0.0298095703125
0.18046874999999998
0.5921630859375
0.9394042968749999
1.19560546875
1.3792968749999999
1.5791015625
1.6443603515624998
1.8522216796875
1.770849609375
1.8876708984375
1.7499023437499999
1.7096191406249999
1.2769775390625
0.0281982421875
1.019970703125
1.1883544921875
1.08603515625
2.23330078125
2.6159912109374996
3.0357421875
3.0357421875
2.5354248046874996
2.0697509765624997
1.7571533203124998
1.5565429687499999
1.5323730468749999
1.5106201171875
1.609716796875
1.4155517578124999
1.4203857421875
1.5927978515624999
1.4767822265625
1.448583984375
1.4397216796874999
3.0421875
2.4065185546875
2.2437744140625
1.9795166015624999
1.480810546875
0.800830078125
0.0314208984375
0.027392578124999997
0.030615234374999998
0.459228515625
0.8467529296874999
1.1794921875
1.2995361328125
1.49853515625
1.6322753906249998
1.69833984375
1.8796142578125
1.9021728515624998
1.796630859375
1.7692382812499998
1.6475830078125
0.0298095703125
0.7130126953125
1.1271240234375
1.2189697265625
1.5484863281249999
2.1889892578125
3.0333251953125
3.0389648437499996
2.6981689453124997
2.2751953124999997
1.8457763671874998
1.5919921874999998
1.638720703125
1.5597656249999998
1.5766845703124999
1.5275390624999998
1.3543212890624998
1.4574462890625
1.4034667968749999
1.4783935546875
1.4711425781249998
3.0405761718749997
2.89716796875
2.225244140625
1.980322265625
1.4896728515625
0.8370849609375
0.0362548828125
0.02900390625
0.0281982421875
0.4165283203125
0.8040527343749999
1.11181640625
1.2802001953125
1.5799072265624998
1.6048828124999999
1.79501953125
1.8417480468749998
1.812744140625
1.7934082031249998
1.791796875
1.6781982421875
0.0281982421875
0.6775634765624999
1.198828125
1.24716796875
2.0101318359375
2.2260498046875
3.0365478515624997
3.034130859375
2.721533203125
2.281640625
1.9263427734374998
1.6242187499999998
1.67578125
1.6081054687499998
1.65966796875
1.5444580078124999
1.3704345703124998
1.5758789062499998
1.3921875
1.448583984375
1.4308593749999998
3.0325195312499997
2.9994873046875
1.931982421875
2.0359130859375
1.3857421875
1.077978515625
0.1941650390625
0.02900390625
0.030615234374999998
0.246533203125
0.742822265625
1.168212890625
1.2157470703125
1.4912841796874998
1.6161621093749998
1.683837890625
1.8111328125
1.6129394531249999
1.803076171875
1.7466796875
1.6806152343749998
0.0322265625
0.057202148437499996
1.0465576171875
1.2310546875
2.0181884765625
2.2921142578125
2.666748046875
3.0357421875
2.94873046875
2.4532470703125
1.9086181640625
1.6967285156249998
1.5799072265624998
1.4751708984374998
1.5887695312499999
1.477587890625
1.4066894531249998
1.6161621093749998
1.416357421875
1.4510009765624998
1.426025390625
2.5418701171875
3.0357421875
2.3485107421875
2.0278564453125
1.92392578125
1.1706298828125
0.3150146484375
0.0314208984375
0.030615234374999998
0.24492187499999998
0.6767578125
0.9974121093749999
1.181103515625
1.4719482421874999
1.574267578125
1.6427490234375
1.8473876953125
1.5879638671874998
1.8361083984375
1.7692382812499998
1.7249267578124998
0.631640625
0.0281982421875
1.0086914062499999
1.2656982421874998
1.09892578125
2.286474609375
2.7287841796874996
3.034130859375
3.0325195312499997
2.4524414062499997
2.047998046875
1.7660156249999999
1.5766845703124999
1.55009765625
1.5815185546875
1.5782958984375
1.3559326171875
1.3583496093749998
1.529150390625
1.4501953125
1.4364990234375
1.4638916015624999
3.0349365234374996
2.3154785156249997
2.0923095703125
1.893310546875
1.1851318359375
0.6662841796875
0.030615234374999998
0.0298095703125
0.054785156249999994
0.4833984375
0.8056640625
1.1947998046875
1.30517578125
1.5146484375
1.6524169921874998
1.7877685546875
1.8248291015625
1.864306640625
1.7845458984375
1.7611816406249998
1.6951171875
0.0322265625
0.865283203125
1.1222900390625
1.0723388671875
1.716064453125
2.2880859375
3.034130859375
3.0357421875
2.72314453125
2.24619140625
1.82080078125
1.6153564453125
1.5984375
1.606494140625
1.6177734375
1.5082031249999999
1.3768798828125
1.5992431640625
1.413134765625
1.4445556640625
1.409912109375
3.0357421875
2.6860839843749997
2.1551513671875
1.9102294921874998
1.7015624999999999
1.0320556640625
0.0281982421875
0.0298095703125
0.0249755859375
0.515625
0.8612548828125
1.1375976562499999
1.18271484375
1.4977294921875
1.5887695312499999
1.7015624999999999
1.8828369140624999
1.7378173828124999
1.835302734375
1.7555419921875
1.6379150390625
0.03544921875
0.31904296875
1.1384033203125
1.2995361328125
1.9102294921874998
2.212353515625
3.0365478515624997
3.0357421875
2.6844726562499996
2.2405517578125
1.88525390625
1.690283203125
1.6056884765625
1.58232421875
1.6008544921874999
1.413134765625
1.3720458984375
1.2721435546875
1.3897705078125
1.4276367187499999
1.4316650390624999
3.0357421875
2.7900146484375
1.9658203125
2.1664306640624997
1.6209960937499999
1.0078857421875
0.21591796875
0.0314208984375
0.030615234374999998
0.29970703125
0.7001220703125
1.1134277343749999
1.1859374999999999
1.5170654296875
1.6322753906249998
1.7410400390624998
1.8586669921874999
1.9343994140624998
1.8183837890624999
1.738623046875
1.67578125
0.030615234374999998
0.2102783203125
1.1899658203124999
1.2608642578125
2.031884765625
2.2187988281249997
2.8770263671875
3.034130859375
2.95517578125
2.408935546875
1.9182861328124998
1.6572509765624999
1.6185791015625
1.6008544921874999
1.61455078125
1.5380126953125
1.3317626953125
1.319677734375
1.41796875
1.405078125
1.4348876953124998
3.0365478515624997
3.0357421875
2.333203125
2.1197021484375
1.49853515625
1.0352783203125
0.07009277343749999
0.0298095703125
0.0298095703125
0.130517578125
0.6630615234374999
1.0062744140625
1.1706298828125
1.477587890625
1.577490234375
1.7539306640624999
1.84013671875
1.754736328125
1.73056640625
1.7571533203124998
1.690283203125
0.0281982421875
0.033032226562499996
1.123095703125
1.303564453125
1.2777832031249998
2.2357177734375
2.7827636718749997
3.0365478515624997
3.0357421875
2.434716796875
2.0560546875
1.7909912109375
1.6371093749999999
1.5758789062499998
1.5960205078124998
1.55009765625
1.3801025390625
1.18916015625
1.3390136718749999
1.416357421875
1.43408203125
1.4550292968749998
3.0365478515624997
2.325146484375
2.0020751953125
1.6266357421875
1.0159423828125
0.476953125
0.0298095703125
0.02900390625
0.12165527343749999
0.59619140625
1.0288330078124999
1.2310546875
1.3623779296874998
1.4888671875
1.6322753906249998
1.7104248046875
2.083447265625
1.828857421875
1.7531249999999998
1.7168701171874998
0.02900390625
0.0314208984375
0.9555175781249999
1.135986328125
1.18916015625
2.006103515625
2.4403564453124997
3.0333251953125
3.0357421875
2.6208251953125
2.0326904296875
1.716064453125
1.5927978515624999
1.5782958984375
1.5726562499999999
1.554931640625
1.397021484375
1.2479736328125
1.4236083984374999
1.4171630859375
1.464697265625
1.4413330078125
3.0365478515624997
2.4951416015624996
2.0560546875
2.141455078125
1.7128417968749998
0.6010253906249999
0.02900390625
0.0298095703125
0.030615234374999998
0.546240234375
0.9015380859375
1.19560546875
1.3559326171875
1.5460693359375
1.6161621093749998
1.6701416015625
1.9327880859375
1.7499023437499999
1.77890625
1.72412109375
1.674169921875
0.0314208984375
0.9216796875
1.1077880859375
1.3551269531249999
1.6459716796875
2.4234375
3.0357421875
3.0349365234374996
2.6232421875
2.205908203125
1.8844482421875
1.65
1.6266357421875
1.5968261718749999
1.6314697265625
1.5315673828124998
1.3341796874999998
1.20849609375
1.3688232421875
1.3978271484375
1.4228027343749998
3.0357421875
2.5410644531249997
2.0987548828125
2.0536376953124997
1.732177734375
1.0086914062499999
0.0281982421875
0.030615234374999998
0.0298095703125
0.33354492187499996
0.7226806640625
1.1641845703125
1.1835205078125
1.5863525390625
1.6395263671875
1.8071044921875
1.85625
1.9585693359374998
1.8014648437499998
1.754736328125
1.7200927734375
0.0298095703125
0.4358642578125
1.316455078125
1.340625
1.796630859375
2.2212158203125
2.937451171875
3.034130859375
2.785986328125
2.3557617187499997
1.8498046874999998
1.651611328125
1.603271484375
1.5517089843749998
1.6121337890624998
1.5428466796875
1.3913818359374999
1.2374999999999998
1.4671142578124998
1.4373046875
1.43408203125
3.0325195312499997
3.0389648437499996
2.1462890624999997
2.0906982421875
1.216552734375
0.9990234375
0.030615234374999998
0.0314208984375
0.0298095703125
0.2022216796875
0.7210693359375
1.055419921875
1.1778808593749999
1.522705078125
1.5331787109375
1.6685302734374998
1.8554443359375
2.0133544921874997
1.8062988281249999
1.80791015625
1.6927001953124998
0.030615234374999998
0.0322265625
1.3333740234375
1.3180664062499998
1.7370117187499998
2.152734375
3.0309082031249996
3.037353515625
3.027685546875
2.3710693359375
1.9593749999999999
1.687060546875
1.6379150390625
1.4953124999999998
1.6451660156249999
1.5758789062499998
1.3881591796875
1.5025634765625
1.297119140625
1.3873535156249999
1.426025390625
1.6129394531249999
3.0333251953125
2.2163818359375
2.0214111328124997
1.3253173828125
1.029638671875
0.4568115234375
0.0281982421875
0.0322265625
0.1426025390625
0.5671875
1.0376953125
1.1690185546875
1.4010498046875
1.5807128906249999
1.7015624999999999
1.8280517578125
1.7958251953125
1.7700439453124999
1.7700439453124999
1.7217041015624999
0.0298095703125
0.02900390625
0.97646484375
1.1295410156249999
1.5347900390625
2.1205078125
2.553955078125
3.0317138671875
3.0349365234374996
2.5547607421875
2.0109375
1.7603759765625
1.6008544921874999
1.622607421875
1.6121337890624998
1.5734619140625
1.496923828125
1.3607666015625
1.2947021484374999
1.416357421875
1.4236083984374999
1.4606689453125
3.0365478515624997
2.3952392578125
1.9859619140625
2.29775390625
1.4928955078125
0.47373046874999997
0.0298095703125
0.0298095703125
0.0322265625
0.5325439453124999
0.8967041015624999
1.1939941406249999
1.3825195312499998
1.542041015625
1.6266357421875
1.8256347656249998
1.9529296875
1.869140625
1.7507080078125
1.7120361328125
1.6669189453125
0.0281982421875
0.9369873046874999
1.0981201171875
1.1996337890625
2.0939208984374997
2.5088378906249997
3.0349365234374996
3.0365478515624997
2.618408203125
2.1245361328125
1.8256347656249998
1.5766845703124999
1.5492919921875
1.5114257812499998
1.5517089843749998
1.4373046875
1.3905761718749998
1.41796875
1.456640625
1.44052734375
1.4437499999999999
3.0349365234374996
2.4234375
2.2518310546875
1.9408447265625
1.6040771484374998
0.887841796875
0.0298095703125
0.02900390625
0.0322265625
0.4116943359375
0.816943359375
1.200439453125
1.2906738281249999
1.5251220703125
1.6483886718749998
1.7072021484375
1.844970703125
1.8224121093749999
1.8062988281249999
1.7571533203124998
1.6620849609375
0.02578125
0.6292236328124999
1.18916015625
1.2640869140625
1.5863525390625
2.2034912109375
3.0365478515624997
3.0349365234374996
2.7328124999999996
2.292919921875
1.843359375
1.6483886718749998
1.6854492187499999
1.5839355468749998
1.6129394531249999
1.5251220703125
1.3382080078124998
1.2850341796875
1.3833251953124999
1.4026611328124998
1.4574462890625
3.0357421875
2.9914306640625
2.2518310546875
2.03994140625
1.3664062499999998
0.9385986328125
0.0322265625
0.0298095703125
0.0298095703125
0.35288085937499997
0.7669921875
1.0828125
1.2205810546875
1.574267578125
1.5589599609375
1.738623046875
1.8119384765625
1.89169921875
1.7926025390625
1.7450683593749998
1.7039794921875
0.0298095703125
0.5905517578125
1.255224609375
1.2463623046874999
2.0947265625
2.23974609375
3.0357421875
3.0365478515624997
2.7521484375
2.2808349609375
1.9617919921875
1.6910888671875
1.6459716796875
1.52109375
1.6395263671875
1.5605712890624999
1.4268310546874998
1.5847412109374999
1.3913818359374999
1.3986328124999998
1.4010498046875
2.6538574218749997
3.034130859375
2.0431640625
2.09150390625
1.351904296875
1.090869140625
0.12165527343749999
0.030615234374999998
0.0322265625
0.20463867187499998
0.597802734375
1.0175537109375
1.1464599609375
1.4187744140624998
1.546875
1.6693359374999999
1.8336914062499998
1.651611328125
1.8216064453124998
1.7934082031249998
1.7104248046875
0.030615234374999998
0.0314208984375
1.0481689453125
1.2503906249999999
1.9279541015625
2.27197265625
2.7166992187499996
3.0301025390625
3.0059326171875
2.463720703125
1.9215087890625
1.7015624999999999
1.6403320312499998
1.5637939453124998
1.603271484375
1.47275390625
1.3897705078125
1.5637939453124998
1.329345703125
1.432470703125
1.4091064453125
2.1543457031249997
3.0349365234374996
2.3477050781249997
2.0729736328125
2.1052001953125
1.235888671875
0.31904296875
0.02900390625
0.02900390625
0.0314208984375
0.6276123046875
0.894287109375
1.1416259765624999
1.3825195312499998
1.5509033203125
1.6218017578125
1.8820312499999998
1.6959228515625
1.9343994140624998
1.8296630859374998
1.7410400390624998
0.8838134765625
0.02900390625
0.9273193359374999
1.1778808593749999
0.9708251953125
2.23974609375
2.7730957031249996
3.0349365234374996
3.0333251953125
2.5547607421875
2.1487060546875
1.7934082031249998
1.56298828125
1.561376953125
1.5460693359375
1.5976318359375
1.36962890625
1.3631835937499999
1.5218994140625
1.4316650390624999
1.3954101562499999
1.413134765625
3.0381591796875
2.3678466796874997
2.205908203125
1.993212890625
1.281005859375
0.6533935546874999
0.030615234374999998
0.0298095703125
0.026586914062499998
0.42619628906249996
0.8080810546874999
1.147265625
1.2866455078124999
1.4510009765624998
1.6234130859375
1.786962890625
1.844970703125
1.8755859375
1.7781005859374999
1.7909912109375
1.7047851562499998
0.0298095703125
0.74443359375
1.0111083984375
1.018359375
1.6072998046875
2.3162841796875
3.037353515625
3.0357421875
2.7110595703125
2.2663330078125
1.8264404296874999
1.5992431640625
1.5670166015625
1.5758789062499998
1.6201904296874998
1.5186767578125
1.3672119140624999
1.52109375
1.33740234375
1.4171630859375
1.42119140625
3.0349365234374996
2.8593017578124997
2.3154785156249997
1.9843505859375
1.71123046875
0.6840087890625
0.0281982421875
0.030615234374999998
0.027392578124999997
0.4189453125
0.7871337890625
1.058642578125
1.27294921875
1.4606689453125
1.6048828124999999
1.7611816406249998
1.9392333984374999
1.79501953125
1.90458984375
1.8167724609375
1.7281494140625
0.027392578124999997
0.7049560546875
1.1335693359374999
1.2914794921875
2.0012695312499997
2.28486328125
3.0365478515624997
3.0365478515624997
2.7062255859374997
2.2888916015625
1.9376220703125
1.5984375
1.5968261718749999
1.561376953125
1.5243164062499999
1.3591552734374999
1.332568359375
1.2826171874999999
1.36962890625
1.4598632812499999
1.4679199218749999
3.0357421875
2.95517578125
1.9835449218749999
2.15595703125
1.545263671875
1.0368896484374999
0.18046874999999998
0.0298095703125
0.030615234374999998
0.2537841796875
0.6356689453125
1.0207763671874999
1.1053710937499999
1.44052734375
1.6048828124999999
1.7039794921875
1.8635009765625
1.851416015625
1.8763916015625
1.7926025390625
1.738623046875
0.0281982421875
0.07814941406249999
1.1045654296875
1.248779296875
2.0818359374999997
2.2453857421875
3.0365478515624997
3.0381591796875
3.01318359375
2.4886962890624997
1.9714599609374999
1.706396484375
1.6129394531249999
1.6282470703124998
1.6209960937499999
1.5492919921875
1.368017578125
1.4187744140624998
1.3897705078125
1.3873535156249999
1.426025390625
3.0357421875
3.0349365234374996
2.0085205078125
2.15595703125
1.6951171875
1.103759765625
0.0298095703125
0.026586914062499998
0.02900390625
0.18369140625
0.5953857421875
0.9385986328125
1.1279296875
1.4268310546874998
1.5573486328125
1.69833984375
1.8941162109374998
1.7442626953125
1.8473876953125
1.7853515624999998
1.7184814453125
0.02900390625
0.0298095703125
0.9949951171875
1.2238037109375
1.16015625
2.2751953124999997
2.7569824218749996
3.0357421875
3.0317138671875
2.553955078125
2.1535400390625
1.8095214843749998
1.6242187499999998
1.5194824218749998
1.5605712890624999
1.5162597656249999
1.3317626953125
1.1666015625
1.377685546875
1.442138671875
1.4413330078125
1.4429443359374998
3.037353515625
2.4355224609375
2.096337890625
1.85947265625
1.1255126953124999
0.5446289062499999
0.0281982421875
0.0281982421875
0.02900390625
0.43828124999999996
0.8967041015624999
1.1408203125
1.276171875
1.5090087890625
1.611328125
1.7184814453125
2.0310791015625
1.883642578125
1.8296630859374998
1.786962890625
0.042700195312499994
0.02900390625
0.8056640625
0.9958007812499999
0.97646484375
1.8312744140625
2.3775146484375
3.0357421875
3.037353515625
2.7175048828125
2.1374267578125
1.8111328125
1.6209960937499999
1.5670166015625
1.5404296874999999
1.5202880859374999
1.3462646484374998
1.27294921875
1.4493896484375
1.37607421875
1.4139404296875
1.4219970703125
3.0365478515624997
2.719921875
2.228466796875
2.2067138671874997
1.89169921875
0.5994140625
0.033032226562499996
0.02900390625
0.02900390625
0.378662109375
0.6993164062499999
0.968408203125
1.2238037109375
1.4437499999999999
1.5919921874999998
1.8731689453125
1.98193359375
1.8232177734375
1.8844482421875
1.8103271484374999
1.7104248046875
0.0249755859375
0.74443359375
0.9812988281249999
1.2947021484374999
1.7619873046874999
2.486279296875
3.0333251953125
3.0357421875
2.7424804687499997
2.3565673828125
2.0012695312499997
1.703173828125
1.6693359374999999
1.638720703125
1.5960205078124998
1.4679199218749999
1.2898681640624998
1.055419921875
1.3285400390625
1.380908203125
1.4034667968749999
3.0349365234374996
2.8077392578125
2.244580078125
2.2776123046875
1.9182861328124998
1.0642822265625
0.02578125
0.030615234374999998
0.027392578124999997
0.217529296875
0.5365722656249999
0.9643798828125
0.9563232421875
1.3261230468749998
1.5106201171875
1.7289550781249998
1.8498046874999998
2.1052001953125
1.8659179687499998
1.7958251953125
1.7249267578124998
0.0298095703125
0.12246093749999999
1.106982421875
1.1255126953124999
1.706396484375
2.17529296875
3.0357421875
3.0349365234374996
3.0349365234374996
2.57490234375
2.128564453125
1.8820312499999998
1.7668212890625
1.654833984375
1.6508056640625
1.55009765625
1.3502929687499998
1.094091796875
1.3736572265625
1.3470703124999999
1.3801025390625
3.0357421875
3.0357421875
2.5265625
2.4202148437499997
1.445361328125
1.1303466796875
0.02578125
0.0322265625
0.0281982421875
0.050756835937499994
0.4842041015625
0.7927734375
0.9224853515625
1.2866455078124999
1.3784912109374998
1.574267578125
1.851416015625
2.118896484375
1.8506103515624999
1.8973388671875
1.7595703125
0.02900390625
0.024169921875
0.98291015625
1.04736328125
1.3801025390625
2.1624023437499997
3.0349365234374996
3.0325195312499997
3.0357421875
2.673193359375
2.3533447265625
2.0044921875
1.7926025390625
1.6693359374999999
1.7531249999999998
1.6685302734374998
1.3946044921874998
1.3946044921874998
1.2189697265625
1.30517578125
1.3986328124999998
1.4123291015625
3.037353515625
2.5313964843749996
2.19140625
1.5533203125
1.123095703125
0.4390869140625
0.0281982421875
0.030615234374999998
0.027392578124999997
0.3029296875
0.662255859375
0.84755859375
1.0900634765625
1.3059814453124998
1.5114257812499998
1.7724609375
1.94970703125
1.8095214843749998
1.85625
1.8046875
0.030615234374999998
0.027392578124999997
0.6751464843749999
0.9232910156249999
1.1625732421875
2.0004638671875
2.67158203125
3.0333251953125
3.0349365234374996
2.818212890625
2.34609375
2.064111328125
1.8224121093749999
1.7781005859374999
1.738623046875
1.6814208984374999
1.558154296875
1.13115234375
1.2076904296875
1.2906738281249999
1.316455078125
1.332568359375
3.0365478515624997
2.6522460937499996
2.230078125
2.7126708984374996
1.912646484375
0.5220703125
0.02900390625
0.0298095703125
0.02578125
0.25217285156249997
0.517236328125
0.7855224609375
1.042529296875
1.2777832031249998
1.4783935546875
1.8111328125
2.131787109375
1.9811279296875
1.9182861328124998
1.864306640625
1.7934082031249998
0.0298095703125
0.710595703125
0.837890625
0.9933837890624999
1.3309570312499999
2.5757080078124996
3.034130859375
3.0325195312499997
2.824658203125
2.47177734375
2.147900390625
1.799853515625
1.6959228515625
1.6000488281249998
1.6572509765624999
1.4074951171874999
1.3156494140625
1.313232421875
1.3470703124999999
1.3470703124999999
1.35673828125
3.0309082031249996
2.75537109375
2.5974609374999997
2.3533447265625
1.9682373046875
0.9788818359375
0.0298095703125
0.030615234374999998
0.02900390625
0.153076171875
0.38671875
0.7452392578125
0.9047607421874999
1.3317626953125
1.4816162109375
1.6346923828125
1.8925048828125
1.9247314453125
1.9327880859375
1.9150634765624999
1.8264404296874999
0.0298095703125
0.1716064453125
0.942626953125
1.0401123046875
1.332568359375
2.1632080078125
3.0357421875
3.0325195312499997
3.034130859375
2.6232421875
2.14306640625
1.9053955078125
1.864306640625
1.7088134765624998
1.7418457031249999
1.56943359375
1.3075927734375
1.1126220703125
1.271337890625
1.2995361328125
1.3309570312499999
3.0325195312499997
3.0357421875
2.5112548828124996
2.4065185546875
1.5702392578125
1.268115234375
0.0314208984375
0.0298095703125
0.027392578124999997
0.0926513671875
0.3802734375
0.6533935546874999
0.77666015625
1.2995361328125
1.3478759765625
1.654833984375
1.832080078125
2.022216796875
1.877197265625
1.8820312499999998
1.8344970703124999
0.0314208984375
0.024169921875
0.9933837890624999
0.9708251953125
1.82724609375
2.16884765625
3.0357421875
3.037353515625
3.0381591796875
2.640966796875
2.3154785156249997
2.0044921875
1.8635009765625
1.622607421875
1.7249267578124998
1.5799072265624998
1.3792968749999999
1.62744140625
1.2479736328125
1.2890625
1.2503906249999999
2.2067138671874997
3.0357421875
2.3799316406249997
2.350927734375
1.4735595703125
1.2399169921875
0.20061035156249998
0.0298095703125
0.033032226562499996
0.0281982421875
0.28359375
0.710595703125
0.8145263671874999
1.1255126953124999
1.3559326171875
1.61455078125
1.9013671875
1.7015624999999999
1.9650146484375
1.9940185546875
1.9102294921874998
0.0298095703125
0.02900390625
0.7162353515625
0.9571289062499999
1.6636962890625
2.225244140625
2.8045166015625
3.0365478515624997
3.0357421875
2.8012939453124996
2.3235351562499997
1.9891845703125
1.8006591796875
1.6717529296875
1.6773925781249999
1.4703369140625
1.3801025390625
1.5033691406249998
1.19560546875
1.3510986328124999
1.33740234375
1.8232177734375
3.0357421875
2.6095458984374997
2.3323974609375
2.553955078125
1.5162597656249999
0.314208984375
0.0314208984375
0.030615234374999998
0.023364257812499997
0.3359619140625
0.5599365234375
0.8032470703125
1.142431640625
1.3704345703124998
1.5235107421874998
1.8457763671874998
1.869140625
2.1301757812499997
1.9634033203124999
1.8755859375
1.190771484375
0.027392578124999997
0.6872314453124999
0.9821044921875
0.7291259765625
2.1519287109375
2.81982421875
3.034130859375
3.037353515625
2.8133789062499996
2.4468017578125
2.112451171875
1.75634765625
1.6620849609375
1.6524169921874998
1.6798095703125
1.44052734375
1.2560302734375
1.4912841796874998
1.2592529296875
1.2455566406249998
1.2979248046874998
3.0349365234374996
2.6619140624999997
2.6055175781249997
2.3855712890625
1.767626953125
0.8958984375
0.0298095703125
0.02900390625
0.0322265625
0.1232666015625
0.33676757812499997
0.678369140625
0.8805908203124999
1.1666015625
1.416357421875
1.7257324218749999
1.8304687499999999
2.0133544921874997
1.9005615234375
1.9198974609375
1.8755859375
0.0322265625
0.4004150390625
0.7242919921875
0.72509765625
1.248779296875
2.1922119140625
3.0357421875
3.0365478515624997
3.0349365234374996
2.72314453125
2.2840576171875
2.0197998046875
1.9118408203125
1.786962890625
1.74345703125
1.6089111328124999
1.3897705078125
1.5146484375
1.3269287109374999
1.3575439453125
1.3333740234375
3.0365478515624997
3.0357421875
2.6691650390625
2.3638183593749997
2.0359130859375
0.8443359374999999
0.0298095703125
0.0298095703125
0.0281982421875
0.0958740234375
0.31743164062499996
0.6372802734374999
0.8161376953124999
1.1408203125
1.3043701171875
1.5154541015624998
1.8989501953124999
1.8707519531249999
2.04638671875
1.989990234375
1.8763916015625
0.0298095703125
0.26748046875
0.7774658203125
0.8427246093749999
1.735400390625
2.08505859375
3.034130859375
3.0397705078125
3.0357421875
2.69091796875
2.3485107421875
2.0262451171875
1.9400390625
1.8103271484374999
1.7716552734375
1.480810546875
1.4107177734374998
1.4308593749999998
1.32451171875
1.3317626953125
1.2963134765625
3.034130859375
3.034130859375
2.3340087890625
2.591015625
1.8256347656249998
1.2399169921875
0.153076171875
0.0281982421875
0.0298095703125
0.0322265625
0.23122558593749998
0.5164306640624999
0.6348632812499999
1.042529296875
1.3672119140624999
1.577490234375
1.799853515625
1.8014648437499998
2.0149658203125
1.9811279296875
1.912646484375
0.0298095703125
0.0281982421875
0.6582275390625
0.8870361328124999
1.8054931640624998
2.1406494140625
2.99384765625
3.0325195312499997
3.0349365234374996
2.8311035156249997
2.4032958984375
2.11728515625
1.9037841796875
1.8087158203125
1.78857421875
1.65
1.3446533203125
1.46630859375
1.3237060546875
1.2914794921875
1.3067871093749999
3.0357421875
3.034130859375
2.6820556640624997
2.5837646484374996
2.2187988281249997
1.3664062499999998
0.040283203125
0.0298095703125
0.0298095703125
0.0281982421875
0.1780517578125
0.3665771484375
0.5905517578125
0.9329589843749999
1.1158447265625
1.361572265625
1.7184814453125
1.5799072265624998
1.9110351562499999
1.9537353515625
1.93359375
0.050756835937499994
0.0298095703125
0.48259277343749996
0.736376953125
0.5389892578125
1.9666259765624998
2.8230468749999997
3.0405761718749997
3.034130859375
2.9173095703125
2.6256591796874997
2.3775146484375
2.112451171875
1.9424560546874998
1.8828369140624999
1.73056640625
1.5597656249999998
1.2656982421874998
1.3527099609375
1.3390136718749999
1.3543212890624998
1.3172607421875
3.0349365234374996
2.698974609375
2.4741943359375
2.4041015624999997
1.4284423828125
0.6324462890625
0.0281982421875
0.0298095703125
0.027392578124999997
0.1297119140625
0.40524902343749997
0.591357421875
0.7565185546875
1.03447265625
1.361572265625
1.558154296875
1.9166748046875
1.9625976562499998
1.9352050781249999
1.9110351562499999
0.44230957031249996
0.0298095703125
0.56396484375
0.5986083984375
0.48017578125
1.6153564453125
2.3388427734375
3.0381591796875
3.034130859375
3.034130859375
2.7021972656249997
2.3203125
2.08505859375
2.0294677734374997
1.8747802734374999
1.78857421875
1.50498046875
1.3083984375
1.4510009765624998
1.3019531249999998
1.3188720703124999
1.368017578125
3.034130859375
3.0365478515624997
2.5305908203125
2.5354248046874996
2.3114501953124997
0.8032470703125
0.0314208984375
0.0298095703125
0.0298095703125
0.072509765625
0.33193359375
0.5220703125
0.781494140625
1.0272216796875
1.2640869140625
1.4526123046875
1.7845458984375
1.6830322265625
1.9166748046875
1.9150634765624999
1.8224121093749999
0.02900390625
0.4406982421875
0.5309326171875
0.8604492187499999
1.413134765625
2.3082275390625
3.034130859375
3.0389648437499996
3.0349365234374996
2.7626220703124997
2.550732421875
2.241357421875
2.08505859375
1.9940185546875
1.9440673828125
1.706396484375
1.4308593749999998
1.0884521484375
1.300341796875
1.3019531249999998
1.2866455078124999
3.0357421875
3.0413818359375
2.4854736328125
2.6683593749999996
2.2921142578125
1.3148437499999999
0.02900390625
0.0298095703125
0.02900390625
0.033032226562499996
0.19013671875
0.47373046874999997
0.4632568359375
0.8854248046875
1.222998046875
1.4759765624999999
1.7499023437499999
2.1003662109375
1.9343994140624998
1.920703125
1.8635009765625
0.030615234374999998
0.02900390625
0.84755859375
0.6968994140625
1.3833251953124999
1.925537109375
2.92294921875
3.0389648437499996
3.037353515625
2.8931396484375
2.5273681640624996
2.2341064453125
2.18173828125
1.8981445312499998
1.8973388671875
1.7660156249999999
1.5186767578125
1.19560546875
1.4026611328124998
1.3019531249999998
1.300341796875
3.0244628906249997
3.0349365234374996
2.63291015625
2.6949462890625
1.69189453125
1.3502929687499998
0.033032226562499996
0.0298095703125
0.0322265625
0.0314208984375
0.201416015625
0.37785644531249996
0.523681640625
0.9547119140625
1.0965087890625
1.3430419921874999
1.7015624999999999
1.9867675781249998
1.8546386718749999
1.95615234375
1.8828369140624999
0.0298095703125
0.024169921875
0.8290283203125
0.78955078125
1.0505859375
1.9553466796874999
3.0309082031249996
3.034130859375
3.034130859375
2.8850830078125
2.640966796875
2.3477050781249997
2.11728515625
1.909423828125
1.89169921875
1.7877685546875
1.538818359375
1.2777832031249998
1.181103515625
1.2656982421874998
1.264892578125
1.2882568359375
3.0365478515624997
2.72958984375
2.4145751953125
1.803076171875
1.3478759765625
0.5969970703124999
0.0298095703125
0.0314208984375
0.02900390625
0.11279296875
0.38188476562499996
0.533349609375
0.768603515625
1.0634765625
1.3148437499999999
1.6185791015625
1.9698486328125
1.7942138671874999
1.899755859375
1.8755859375
0.030615234374999998
0.027392578124999997
0.5929687499999999
0.6187499999999999
0.8572265625
1.8280517578125
2.5289794921874997
3.0349365234374996
3.0365478515624997
3.0357421875
2.60712890625
2.354150390625
2.1068115234375
2.0423583984375
1.931982421875
1.8062988281249999
1.690283203125
1.18271484375
1.2310546875
1.2963134765625
1.2777832031249998
1.2705322265624999
3.0349365234374996
2.8721923828125
2.4516357421875
2.900390625
2.1229248046875
0.605859375
0.030615234374999998
0.0249755859375
0.027392578124999997
0.111181640625
0.25458984375
0.5212646484375
0.7404052734375
1.0803955078125
1.2963134765625
1.6935058593749999
2.0818359374999997
1.8949218749999999
1.89169921875
1.899755859375
1.8199951171875
0.027392578124999997
0.60263671875
0.6759521484375
0.9095947265625
1.7426513671875
2.4685546874999997
3.0405761718749997
3.034130859375
3.0333251953125
2.6659423828124997
2.392822265625
2.1052001953125
2.0036865234375
1.8369140625
1.8336914062499998
1.5017578125
1.393798828125
1.2930908203125
1.3341796874999998
1.3752685546874999
1.368017578125
3.0349365234374996
2.9398681640624997
2.776318359375
2.6458007812499997
2.2494140625
1.1931884765625
0.0314208984375
0.0298095703125
0.0298095703125
0.033837890625
0.262646484375
0.4970947265625
0.6759521484375
1.0828125
1.2221923828124999
1.4356933593749999
1.7362060546875
1.8312744140625
1.9352050781249999
1.91748046875
1.8546386718749999
0.0298095703125
0.06606445312499999
0.813720703125
0.8830078124999999
1.147265625
1.9472900390624999
3.0357421875
3.0405761718749997
3.0365478515624997
2.8375488281249996
2.47177734375
2.1760986328125
2.09150390625
1.9384277343749998
1.8635009765625
1.7217041015624999
1.3873535156249999
1.1819091796874999
1.3470703124999999
1.32451171875
1.3382080078124998
3.0349365234374996
3.034130859375
2.6707763671875
2.6240478515624996
1.7595703125
1.21494140625
0.0298095703125
0.033032226562499996
0.0298095703125
0.02900390625
0.201416015625
0.394775390625
0.597802734375
1.0634765625
1.1190673828125
1.4501953125
1.703173828125
2.023828125
1.8651123046875
1.89169921875
1.8731689453125
0.02900390625
0.026586914062499998
0.8338623046875
0.7379882812499999
1.5380126953125
2.0826416015625
3.0397705078125
3.0365478515624997
3.0317138671875
2.856884765625
2.6232421875
2.2550537109374997
2.147900390625
1.8224121093749999
1.931982421875
1.7660156249999999
1.4800048828124999
1.65966796875
1.3414306640625
1.2850341796875
1.300341796875
3.0317138671875
3.034130859375
2.534619140625
2.5330078124999997
1.6669189453125
1.42119140625
0.34482421874999997
0.024169921875
0.0281982421875
0.0298095703125
0.18369140625
0.43344726562499997
0.546240234375
0.8161376953124999
1.1077880859375
1.3470703124999999
1.7047851562499998
2.1438720703125
1.9021728515624998
1.9182861328124998
1.8489990234375
0.02900390625
0.0314208984375
0.5454345703125
0.7500732421874999
1.3986328124999998
2.05283203125
3.0357421875
3.034130859375
3.0325195312499997
2.98740234375
2.5789306640625
2.2888916015625
2.0334960937499997
1.7490966796874998
1.8465820312499999
1.625830078125
1.4300537109375
1.5380126953125
1.255224609375
1.416357421875
1.353515625
1.6250244140624999
3.0349365234374996
2.6699707031249997
2.4838623046875
2.85205078125
1.368017578125
0.49387207031249997
0.030615234374999998
0.02900390625
0.026586914062499998
0.141796875
0.2860107421875
0.5099853515625
0.8177490234375
1.0852294921874999
1.2745605468749999
1.6943115234375
1.7474853515625
1.980322265625
1.9376220703125
1.8860595703124998
1.6314697265625
0.030615234374999998
0.55751953125
0.7291259765625
0.5776611328125
2.01416015625
2.7158935546875
3.034130859375
3.0357421875
3.0172119140625
2.689306640625
2.3549560546875
2.101171875
2.0391357421875
1.9166748046875
1.8167724609375
1.6411376953124999
1.361572265625
1.1456542968749999
1.3027587890624999
1.2705322265624999
1.3470703124999999
3.0365478515624997
2.7545654296874997
2.7900146484375
2.9640380859374997
1.8900878906249998
1.0594482421875
0.023364257812499997
0.0298095703125
0.030615234374999998
0.0322265625
0.2972900390625
0.4729248046875
0.6388916015624999
1.0304443359375
1.2181640624999999
1.5686279296874999
1.896533203125
1.9529296875
1.8699462890624998
1.9231201171874999
1.8111328125
0.0298095703125
0.2376708984375
0.6590332031249999
0.5647705078124999
1.0868408203125
2.537841796875
3.0357421875
3.0349365234374996
3.0357421875
2.7287841796874996
2.4427734375
2.1825439453124997
1.996435546875
1.8780029296874998
1.8425537109374999
1.635498046875
1.4147460937499998
1.509814453125
1.319677734375
1.3180664062499998
1.3317626953125
3.037353515625
2.876220703125
2.8319091796875
2.4991699218749996
2.1060058593749997
1.03447265625
0.0298095703125
0.026586914062499998
0.02900390625
0.041088867187499996
0.223974609375
0.4842041015625
0.6413085937499999
0.9958007812499999
1.147265625
1.4034667968749999
1.7474853515625
1.8175781249999998
1.9215087890625
1.9569580078125
1.89169921875
0.02900390625
0.22236328125
0.77666015625
0.775048828125
1.1408203125
2.0737792968749997
3.0389648437499996
3.034130859375
3.0333251953125
2.808544921875
2.5007812499999997
2.164013671875
2.0939208984374997
1.993212890625
1.844970703125
1.5766845703124999
1.4316650390624999
1.5017578125
1.300341796875
1.345458984375
1.2866455078124999
3.0349365234374996
3.0349365234374996
2.3356201171874997
2.5587890625
1.9086181640625
1.3639892578125
0.240087890625
0.0298095703125
0.02900390625
0.026586914062499998
0.19497070312499998
0.451171875
0.491455078125
0.910400390625
1.2020507812499999
1.445361328125
1.6733642578124999
1.8844482421875
1.867529296875
1.85947265625
1.8248291015625
0.0281982421875
0.02900390625
0.6090820312499999
0.7242919921875
1.732177734375
1.9924072265625
3.0333251953125
3.0317138671875
3.034130859375
2.8496337890624996
2.634521484375
2.3565673828125
2.1068115234375
1.9311767578124999
1.9835449218749999
1.8498046874999998
1.4687255859375
1.6806152343749998
1.3011474609375
1.3140380859374998
1.2769775390625
2.9825683593749996
3.0325195312499997
2.3799316406249997
2.6159912109374996
2.4049072265625
1.4493896484375
0.1087646484375
0.0298095703125
0.0281982421875
0.0314208984375
0.13615722656249998
0.3343505859375
0.5051513671875
0.823388671875
1.0530029296874999
1.264892578125
1.641943359375
1.4236083984374999
1.85625
1.8900878906249998
1.8361083984375
0.4487548828125
0.0281982421875
0.604248046875
0.7541015624999999
0.5051513671875
1.9787109374999998
2.7352294921875
3.0365478515624997
3.0349365234374996
2.940673828125
2.6772216796875
2.3033935546874997
2.1245361328125
1.998046875
1.9142578124999998
1.770849609375
1.5662109375
1.4074951171874999
1.3019531249999998
1.3825195312499998
1.3422363281249998
2.334814453125
3.0357421875
2.698974609375
2.5491210937499997
2.566845703125
1.5090087890625
0.7114013671874999
0.0322265625
0.0298095703125
0.02900390625
0.0708984375
0.3182373046875
0.4890380859375
0.710595703125
1.1295410156249999
1.3204833984375
1.5082031249999999
1.5243164062499999
1.9537353515625
1.9005615234375
1.8908935546874999
0.920068359375
0.0298095703125
0.4833984375
0.736376953125
0.4890380859375
1.377685546875
2.7183105468749997
3.0357421875
3.034130859375
3.0357421875
2.7191162109375
2.3920166015624997
2.1325927734375
1.993212890625
1.9231201171874999
1.8489990234375
1.5412353515625
1.3994384765624999
1.5895751953125
1.2834228515625
1.2753662109375
1.2995361328125
3.0349365234374996
2.68125
2.6200195312499996
2.505615234375
1.690283203125
0.871728515625
0.02900390625
0.0322265625
0.0298095703125
0.040283203125
0.24089355468749998
0.485009765625
0.64453125
0.91201171875
1.181103515625
1.5444580078124999
1.7426513671875
1.6056884765625
1.8699462890624998
1.912646484375
1.8586669921874999
0.0281982421875
0.4197509765625
0.58330078125
0.784716796875
1.2463623046874999
2.19140625
3.0357421875
3.0365478515624997
3.0357421875
2.8133789062499996
2.5894042968749997
2.2236328125
2.147900390625
2.047998046875
1.9110351562499999
1.7595703125
1.4703369140625
1.6129394531249999
1.2866455078124999
1.3172607421875
1.2914794921875
3.034130859375
3.037353515625
2.4169921875
2.44599609375
2.2502197265625
1.3801025390625
0.0281982421875
0.0298095703125
0.0298095703125
0.02900390625
0.22075195312499998
0.43344726562499997
0.44633789062499996
0.9289306640624999
1.15693359375
1.3921875
1.7096191406249999
1.6411376953124999
1.9279541015625
1.9231201171874999
1.84013671875
0.02900390625
0.0281982421875
0.6678955078125
0.7259033203124999
1.546875
1.9787109374999998
3.0349365234374996
3.0405761718749997
3.0325195312499997
2.8012939453124996
2.4854736328125
2.24619140625
2.13662109375
2.0181884765625
1.9029785156249999
1.7152587890625
1.4679199218749999
1.2479736328125
1.4381103515625
1.3801025390625
1.348681640625
3.0333251953125
3.0333251953125
2.4129638671875
2.731201171875
1.8892822265625
1.3639892578125
0.1635498046875
0.0314208984375
0.026586914062499998
0.02578125
0.19094238281249998
0.34562988281249996
0.48178710937499997
0.8773681640625
1.1093994140624999
1.445361328125
1.7418457031249999
1.8900878906249998
1.8506103515624999
1.8755859375
1.8232177734375
0.030615234374999998
0.0281982421875
0.6912597656249999
0.7702148437499999
1.587158203125
1.8892822265625
2.9092529296875
3.0357421875
3.034130859375
2.9600097656249997
2.7021972656249997
2.3436767578124997
2.1309814453125
1.9754882812499999
1.980322265625
1.7813232421874998
1.5396240234374998
1.2044677734375
1.3656005859375
1.281005859375
1.31162109375
3.034130859375
3.0309082031249996
2.747314453125
2.44599609375
2.0431640625
1.3744628906249998
0.6227783203124999
0.026586914062499998
0.02900390625
0.02900390625
0.1087646484375
0.38510742187499997
0.491455078125
0.72509765625
1.0239990234375
1.24716796875
1.56943359375
1.6572509765624999
1.7692382812499998
1.85302734375
1.844970703125
0.030615234374999998
0.0298095703125
0.5696044921875
0.6856201171874999
0.6388916015624999
1.7289550781249998
2.8883056640625
3.037353515625
3.0365478515624997
3.0405761718749997
2.7021972656249997
2.431494140625
2.2179931640625
2.0665283203125
2.0334960937499997
1.9134521484375
1.7023681640625
1.3043701171875
1.364794921875
1.2914794921875
1.297119140625
1.2963134765625
3.0325195312499997
2.7392578125
2.4387451171875
2.7779296875
2.199462890625
0.6090820312499999
0.0298095703125
0.02578125
0.0314208984375
0.09023437499999999
0.275537109375
0.46567382812499997
0.69287109375
0.9796874999999999
1.1923828125
1.5138427734375
1.867529296875
1.8256347656249998
1.8828369140624999
1.8892822265625
1.8304687499999999
0.02900390625
0.5325439453124999
0.57041015625
0.8902587890625
1.6266357421875
2.358984375
3.0357421875
3.037353515625
3.0357421875
2.7505371093749997
2.4919189453125
2.1946289062499997
2.1229248046875
1.998046875
1.8635009765625
1.5879638671874998
1.4703369140625
1.268115234375
1.3349853515624999
1.3067871093749999
1.3180664062499998
3.037353515625
2.99384765625
2.7255615234375
2.7062255859374997
2.3138671875
1.206884765625
0.0298095703125
0.0314208984375
0.0298095703125
0.027392578124999997
0.2650634765625
0.510791015625
0.59619140625
1.061865234375
1.1851318359375
1.3631835937499999
1.64677734375
1.69833984375
1.8699462890624998
1.8651123046875
1.8626953124999999
0.02900390625
0.0314208984375
0.855615234375
0.8677001953125
1.1577392578124999
2.01416015625
3.0365478515624997
3.0301025390625
3.0357421875
2.892333984375
2.5732910156249997
2.2993652343749997
2.231689453125
2.0455810546874997
1.9537353515625
1.735400390625
1.4574462890625
1.06669921875
1.3043701171875
1.287451171875
1.2947021484374999
3.0325195312499997
3.037353515625
2.63935546875
2.6103515625
1.7120361328125
1.45341796875
0.0281982421875
0.030615234374999998
0.0298095703125
0.0298095703125
0.14421386718749998
0.372216796875
0.443115234375
0.9394042968749999
1.045751953125
1.3929931640625
1.6572509765624999
2.0109375
1.7942138671874999
1.8626953124999999
1.8393310546875
0.0298095703125
0.0298095703125
0.9466552734375
0.710595703125
1.445361328125
1.973876953125
3.0357421875
3.0349365234374996
3.037353515625
2.872998046875
2.6296874999999997
2.3557617187499997
2.1865722656249997
1.9013671875
1.9907958984374998
1.7829345703125
1.5347900390625
1.7015624999999999
1.2673095703125
1.3059814453124998
1.3172607421875
1.9271484374999999
3.0365478515624997
2.5894042968749997
2.5515380859374996
1.6951171875
1.4300537109375
0.3826904296875
0.030615234374999998
0.0298095703125
0.02578125
0.1611328125
0.40605468749999996
0.47775878906249997
0.7927734375
1.029638671875
1.316455078125
1.670947265625
1.6395263671875
1.9215087890625
1.973876953125
1.915869140625
0.0281982421875
0.030615234374999998
0.5583251953125
0.8000244140624999
1.34384765625
2.0471923828125
2.6369384765625
3.037353515625
3.0349365234374996
2.9817626953125
2.582958984375
2.2365234375
2.0173828124999997
1.9327880859375
1.8949218749999999
1.6669189453125
1.5162597656249999
1.6000488281249998
1.239111328125
1.3599609375
1.3027587890624999
1.426025390625
3.0397705078125
2.7650390624999996
2.5177001953125
2.9189208984375
1.8369140625
0.50595703125
0.0298095703125
0.0281982421875
0.030615234374999998
0.1353515625
0.246533203125
0.4318359375
0.7436279296874999
0.9821044921875
1.1964111328125
1.6153564453125
1.7362060546875
2.02060546875
1.8908935546874999
1.920703125
1.75634765625
0.02900390625
0.5478515625
0.7017333984374999
0.472119140625
1.074755859375
2.618408203125
3.037353515625
3.0357421875
3.0309082031249996
2.72314453125
2.55234375
2.173681640625
2.13984375
2.006103515625
1.9424560546874998
1.7015624999999999
1.4066894531249998
1.538818359375
1.3446533203125
1.27939453125
1.2705322265624999
3.0349365234374996
2.784375
2.7803466796875
2.5555664062499996
1.9279541015625
1.0143310546875
0.0281982421875
0.0298095703125
0.0281982421875
0.0298095703125
0.21591796875
0.501123046875
0.5438232421875
0.8789794921874999
1.1706298828125
1.561376953125
1.7466796875
2.012548828125
1.8908935546874999
1.9182861328124998
1.8739746093749998
0.0298095703125
0.1232666015625
0.5873291015625
0.6227783203124999
1.0884521484375
2.0987548828125
3.037353515625
3.0309082031249996
3.0349365234374996
2.8681640625
2.50400390625
2.2469970703124997
2.20107421875
1.9464843749999998
1.980322265625
1.7684326171875
1.5267333984375
1.5460693359375
1.3212890625
1.3478759765625
1.3172607421875
3.0365478515624997
3.0357421875
2.856884765625
2.582958984375
2.102783203125
1.3744628906249998
0.02900390625
0.0281982421875
0.02578125
0.0281982421875
0.18288574218749998
0.44794921875
0.4640625
0.9659912109375
1.0965087890625
1.3768798828125
1.7531249999999998
1.8667236328124999
1.9440673828125
1.9754882812499999
1.9029785156249999
0.0314208984375
0.0298095703125
0.6872314453124999
0.6517822265625
1.6878662109375
2.054443359375
3.0325195312499997
3.0325195312499997
3.0357421875
2.89072265625
2.582958984375
2.28486328125
2.115673828125
1.9005615234375
1.89169921875
1.574267578125
1.44052734375
1.5509033203125
1.416357421875
1.2987304687499999
1.2511962890625
3.034130859375
3.0365478515624997
2.3887939453125
2.6764160156249996
1.9118408203125
1.3736572265625
0.223974609375
0.0281982421875
0.02900390625
0.02900390625
0.0878173828125
0.32871093749999997
0.39799804687499996
0.8765624999999999
1.1158447265625
1.4268310546874998
1.7337890624999999
1.619384765625
2.0004638671875
1.9988525390624998
1.9617919921875
0.02900390625
0.0298095703125
0.43505859375
0.6767578125
1.654833984375
2.015771484375
2.9116699218749997
3.034130859375
3.0333251953125
3.0301025390625
2.6288818359375
2.36220703125
2.176904296875
2.0455810546874997
1.9875732421874999
1.78857421875
1.4767822265625
1.635498046875
1.2576416015624998
1.2938964843749998
1.2342773437499999
2.9455078125
3.037353515625
2.7811523437499996
2.6538574218749997
2.392822265625
1.393798828125
0.04833984375
0.0298095703125
0.02900390625
0.02900390625
0.0749267578125
0.28037109374999997
0.4962890625
0.825
1.0191650390625
1.27939453125
1.72412109375
1.52109375
1.993212890625
1.98837890625
1.9948242187499998
0.2022216796875
0.0298095703125
0.4842041015625
0.7557128906249999
0.4197509765625
1.5484863281249999
2.8077392578125
3.0333251953125
3.0357421875
3.034130859375
2.711865234375
2.4282714843749997
2.16884765625
1.9827392578124998
1.94970703125
1.8199951171875
1.5347900390625
1.3672119140624999
1.474365234375
1.3124267578125
1.2656982421874998
1.2350830078125
3.0357421875
2.7416748046875
2.5531494140624997
2.6200195312499996
1.5476806640624998
0.6936767578124999
0.030615234374999998
0.02900390625
0.02900390625
0.12165527343749999
0.3101806640625
0.5293212890625
0.7387939453125
1.0175537109375
1.35673828125
1.5686279296874999
1.9384277343749998
2.1076171875
2.0173828124999997
2.0101318359375
1.9424560546874998
0.0298095703125
0.47856445312499996
0.58974609375
0.5067626953125
1.5637939453124998
2.4524414062499997
3.034130859375
3.0357421875
3.0349365234374996
2.7110595703125
2.2598876953125
2.018994140625
1.9658203125
1.8167724609375
1.7337890624999999
1.44052734375
1.16015625
1.4437499999999999
1.15048828125
1.1835205078125
1.21494140625
3.0357421875
3.0357421875
2.5982666015625
2.4065185546875
2.2590820312499997
1.197216796875
0.0314208984375
0.02900390625
0.026586914062499998
0.0322265625
0.246533203125
0.5260986328125
0.6308349609374999
1.0594482421875
1.4066894531249998
1.7152587890625
1.920703125
1.7555419921875
2.0133544921874997
1.989990234375
1.9215087890625
0.0314208984375
0.027392578124999997
0.668701171875
0.816943359375
1.6072998046875
2.4049072265625
3.0365478515624997
3.0349365234374996
3.034130859375
2.7142822265624997
2.4274658203125
2.118896484375
1.9263427734374998
1.812744140625
1.7595703125
1.5718505859374998
1.31162109375
1.110205078125
1.2866455078124999
1.2415283203124998
1.2318603515625
3.0357421875
3.034130859375
2.450830078125
2.6723876953124996
2.2196044921875
1.2415283203124998
0.0314208984375
0.030615234374999998
0.027392578124999997
0.0298095703125
0.2022216796875
0.565576171875
0.5663818359375
1.0481689453125
1.200439453125
1.5887695312499999
1.92392578125
2.1301757812499997
2.09150390625
2.002880859375
1.9376220703125
0.027392578124999997
0.030615234374999998
0.781494140625
0.865283203125
1.690283203125
2.0898925781249997
3.0357421875
3.0357421875
3.0349365234374996
2.8319091796875
2.418603515625
2.096337890625
1.973876953125
1.8087158203125
1.770849609375
1.56298828125
1.4010498046875
1.142431640625
1.340625
1.2914794921875
1.3253173828125
3.0357421875
3.0365478515624997
2.6699707031249997
2.615185546875
1.7740722656249999
1.2753662109375
0.02900390625
0.02900390625
0.033032226562499996
0.02900390625
0.2578125
0.44553222656249997
0.5969970703124999
0.9547119140625
1.1537109374999999
1.429248046875
1.8087158203125
1.9730712890625
1.9078125
1.998046875
1.931982421875
0.030615234374999998
0.02900390625
0.8024414062499999
0.8443359374999999
1.0272216796875
2.1374267578125
3.0357421875
3.0357421875
3.0365478515624997
2.876220703125
2.521728515625
2.196240234375
1.931982421875
1.7853515624999998
1.7531249999999998
1.6483886718749998
1.3631835937499999
1.0948974609375
1.1690185546875
1.222998046875
1.22138671875
1.24716796875
3.0357421875
2.65869140625
2.305810546875
2.7513427734375
1.1770751953125
0.38994140624999996
0.02900390625
0.030615234374999998
0.0249755859375
0.1861083984375
0.39396972656249996
0.6332519531249999
0.8693115234375
1.1432373046875
1.509814453125
1.7555419921875
2.1309814453125
1.9400390625
1.94970703125
1.89169921875
1.844970703125
0.0298095703125
0.555908203125
0.7033447265624999
0.837890625
1.9005615234375
2.5757080078124996
3.037353515625
3.037353515625
3.02607421875
2.6361328124999996
2.2872802734374997
2.028662109375
1.915869140625
1.8377197265624998
1.6935058593749999
1.5460693359375
1.2930908203125
1.2697265624999998
1.2544189453124999
1.268115234375
1.2995361328125
3.0381591796875
2.8689697265625
2.3936279296875
2.7513427734375
2.102783203125
1.06025390625
0.030615234374999998
0.030615234374999998
0.0298095703125
0.130517578125
0.35288085937499997
0.5865234375
0.7097900390624999
1.1456542968749999
1.3873535156249999
1.6322753906249998
2.0818359374999997
1.93681640625
2.03994140625
2.006103515625
1.928759765625
0.027392578124999997
0.0668701171875
0.6888427734375
0.9901611328125
1.27294921875
2.5007812499999997
3.0357421875
3.034130859375
3.034130859375
2.6844726562499996
2.384765625
2.1052001953125
1.989990234375
1.85302734375
1.82724609375
1.5315673828124998
1.4042724609375
1.2060791015624999
1.327734375
1.3019531249999998
1.335791015625
3.034130859375
2.9430908203125
2.673193359375
2.5458984375
2.2196044921875
1.103759765625
0.0298095703125
0.026586914062499998
0.02900390625
0.033032226562499996
0.1893310546875
0.46728515625
0.6509765624999999
1.1400146484375
1.2318603515625
1.5444580078124999
1.7853515624999998
2.1132568359375
1.98193359375
1.9617919921875
1.9021728515624998
0.02900390625
0.0394775390625
0.9007324218749999
0.8193603515625
1.2463623046874999
2.0979492187499997
3.037353515625
3.0357421875
3.0389648437499996
2.81982421875
2.441162109375
2.128564453125
2.0246337890625
1.7329833984374998
1.7797119140625
1.6459716796875
1.3986328124999998
0.9893554687499999
1.2906738281249999
1.2616699218749998
1.3019531249999998
3.0333251953125
3.0357421875
2.4242431640624997
2.52978515625
1.5927978515624999
1.335791015625
0.0298095703125
0.027392578124999997
0.0298095703125
0.0281982421875
0.2102783203125
0.443115234375
0.5534912109375
1.0449462890624999
1.2189697265625
1.5919921874999998
1.8143554687499999
2.1462890624999997
1.9190917968749999
1.960986328125
1.8731689453125
0.02900390625
0.0281982421875
1.0328613281249999
0.807275390625
1.533984375
2.1503173828124997
3.0349365234374996
3.034130859375
3.034130859375
2.834326171875
2.5072265624999996
2.2196044921875
2.0012695312499997
1.7297607421874999
1.851416015625
1.65
1.4501953125
1.6403320312499998
1.276171875
1.3253173828125
1.3092041015625
1.8941162109374998
3.0325195312499997
2.4967529296874997
2.408935546875
1.5509033203125
1.2834228515625
0.24492187499999998
0.02900390625
0.0298095703125
0.02900390625
0.17080078124999998
0.530126953125
0.6614501953124999
0.95068359375
1.1794921875
1.4397216796874999
1.7080078125
1.6290527343749999
1.9343994140624998
1.9924072265625
1.90458984375
0.030615234374999998
0.027392578124999997
0.5736328125
0.8523925781249999
1.4961181640624999
2.1229248046875
2.6941406249999997
3.0389648437499996
3.0357421875
2.9342285156249996
2.5112548828124996
2.2494140625
1.9940185546875
1.9078125
1.89169921875
1.6951171875
1.4759765624999999
1.5235107421874998
1.2431396484375
1.3833251953124999
1.364794921875
1.574267578125
3.034130859375
2.6458007812499997
2.373486328125
2.76826171875
1.6725585937499998
0.4068603515625
0.027392578124999997
0.02900390625
0.0322265625
0.159521484375
0.33757324218749996
0.549462890625
0.8805908203124999
1.1142333984375
1.303564453125
1.7337890624999999
1.7652099609374998
2.0471923828125
1.980322265625
1.9827392578124998
1.7233154296875
0.026586914062499998
0.5728271484374999
0.8080810546874999
0.69287109375
2.08828125
2.7344238281249997
3.034130859375
3.0365478515624997
2.956787109375
2.6159912109374996
2.31064453125
1.9956298828124999
1.920703125
1.8119384765625
1.7692382812499998
1.5879638671874998
1.2737548828124998
1.5090087890625
1.2503906249999999
1.2423339843749999
1.2802001953125
3.0357421875
2.6691650390625
2.63291015625
2.34287109375
1.7426513671875
0.91201171875
0.0314208984375
0.030615234374999998
0.026586914062499998
0.030615234374999998
0.2457275390625
0.607470703125
0.7339599609374999
1.036083984375
1.2987304687499999
1.670947265625
1.8506103515624999
2.0471923828125
1.925537109375
1.9795166015624999
1.896533203125
0.024169921875
0.291650390625
0.7613525390625
0.742822265625
1.197216796875
2.128564453125
3.0325195312499997
3.0381591796875
3.034130859375
2.7666503906249997
2.3871826171875
2.112451171875
2.0020751953125
1.8304687499999999
1.7724609375
1.625830078125
1.3688232421875
1.464697265625
1.2616699218749998
1.3382080078124998
1.3462646484374998
3.0357421875
3.0365478515624997
2.6844726562499996
2.3920166015624997
2.0004638671875
1.2777832031249998
0.033032226562499996
0.0249755859375
0.0298095703125
0.08217773437499999
0.291650390625
0.5196533203125
0.5454345703125
1.0223876953125
1.2093017578125
1.4655029296875
1.8264404296874999
1.8796142578125
1.9867675781249998
1.9746826171874998
1.85947265625
0.027392578124999997
0.0249755859375
0.7669921875
0.8161376953124999
1.7732666015624998
2.093115234375
3.0381591796875
3.0357421875
3.0357421875
2.79404296875
2.466943359375
2.1720703125
2.0439697265625
1.8941162109374998
1.8248291015625
1.5517089843749998
1.41796875
1.429248046875
1.377685546875
1.3390136718749999
1.3365966796875
3.0357421875
3.037353515625
2.209130859375
2.5660400390625
1.8780029296874998
1.2777832031249998
0.143408203125
0.022558593749999998
0.0298095703125
0.02900390625
0.1893310546875
0.5124023437499999
0.5986083984375
1.0094970703125
1.147265625
1.4872558593749998
1.7692382812499998
1.6588623046875
1.9593749999999999
1.9263427734374998
1.8780029296874998
0.02900390625
0.030615234374999998
0.6695068359374999
0.8024414062499999
1.738623046875
2.035107421875
2.9680664062499997
3.0349365234374996
3.037353515625
2.850439453125
2.4846679687499997
2.1785156249999997
2.0391357421875
1.9271484374999999
1.8989501953124999
1.7499023437499999
1.4510009765624998
1.558154296875
1.3124267578125
1.281005859375
1.255224609375
3.034130859375
3.0325195312499997
2.6675537109375
2.5612060546874997
2.1760986328125
1.2866455078124999
0.11762695312499999
0.030615234374999998
0.02900390625
0.030615234374999998
0.1611328125
0.38510742187499997
0.6211669921874999
0.9087890624999999
1.1045654296875
1.3559326171875
1.7845458984375
1.622607421875
1.9617919921875
1.9569580078125
1.9271484374999999
0.0281982421875
0.03544921875
0.620361328125
0.8346679687499999
0.6163330078125
2.038330078125
2.771484375
3.0357421875
3.0381591796875
2.9173095703125
2.5797363281249996
2.321923828125
2.075390625
1.8635009765625
1.8522216796875
1.740234375
1.5299560546875
1.3212890625
1.4413330078125
1.3639892578125
1.3341796874999998
1.3188720703124999
3.0365478515624997
2.6103515625
2.4435791015625
2.425048828125
1.4123291015625
0.6598388671875
0.0281982421875
0.0281982421875
0.0298095703125
0.1490478515625
0.4149169921875
0.6171386718749999
0.7637695312499999
1.04736328125
1.4026611328124998
1.590380859375
1.8828369140624999
1.964208984375
1.9078125
1.93359375
0.6582275390625
0.02578125
0.485009765625
0.6646728515625
0.5478515625
1.4961181640624999
2.27197265625
3.0365478515624997
3.0325195312499997
3.0349365234374996
2.7255615234375
2.370263671875
2.1632080078125
2.0665283203125
1.92392578125
1.8240234375
1.6435546875
1.364794921875
1.4928955078125
1.3027587890624999
1.3019531249999998
1.3067871093749999
3.0357421875
3.0099609375
2.5555664062499996
2.437939453125
2.254248046875
0.8177490234375
0.02578125
0.0249755859375
0.0298095703125
0.030615234374999998
0.262646484375
0.5204589843749999
0.75087890625
0.9796874999999999
1.2383056640624999
1.5726562499999999
1.7845458984375
1.674169921875
1.931982421875
1.8812255859375
1.7821289062499999
0.030615234374999998
0.4713134765625
0.6815917968749999
0.8854248046875
1.46953125
2.2276611328125
3.0365478515624997
3.0357421875
3.0325195312499997
2.7988769531249997
2.5386474609375
2.2469970703124997
2.05927734375
2.00771484375
1.896533203125
1.7297607421874999
1.4590576171874998
1.1021484375
1.2705322265624999
1.276171875
1.2423339843749999
3.0349365234374996
3.0381591796875
2.4685546874999997
2.6369384765625
2.180126953125
1.319677734375
0.02900390625
0.030615234374999998
0.030615234374999998
0.0322265625
0.182080078125
0.47856445312499996
0.4713134765625
0.910400390625
1.2093017578125
1.4526123046875
1.7507080078125
2.0898925781249997
1.9569580078125
1.8957275390625
1.8739746093749998
0.0298095703125
0.02900390625
0.8773681640625
0.829833984375
1.545263671875
1.92392578125
2.9237548828124997
3.0349365234374996
3.0325195312499997
2.9044189453125
2.5491210937499997
2.2437744140625
2.0665283203125
1.9215087890625
1.8683349609375
1.6822265625
1.493701171875
1.2044677734375
1.3873535156249999
1.3317626953125
1.3172607421875
3.037353515625
3.0357421875
2.6748046875
2.65869140625
1.7732666015624998
1.3704345703124998
0.1619384765625
0.02900390625
0.0281982421875
0.0298095703125
0.2376708984375
0.40122070312499997
0.533349609375
0.8701171875
1.0167480468749999
1.2898681640624998
1.66611328125
1.8941162109374998
1.864306640625
1.960986328125
1.9053955078125
0.0298095703125
0.0281982421875
0.7742431640624999
0.7637695312499999
0.9571289062499999
1.973876953125
2.96162109375
3.0349365234374996
3.0325195312499997
2.8899169921874996
2.618408203125
2.399267578125
2.1664306640624997
1.993212890625
1.957763671875
1.7426513671875
1.5082031249999999
1.2914794921875
1.2592529296875
1.3059814453124998
1.3212890625
1.2947021484374999
3.0317138671875
2.663525390625
2.367041015625
2.8536621093749996
1.2826171874999999
0.5607421874999999
0.0322265625
0.0281982421875
0.0298095703125
0.11762695312499999
0.3150146484375
0.5349609375
0.758935546875
1.039306640625
1.3873535156249999
1.6459716796875
2.0117431640625
1.85625
1.9456787109375
1.8884765625
1.8175781249999998
0.0298095703125
0.56396484375
0.7283203125
0.7710205078125
1.77568359375
2.384765625
3.0333251953125
3.034130859375
3.034130859375
2.7497314453125
2.383154296875
2.1462890624999997
2.0455810546874997
1.9521240234375
1.796630859375
1.6564453124999998
1.2076904296875
1.268115234375
1.2930908203125
1.2721435546875
1.2947021484374999
3.037353515625
2.8109619140624997
2.4169921875
2.7884033203125
2.1035888671875
0.581689453125
0.0281982421875
0.0314208984375
0.0281982421875
0.133740234375
0.3182373046875
0.5365722656249999
0.7307373046875
1.0658935546875
1.2439453125
1.4751708984374998
1.98837890625
1.864306640625
1.9223144531249998
1.8788085937499999
1.791796875
0.0298095703125
0.17080078124999998
0.6904541015625
0.9434326171874999
1.181103515625
2.3485107421875
3.0349365234374996
3.0365478515624997
3.0349365234374996
2.6901123046874997
2.431494140625
2.1946289062499997
2.047998046875
1.8683349609375
1.8441650390625
1.5218994140625
1.3913818359374999
1.1996337890625
1.329345703125
1.3140380859374998
1.3470703124999999
3.0349365234374996
2.900390625
2.6756103515625
2.5982666015625
2.25263671875
1.1915771484375
0.0322265625
0.026586914062499998
0.02578125
0.0281982421875
0.230419921875
0.46083984375
0.610693359375
1.055419921875
1.0997314453125
1.458251953125
1.7652099609374998
2.0181884765625
1.8844482421875
1.8715576171875
1.82080078125
0.0298095703125
0.0620361328125
0.913623046875
0.768603515625
1.1915771484375
2.0520263671875
3.034130859375
3.0349365234374996
3.0333251953125
2.9116699218749997
2.6901123046874997
2.3501220703125
2.2026855468749997
1.9086181640625
1.883642578125
1.7120361328125
1.4332763671875
1.094091796875
1.3188720703124999
1.2745605468749999
1.2947021484374999
3.037353515625
3.0357421875
2.45888671875
2.5902099609375
1.6806152343749998
1.4091064453125
0.027392578124999997
0.0298095703125
0.0201416015625
0.0281982421875
0.18046874999999998
0.4036376953125
0.5365722656249999
0.9756591796874999
1.0763671875
1.442138671875
1.6773925781249999
2.03671875
1.8199951171875
1.867529296875
1.8119384765625
0.026586914062499998
0.030615234374999998
0.8644775390624999
0.800830078125
1.442138671875
1.9988525390624998
3.034130859375
3.0357421875
3.0357421875
2.8818603515624996
2.6047119140625
2.3162841796875
2.1438720703125
1.877197265625
1.964208984375
1.80791015625
1.4896728515625
1.6475830078125
1.2366943359375
1.2882568359375
1.3083984375
1.819189453125
3.0325195312499997
2.5483154296875
2.479833984375
2.7432861328125
1.345458984375
0.3665771484375
0.0298095703125
0.02900390625
0.02900390625
0.14501953125
0.3343505859375
0.5132080078125
0.775048828125
1.0417236328125
1.3253173828125
1.603271484375
1.6475830078125
1.98515625
1.928759765625
1.8989501953124999
1.3301513671874998
0.030615234374999998
0.6388916015624999
0.7822998046874999
0.5035400390625
1.9593749999999999
2.6256591796874997
3.0357421875
3.0357421875
2.9543701171874996
2.6925292968749996
2.3396484374999997
2.1060058593749997
2.0496093749999997
2.0149658203125
1.8175781249999998
1.5331787109375
1.4244140625
1.2665039062499999
1.3712402343749999
1.3188720703124999
1.5009521484375
3.0349365234374996
2.6748046875
2.6723876953124996
2.8375488281249996
1.7748779296875
0.974853515625
0.0281982421875
0.033032226562499996
0.02900390625
0.04833984375
0.30454101562499997
0.5228759765625
0.7210693359375
1.1061767578125
1.2818115234374998
1.6024658203125
1.740234375
1.9102294921874998
1.8361083984375
1.864306640625
1.6620849609375
0.02900390625
0.37785644531249996
0.7669921875
0.610693359375
1.184326171875
2.5483154296875
3.0349365234374996
3.0349365234374996
3.0357421875
2.7400634765625
2.50400390625
2.2292724609375
2.1390380859375
1.9787109374999998
1.8884765625
1.66611328125
1.3881591796875
1.4880615234374999
1.30517578125
1.2802001953125
1.3043701171875
3.037353515625
2.7078369140625
2.7102539062499997
2.4806396484374997
2.054443359375
1.0223876953125
0.030615234374999998
0.030615234374999998
0.030615234374999998
0.02900390625
0.223974609375
0.4406982421875
0.6268066406249999
1.0127197265624999
1.18916015625
1.5734619140625
1.7281494140625
1.7015624999999999
1.867529296875
1.8973388671875
1.8304687499999999
0.0314208984375
0.2553955078125
0.7404052734375
0.7984130859374999
1.074755859375
2.0262451171875
3.0357421875
3.037353515625
3.037353515625
2.8302978515625
2.5273681640624996
2.204296875
2.1140624999999997
1.9827392578124998
1.899755859375
1.6927001953124998
1.5122314453124999
1.4767822265625
1.3470703124999999
1.351904296875
1.3269287109374999
3.0349365234374996
3.0357421875
2.2824462890625
2.470166015625
1.915869140625
1.3583496093749998
0.2263916015625
0.0322265625
0.027392578124999997
0.030615234374999998
0.26022949218749997
0.501123046875
0.5696044921875
0.9321533203125
1.1367919921875
1.3720458984375
1.7015624999999999
1.9086181640625
1.8925048828125
1.8731689453125
1.79501953125
0.0346435546875
0.0298095703125
0.6018310546875
0.7283203125
1.6435546875
1.9037841796875
3.0325195312499997
3.0357421875
3.034130859375
2.8536621093749996
2.5587890625
2.2921142578125
2.1148681640625
1.98515625
1.93359375
1.7571533203124998
1.445361328125
1.60166015625
1.3825195312499998
1.3285400390625
1.3140380859374998
3.0317138671875
3.0309082031249996
2.3420654296875
2.5918212890624996
2.2107421874999997
1.3253173828125
0.30856933593749997
0.02900390625
0.030615234374999998
0.030615234374999998
0.16274414062499998
0.362548828125
0.526904296875
0.894287109375
1.1045654296875
1.3075927734375
1.6749755859375
1.5202880859374999
1.82080078125
1.8377197265624998
1.8296630859374998
0.22316894531249998
0.0298095703125
0.5478515625
0.736376953125
0.580078125
1.960986328125
2.7336181640625
3.0365478515624997
3.034130859375
2.9849853515625
2.7207275390624996
2.418603515625
2.1946289062499997
2.0987548828125
2.0052978515624997
1.8361083984375
1.5001464843749999
1.3664062499999998
1.29228515625
1.34384765625
1.3019531249999998
1.3019531249999998
3.0357421875
2.650634765625
2.473388671875
2.4298828125
1.4308593749999998
0.7259033203124999
0.0298095703125
0.02900390625
0.02900390625
0.1297119140625
0.3520751953125
0.5808837890624999
0.7460449218749999
1.052197265625
1.2350830078125
1.5654052734375
1.77568359375
1.880419921875
1.861083984375
1.869140625
0.7283203125
0.02900390625
0.485009765625
0.5994140625
0.5349609375
1.4195800781249999
2.2590820312499997
3.0381591796875
3.034130859375
3.0349365234374996
2.7005859374999996
2.4202148437499997
2.173681640625
2.031884765625
1.928759765625
1.864306640625
1.6056884765625
1.4187744140624998
1.6451660156249999
1.3333740234375
1.31162109375
1.3398193359375
3.0357421875
3.0284912109374997
2.5998779296874996
2.4854736328125
2.2792236328124997
0.8467529296874999
0.030615234374999998
0.0298095703125
0.027392578124999997
0.08056640625
0.30937499999999996
0.4954833984375
0.7234863281249999
0.9966064453125
1.1947998046875
1.4284423828125
1.751513671875
1.619384765625
1.8957275390625
1.85302734375
1.8304687499999999
0.0298095703125
0.49790039062499997
0.7194580078124999
0.8531982421875
1.2737548828124998
2.1720703125
3.0325195312499997
3.034130859375
3.0349365234374996
2.8053222656249996
2.5515380859374996
2.183349609375
2.0979492187499997
1.998046875
1.9279541015625
1.7152587890625
1.4316650390624999
1.1537109374999999
1.3607666015625
1.3285400390625
1.3261230468749998
3.0357421875
3.0365478515624997
2.3742919921875
2.5869873046875
2.1954345703125
1.3599609375
0.0314208984375
0.030615234374999998
0.0322265625
0.0281982421875
0.17644042968749998
0.45439453124999996
0.49064941406249996
0.87333984375
1.21171875
1.5090087890625
