1.6298583984375
1.75634765625
1.7764892578125
1.6298583984375
1.7080078125
1.7039794921875
1.6218017578125
0.030615234374999998
0.889453125
1.16337890625
1.335791015625
1.585546875
2.1978515625
3.034130859375
3.0365478515624997
2.6272705078125
2.1704589843749997
1.8538330078124998
1.6330810546874999
1.7007568359374998
1.7289550781249998
1.7007568359374998
1.622607421875
1.4348876953124998
1.574267578125
1.4284423828125
1.4791992187499998
1.5017578125
3.0357421875
2.6933349609375
1.964208984375
1.9110351562499999
1.6588623046875
1.1496826171874999
0.0298095703125
0.0314208984375
0.0314208984375
0.3359619140625
0.8161376953124999
1.116650390625
1.1545166015625
1.4445556640625
1.522705078125
1.609716796875
1.7748779296875
1.6604736328124998
1.7539306640624999
1.7176757812499999
1.6371093749999999
0.030615234374999998
0.3673828125
1.2858398437499998
1.3269287109374999
2.018994140625
2.1035888671875
3.0333251953125
3.0357421875
2.7674560546875
2.2453857421875
1.93681640625
1.7080078125
1.6701416015625
1.6234130859375
1.6491943359374999
1.6306640625
1.5033691406249998
1.5106201171875
1.482421875
1.5082031249999999
1.474365234375
3.0381591796875
3.0357421875
1.9343994140624998
2.070556640625
1.5782958984375
1.15693359375
0.269091796875
0.0322265625
0.02900390625
0.34482421874999997
0.765380859375
1.0304443359375
1.1464599609375
1.3986328124999998
1.490478515625
1.5887695312499999
1.7466796875
1.6000488281249998
1.7394287109375
1.703173828125
1.6765869140624998
0.030615234374999998
0.14018554687499998
1.0852294921874999
1.2963134765625
1.9384277343749998
2.099560546875
2.608740234375
3.0357421875
2.8810546875
2.405712890625
2.0431640625
1.7442626953125
1.7136474609374999
1.7152587890625
1.748291015625
1.6935058593749999
1.4469726562499998
1.3043701171875
1.4268310546874998
1.4622802734375
1.4542236328125
2.6538574218749997
3.0365478515624997
2.2671386718749997
1.9666259765624998
1.8667236328124999
1.3027587890624999
0.8024414062499999
0.02900390625
0.030615234374999998
0.0708984375
0.52529296875
0.98291015625
1.1939941406249999
1.3092041015625
1.506591796875
1.5702392578125
1.7337890624999999
1.513037109375
1.7257324218749999
1.7096191406249999
1.6806152343749998
0.6646728515625
0.0281982421875
0.889453125
1.2302490234374999
1.0868408203125
1.7217041015624999
2.19140625
3.0349365234374996
3.034130859375
2.6208251953125
2.0810302734375
1.828857421875
1.69189453125
1.65
1.6830322265625
1.6669189453125
1.561376953125
1.42119140625
1.5670166015625
1.4381103515625
1.461474609375
1.4638916015624999
3.0357421875
2.3098388671875
2.075390625
1.8957275390625
1.7466796875
0.825
0.0298095703125
0.033837890625
0.09345703124999999
0.55107421875
0.9047607421874999
1.152099609375
1.3059814453124998
1.4518066406249999
1.52109375
1.6765869140624998
1.791796875
1.6322753906249998
1.719287109375
1.7047851562499998
1.635498046875
0.0314208984375
0.87333984375
1.12470703125
1.3470703124999999
1.6056884765625
2.083447265625
3.037353515625
3.0397705078125
2.6304931640625
2.204296875
1.915869140625
1.71123046875
1.6878662109375
1.6443603515624998
1.670947265625
1.5194824218749998
1.4389160156249998
1.5791015625
1.5009521484375
1.493701171875
1.4832275390624998
3.0365478515624997
2.666748046875
1.9223144531249998
1.9182861328124998
1.6951171875
1.174658203125
0.2827880859375
0.02900390625
0.030615234374999998
0.356103515625
0.8346679687499999
1.1093994140624999
1.1448486328125
1.4066894531249998
1.5355957031249998
1.603271484375
1.7652099609374998
1.6894775390624999
1.764404296875
1.7096191406249999
1.638720703125
0.0298095703125
0.2940673828125
1.20849609375
1.2906738281249999
1.9521240234375
2.099560546875
3.0349365234374996
3.037353515625
2.744091796875
2.2614990234375
1.9456787109375
1.75634765625
1.7096191406249999
1.67900390625
1.7362060546875
1.6508056640625
1.4316650390624999
1.477587890625
1.4816162109375
1.4671142578124998
1.44052734375
3.037353515625
3.0357421875
1.9110351562499999
2.02705078125
1.6306640625
1.213330078125
0.02900390625
0.02900390625
0.02900390625
0.29648437499999997
0.710595703125
1.02158203125
1.0884521484375
1.4244140625
1.4622802734375
1.6524169921874998
1.7394287109375
1.619384765625
1.7208984374999998
1.703173828125
1.658056640625
0.0298095703125
0.153076171875
1.1029541015625
1.2431396484375
1.9432617187499999
2.1261474609374997
2.5402587890625
3.037353515625
2.9342285156249996
2.402490234375
2.0649169921875
1.75634765625
1.7088134765624998
1.6862548828125
1.735400390625
1.6653076171874999
1.464697265625
1.35673828125
1.4445556640625
1.4711425781249998
1.4308593749999998
2.608740234375
3.034130859375
2.3162841796875
1.9956298828124999
1.9166748046875
1.164990234375
0.6936767578124999
0.026586914062499998
0.0298095703125
0.15146484375
0.5760498046875
1.0272216796875
1.198828125
1.2898681640624998
1.4679199218749999
1.577490234375
1.6322753906249998
1.5799072265624998
1.8369140625
1.738623046875
1.6830322265625
0.43022460937499996
0.0314208984375
0.9627685546875
1.2697265624999998
1.0973144531249999
1.6701416015625
2.4564697265624997
3.0365478515624997
3.0357421875
2.634521484375
2.093115234375
1.8103271484374999
1.6572509765624999
1.60166015625
1.61455078125
1.625830078125
1.4719482421874999
1.4751708984374998
1.6056884765625
1.4953124999999998
1.5138427734375
1.4735595703125
3.037353515625
2.3074218749999997
2.0923095703125
1.9424560546874998
1.3833251953124999
0.87978515625
0.0298095703125
0.02900390625
0.030615234374999998
0.49064941406249996
0.8161376953124999
1.1883544921875
1.32451171875
1.4284423828125
1.522705078125
1.6290527343749999
1.7740722656249999
1.6282470703124998
1.732177734375
1.6959228515625
1.6169677734374999
0.02900390625
0.8370849609375
1.119873046875
1.3140380859374998
1.5960205078124998
2.1615966796875
3.0349365234374996
3.0389648437499996
2.65546875
2.2679443359375
1.8981445312499998
1.7474853515625
1.7740722656249999
1.722509765625
1.6379150390625
1.545263671875
1.3825195312499998
1.46953125
1.4034667968749999
1.4381103515625
1.4598632812499999
3.037353515625
2.70380859375
1.8941162109374998
1.89169921875
1.6612792968749999
1.213330078125
0.0281982421875
0.030615234374999998
0.02900390625
0.32871093749999997
0.8902587890625
1.142431640625
1.16015625
1.4364990234375
1.5275390624999998
1.6636962890625
1.719287109375
1.6403320312499998
1.7007568359374998
1.6806152343749998
1.6266357421875
0.0281982421875
0.33273925781249997
1.224609375
1.3019531249999998
2.00771484375
2.1342041015624997
3.0397705078125
3.0365478515624997
2.802099609375
2.23974609375
1.972265625
1.719287109375
1.699951171875
1.6822265625
1.7104248046875
1.6024658203125
1.456640625
1.4816162109375
1.4719482421874999
1.448583984375
1.4469726562499998
3.037353515625
2.824658203125
1.92392578125
2.0431640625
1.6201904296874998
1.2463623046874999
0.23203125
0.0298095703125
0.0346435546875
0.32145996093749996
0.7379882812499999
1.074755859375
1.152099609375
1.3978271484375
1.4832275390624998
1.6266357421875
1.7901855468749999
1.6572509765624999
1.754736328125
1.7297607421874999
1.667724609375
0.02900390625
0.201416015625
1.1190673828125
1.3140380859374998
1.9360107421875
2.1535400390625
2.534619140625
3.0365478515624997
2.8464111328125
2.4097412109375
1.9650146484375
1.7595703125
1.6975341796874999
1.6491943359374999
1.699951171875
1.5726562499999999
1.4703369140625
1.606494140625
1.4429443359374998
1.4703369140625
1.4630859374999998
2.6699707031249997
3.0389648437499996
2.328369140625
1.9867675781249998
1.82724609375
1.1778808593749999
0.5212646484375
0.0298095703125
0.030615234374999998
0.136962890625
0.6872314453124999
0.978076171875
1.1698242187499999
1.3591552734374999
1.4832275390624998
1.5863525390625
1.7724609375
1.5283447265624999
1.7442626953125
1.6991455078125
1.654833984375
0.14501953125
0.027392578124999997
1.071533203125
1.30517578125
1.16015625
1.6959228515625
2.5305908203125
3.037353515625
3.0301025390625
2.373486328125
2.0375244140624997
1.82080078125
1.6935058593749999
1.7458740234374999
1.719287109375
1.65966796875
1.53076171875
1.400244140625
1.606494140625
1.4590576171874998
1.4373046875
1.4550292968749998
3.034130859375
2.2792236328124997
2.0504150390625
1.9062011718749998
1.2882568359375
0.8314453125
0.0966796875
0.0298095703125
0.1232666015625
0.543017578125
0.897509765625
1.18271484375
1.2979248046874998
1.5436523437499998
1.5412353515625
1.6975341796874999
1.7619873046874999
1.7442626953125
1.690283203125
1.7080078125
1.63388671875
0.0362548828125
0.8991210937499999
1.1617675781249999
1.17626953125
1.6161621093749998
2.0334960937499997
3.0333251953125
3.0357421875
2.55234375
2.167236328125
1.8506103515624999
1.7007568359374998
1.6749755859375
1.670947265625
1.6612792968749999
1.5331787109375
1.4590576171874998
1.6564453124999998
1.464697265625
1.46630859375
1.4630859374999998
3.037353515625
2.7021972656249997
2.1785156249999997
1.869140625
1.6298583984375
0.8926757812499999
0.02900390625
0.030615234374999998
0.027392578124999997
0.5389892578125
0.8773681640625
1.1432373046875
1.2987304687499999
1.4437499999999999
1.5243164062499999
1.651611328125
1.7587646484375
1.6765869140624998
1.7490966796874998
1.6862548828125
1.6177734375
0.0281982421875
0.7726318359375
1.2302490234374999
1.3083984375
1.9150634765624999
2.0665283203125
3.0349365234374996
3.0357421875
2.6522460937499996
2.2494140625
1.9489013671875
1.6878662109375
1.7200927734375
1.687060546875
1.6822265625
1.5412353515625
1.4630859374999998
1.4703369140625
1.4719482421874999
1.4759765624999999
1.4735595703125
3.0333251953125
2.7771240234374996
1.867529296875
2.0101318359375
1.5106201171875
1.2262207031249999
0.43425292968749996
0.0281982421875
0.02900390625
0.37060546875
0.7557128906249999
1.123095703125
1.1271240234375
1.4332763671875
1.482421875
1.5678222656249998
1.748291015625
1.7772949218749998
1.73056640625
1.6814208984374999
1.6451660156249999
0.030615234374999998
0.2537841796875
1.1512939453125
1.2697265624999998
1.9674316406249999
2.08505859375
3.0325195312499997
3.037353515625
2.8866943359375
2.4049072265625
1.957763671875
1.7523193359375
1.662890625
1.65
1.71123046875
1.6290527343749999
1.4445556640625
1.641943359375
1.432470703125
1.490478515625
1.4679199218749999
2.698974609375
3.0365478515624997
1.9513183593749999
1.9907958984374998
1.82724609375
1.1835205078125
0.45439453124999996
0.02900390625
0.02900390625
0.3150146484375
0.694482421875
1.0094970703125
1.1512939453125
1.3623779296874998
1.5154541015624998
1.5645996093749999
1.7337890624999999
1.542041015625
1.7700439453124999
1.7168701171874998
1.6765869140624998
0.5534912109375
0.0314208984375
0.9901611328125
1.24716796875
1.1303466796875
2.0713623046875
2.40087890625
3.0365478515624997
2.914892578125
2.4177978515625
2.083447265625
1.87236328125
1.6725585937499998
1.6483886718749998
1.6451660156249999
1.6395263671875
1.4872558593749998
1.4542236328125
1.6008544921874999
1.5194824218749998
1.4719482421874999
1.5033691406249998
3.034130859375
2.281640625
2.0657226562499997
2.02705078125
1.368017578125
0.8709228515624999
0.0281982421875
0.033032226562499996
0.072509765625
0.5551025390625
1.0336669921875
1.2350830078125
1.303564453125
1.442138671875
1.5750732421875
1.6000488281249998
1.7716552734375
1.7635986328125
1.6669189453125
1.6822265625
1.213330078125
0.0281982421875
0.8701171875
1.1674072265625
1.135986328125
1.533984375
2.0326904296875
3.0365478515624997
3.0365478515624997
2.6135742187499997
2.0818359374999997
1.8183837890624999
1.65966796875
1.72734375
1.69833984375
1.6894775390624999
1.6056884765625
1.45341796875
1.6089111328124999
1.45341796875
1.4832275390624998
1.474365234375
3.0365478515624997
2.6699707031249997
2.115673828125
1.848193359375
1.651611328125
0.9651855468749999
0.0298095703125
0.0281982421875
0.02900390625
0.491455078125
0.871728515625
1.1561279296875
1.2721435546875
1.4308593749999998
1.4953124999999998
1.6604736328124998
1.716064453125
1.6129394531249999
1.7208984374999998
1.7047851562499998
1.625830078125
0.0281982421875
0.8209716796875
1.2399169921875
1.2785888671874999
1.50498046875
2.0310791015625
3.01318359375
3.0349365234374996
2.6965576171874996
2.28486328125
1.960986328125
1.7168701171874998
1.7378173828124999
1.703173828125
1.6943115234375
1.56943359375
1.4147460937499998
1.4413330078125
1.4598632812499999
1.4864501953125
1.4791992187499998
3.0333251953125
2.8133789062499996
1.867529296875
1.9875732421874999
1.4711425781249998
1.2205810546875
0.2553955078125
0.0298095703125
0.033837890625
0.3359619140625
0.7669921875
1.1609619140625
1.1577392578124999
1.4026611328124998
1.4864501953125
1.5895751953125
1.764404296875
1.8054931640624998
1.740234375
1.719287109375
1.667724609375
0.0314208984375
0.262646484375
1.1190673828125
1.27939453125
1.9247314453125
2.0552490234375
3.034130859375
3.037353515625
2.8536621093749996
2.399267578125
1.9537353515625
1.7571533203124998
1.7104248046875
1.6564453124999998
1.6814208984374999
1.5533203125
1.4590576171874998
1.6371093749999999
1.4501953125
1.4840332031249999
1.464697265625
2.5644287109375
3.037353515625
1.9762939453125
1.9625976562499998
1.8328857421875
1.1738525390624999
0.5647705078124999
0.02900390625
0.026586914062499998
0.3440185546875
0.7218749999999999
1.0207763671874999
1.1609619140625
1.3817138671875
1.506591796875
1.5879638671874998
1.7635986328125
1.533984375
1.7297607421874999
1.6781982421875
1.6604736328124998
0.5905517578125
0.0298095703125
1.0256103515625
1.2431396484375
1.09892578125
2.05927734375
2.5209228515624997
3.0349365234374996
2.9221435546874996
2.4484130859374997
2.1164794921875
1.8280517578125
1.6749755859375
1.6846435546874998
1.6701416015625
1.61455078125
1.4461669921875
1.4300537109375
1.4429443359374998
1.496923828125
1.461474609375
1.48564453125
3.0365478515624997
2.2905029296875
2.0488037109375
2.047998046875
1.368017578125
0.8950927734374999
0.037060546874999996
0.0298095703125
0.10634765624999999
0.56396484375
1.0328613281249999
1.168212890625
1.2673095703125
1.4993408203124998
1.5364013671874999
1.6701416015625
1.6951171875
1.7394287109375
1.6669189453125
1.6862548828125
1.3954101562499999
0.02900390625
0.8282226562499999
1.16337890625
1.1061767578125
1.5283447265624999
2.044775390625
3.0357421875
3.0365478515624997
2.6739990234374997
2.1583740234374997
1.9279541015625
1.732177734375
1.65
1.6862548828125
1.6967285156249998
1.6048828124999999
1.4558349609374999
1.5686279296874999
1.445361328125
1.474365234375
1.4840332031249999
3.0325195312499997
2.3718749999999997
2.1704589843749997
1.8844482421875
1.5887695312499999
0.90234375
0.027392578124999997
0.033032226562499996
0.037060546874999996
0.5615478515625
0.871728515625
1.1367919921875
1.2399169921875
1.4373046875
1.509814453125
1.5887695312499999
1.7499023437499999
1.6886718749999998
1.7531249999999998
1.7120361328125
1.651611328125
0.02900390625
0.7871337890625
1.2302490234374999
1.2906738281249999
1.5283447265624999
1.9956298828124999
3.0349365234374996
3.0357421875
2.647412109375
2.2292724609375
1.973876953125
1.7289550781249998
1.738623046875
1.69189453125
1.6814208984374999
1.4872558593749998
1.4348876953124998
1.49853515625
1.458251953125
1.48564453125
1.4679199218749999
3.0365478515624997
2.8109619140624997
1.9271484374999999
1.9295654296875
1.4268310546874998
1.164990234375
0.58330078125
0.026586914062499998
0.027392578124999997
0.3182373046875
0.8040527343749999
1.1045654296875
1.1456542968749999
1.432470703125
1.5283447265624999
1.5968261718749999
1.7362060546875
1.8006591796875
1.7208984374999998
1.69189453125
1.6765869140624998
0.033032226562499996
0.1941650390625
1.0723388671875
1.264892578125
1.9545410156249998
2.064111328125
2.8375488281249996
3.0365478515624997
2.9592041015625
2.3267578125
1.9988525390624998
1.7668212890625
1.6814208984374999
1.687060546875
1.7507080078125
1.6508056640625
1.4123291015625
1.6008544921874999
1.45341796875
1.4598632812499999
1.4622802734375
2.576513671875
3.0389648437499996
1.98837890625
1.941650390625
1.8626953124999999
1.1851318359375
0.456005859375
0.0281982421875
0.022558593749999998
0.278759765625
0.7146240234375
1.0111083984375
1.1190673828125
1.3591552734374999
1.4912841796874998
1.658056640625
1.716064453125
1.5186767578125
1.722509765625
1.67900390625
1.6612792968749999
0.8910644531249999
0.04833984375
1.01513671875
1.1835205078125
1.796630859375
2.083447265625
2.3887939453125
3.0357421875
3.0309082031249996
2.457275390625
2.1197021484375
1.7821289062499999
1.722509765625
1.6806152343749998
1.7297607421874999
1.683837890625
1.4977294921875
1.47275390625
1.4203857421875
1.480810546875
1.4751708984374998
1.8739746093749998
3.0365478515624997
2.2872802734374997
2.0947265625
2.141455078125
1.3502929687499998
0.8507812499999999
0.030615234374999998
0.0281982421875
0.08701171875
0.5567138671874999
0.9998291015624999
1.1939941406249999
1.27939453125
1.46953125
1.5396240234374998
1.63388671875
1.69189453125
1.7901855468749999
1.7088134765624998
1.6927001953124998
1.22138671875
0.0298095703125
0.8322509765624999
1.190771484375
1.0417236328125
1.6000488281249998
2.0947265625
3.037353515625
3.037353515625
2.6304931640625
2.126953125
1.9110351562499999
1.71123046875
1.6733642578124999
1.6524169921874998
1.6701416015625
1.474365234375
1.4767822265625
1.603271484375
1.4759765624999999
1.4912841796874998
1.4880615234374999
3.037353515625
2.34931640625
2.1825439453124997
1.9142578124999998
1.6459716796875
1.045751953125
0.02900390625
0.02900390625
0.056396484375
0.580078125
0.863671875
1.090869140625
1.2270263671875
1.4364990234375
1.4783935546875
1.6169677734374999
1.7096191406249999
1.65
1.6967285156249998
1.6886718749999998
1.6209960937499999
0.0298095703125
0.7291259765625
1.2020507812499999
1.2616699218749998
1.5347900390625
2.080224609375
2.9455078125
3.034130859375
2.705419921875
2.27841796875
2.002880859375
1.748291015625
1.7499023437499999
1.7257324218749999
1.714453125
1.603271484375
1.4373046875
1.5380126953125
1.445361328125
1.4630859374999998
1.4493896484375
3.0357421875
2.8319091796875
1.9110351562499999
1.996435546875
1.5033691406249998
1.2254150390625
0.23686523437499998
0.026586914062499998
0.0298095703125
0.33273925781249997
0.825
1.090869140625
1.1206787109375
1.3905761718749998
1.4961181640624999
1.58232421875
1.7281494140625
1.8095214843749998
1.7104248046875
1.67578125
1.625830078125
0.0298095703125
0.136962890625
1.02158203125
1.2350830078125
1.9110351562499999
2.1019775390624997
2.8254638671874996
3.037353515625
2.931005859375
2.325146484375
2.0431640625
1.8425537109374999
1.8006591796875
1.6693359374999999
1.7217041015624999
1.622607421875
1.4542236328125
1.6669189453125
1.4107177734374998
1.4598632812499999
1.442138671875
2.32998046875
3.0357421875
2.0254394531249997
1.9907958984374998
1.9271484374999999
1.158544921875
0.5446289062499999
0.0298095703125
0.0322265625
0.2989013671875
0.7702148437499999
1.0030517578125
1.14404296875
1.3551269531249999
1.474365234375
1.5380126953125
1.7289550781249998
1.56298828125
1.7176757812499999
1.670947265625
1.638720703125
0.9305419921875
0.0346435546875
1.003857421875
1.21171875
1.0489746093749999
2.0633056640625
2.4274658203125
3.0349365234374996
2.947119140625
2.4983642578125
2.1003662109375
1.77890625
1.699951171875
1.7072021484375
1.7337890624999999
1.6588623046875
1.4945068359375
1.45341796875
1.4276367187499999
1.4896728515625
1.4574462890625
1.7958251953125
3.0365478515624997
2.289697265625
2.125341796875
2.157568359375
1.4123291015625
0.942626953125
0.02900390625
0.02900390625
0.09748535156249999
0.488232421875
0.9901611328125
1.1939941406249999
1.3349853515624999
1.4920898437499999
1.5243164062499999
1.6830322265625
1.61455078125
1.7410400390624998
1.6411376953124999
1.66611328125
1.5444580078124999
0.0298095703125
0.78310546875
1.1722412109375
1.1593505859375
1.5106201171875
2.3396484374999997
3.0365478515624997
3.0365478515624997
2.715087890625
2.1632080078125
1.8780029296874998
1.7257324218749999
1.7249267578124998
1.7442626953125
1.6935058593749999
1.5404296874999999
1.4066894531249998
1.5235107421874998
1.4501953125
1.5033691406249998
1.5001464843749999
3.0357421875
2.3235351562499997
2.1374267578125
1.912646484375
1.587158203125
1.02802734375
0.027392578124999997
0.0298095703125
0.10151367187499999
0.5260986328125
0.84111328125
1.1577392578124999
1.222998046875
1.4679199218749999
1.5090087890625
1.6169677734374999
1.7257324218749999
1.7039794921875
1.6886718749999998
1.6588623046875
1.6250244140624999
0.02900390625
0.6912597656249999
1.2286376953125
1.248779296875
1.5017578125
1.9730712890625
3.0317138671875
3.0357421875
2.7239501953125
2.3114501953124997
2.0230224609375
1.767626953125
1.738623046875
1.6443603515624998
1.703173828125
1.5863525390625
1.5243164062499999
1.4461669921875
1.4711425781249998
1.4872558593749998
1.4655029296875
3.0365478515624997
2.9028076171875
1.9787109374999998
2.02060546875
1.4518066406249999
1.1593505859375
0.04189453125
0.0322265625
0.030615234374999998
0.3101806640625
0.8362792968749999
1.0803955078125
1.1303466796875
1.409912109375
1.45341796875
1.5678222656249998
1.72412109375
1.799853515625
1.6846435546874998
1.67578125
1.6282470703124998
0.0281982421875
0.14501953125
1.2238037109375
1.255224609375
1.85947265625
2.0625
2.9011962890625
3.0357421875
2.9100585937499996
2.333203125
2.05283203125
1.8111328125
1.77568359375
1.62744140625
1.706396484375
1.69189453125
1.4679199218749999
1.6322753906249998
1.3986328124999998
1.4816162109375
1.4759765624999999
2.2002685546875
3.0027099609374996
2.05927734375
1.9505126953124998
2.02060546875
1.1666015625
0.5929687499999999
0.0298095703125
0.0281982421875
0.2457275390625
0.717041015625
0.9869384765625
1.152099609375
1.3664062499999998
1.43408203125
1.5734619140625
1.7023681640625
1.55009765625
1.667724609375
1.65966796875
1.6685302734374998
1.264892578125
0.02900390625
0.9788818359375
1.1593505859375
1.6298583984375
2.0310791015625
2.3235351562499997
3.0365478515624997
3.0252685546875
2.5410644531249997
2.1535400390625
1.8183837890624999
1.7370117187499998
1.7055908203124999
1.770849609375
1.683837890625
1.5235107421874998
1.5879638671874998
1.4381103515625
1.53076171875
1.5082031249999999
1.674169921875
3.0325195312499997
2.281640625
1.9529296875
2.2244384765625
1.4912841796874998
0.69287109375
0.0322265625
0.02900390625
0.0837890625
0.64453125
0.9635742187499999
1.1851318359375
1.3398193359375
1.4316650390624999
1.5146484375
1.5927978515624999
1.7337890624999999
1.738623046875
1.65966796875
1.6363037109374998
1.5275390624999998
0.027392578124999997
0.978076171875
1.1617675781249999
1.1859374999999999
1.43408203125
2.2760009765625
3.0349365234374996
3.0333251953125
2.5531494140624997
2.193017578125
1.91748046875
1.7047851562499998
1.6959228515625
1.6830322265625
1.7055908203124999
1.5460693359375
1.4920898437499999
1.546875
1.5476806640624998
1.5041748046874999
1.4735595703125
3.0333251953125
2.3710693359375
2.204296875
1.9891845703125
1.6951171875
1.100537109375
0.0298095703125
0.0249755859375
0.0314208984375
0.4954833984375
0.8258056640625
1.14404296875
1.2439453125
1.4501953125
1.4840332031249999
1.5533203125
1.7136474609374999
1.7208984374999998
1.6798095703125
1.6894775390624999
1.6234130859375
0.02900390625
0.704150390625
1.2205810546875
1.2705322265624999
1.477587890625
1.9754882812499999
3.0325195312499997
3.0317138671875
2.7320068359375
2.3485107421875
2.0117431640625
1.7821289062499999
1.7748779296875
1.7168701171874998
1.7611816406249998
1.64677734375
1.47275390625
1.3551269531249999
1.456640625
1.4598632812499999
1.5073974609374998
3.037353515625
2.91328125
1.944873046875
2.028662109375
1.380908203125
1.2431396484375
0.0281982421875
0.02900390625
0.0298095703125
0.42861328125
0.7774658203125
1.0650878906249999
1.1287353515625
1.482421875
1.4147460937499998
1.606494140625
1.6701416015625
1.8095214843749998
1.6717529296875
1.6927001953124998
1.6234130859375
0.0322265625
0.07009277343749999
1.2769775390625
1.21171875
1.7797119140625
2.018994140625
2.6361328124999996
3.0365478515624997
3.027685546875
2.3477050781249997
2.0947265625
1.8216064453124998
1.7579589843749999
1.6443603515624998
1.754736328125
1.73056640625
1.4638916015624999
1.5879638671874998
1.3962158203125
1.48564453125
1.4880615234374999
2.0117431640625
3.0325195312499997
2.102783203125
1.960986328125
2.0778076171874997
1.190771484375
0.6147216796875
0.0298095703125
0.0298095703125
0.269091796875
0.7210693359375
0.9861328125
1.148876953125
1.3237060546875
1.41796875
1.5154541015624998
1.687060546875
1.6491943359374999
1.6781982421875
1.6830322265625
1.651611328125
1.1609619140625
0.0249755859375
1.02158203125
1.1698242187499999
1.525927734375
1.993212890625
2.29453125
3.037353515625
2.9761230468749997
2.5233398437499996
2.160791015625
1.861083984375
1.7474853515625
1.7176757812499999
1.7184814453125
1.6048828124999999
1.5364013671874999
1.4961181640624999
1.448583984375
1.51787109375
1.4920898437499999
1.5509033203125
3.0333251953125
2.36220703125
1.9972412109375
2.2341064453125
1.5992431640625
0.800830078125
0.030615234374999998
0.0298095703125
0.0314208984375
0.6912597656249999
0.936181640625
1.10859375
1.3559326171875
1.4284423828125
1.4953124999999998
1.5412353515625
1.7877685546875
1.7362060546875
1.6822265625
1.651611328125
1.6105224609375
0.02900390625
0.9168457031249999
1.0449462890624999
1.2020507812499999
1.461474609375
2.260693359375
3.0357421875
3.0349365234374996
2.5595947265624996
2.1696533203125
1.9271484374999999
1.7845458984375
1.77890625
1.7926025390625
1.7249267578124998
1.5847412109374999
1.4139404296875
1.4228027343749998
1.43408203125
1.4510009765624998
1.4655029296875
3.037353515625
2.4032958984375
2.2308837890624997
2.031884765625
1.703173828125
1.1319580078125
0.030615234374999998
0.027392578124999997
0.030615234374999998
0.42619628906249996
0.7734375
1.106982421875
1.21171875
1.3962158203125
1.506591796875
1.6395263671875
1.6991455078125
1.638720703125
1.667724609375
1.67900390625
1.6435546875
0.027392578124999997
0.5865234375
1.2101074218749999
1.2560302734375
1.4896728515625
1.972265625
2.715087890625
3.037353515625
2.7658447265625
2.3517333984374997
1.9682373046875
1.7958251953125
1.812744140625
1.7208984374999998
1.7281494140625
1.6250244140624999
1.4896728515625
1.4236083984374999
1.525927734375
1.5235107421874998
1.4687255859375
3.0284912109374997
2.9600097656249997
2.1648193359375
2.0761962890625
1.3962158203125
1.232666015625
0.0797607421875
0.02900390625
0.0314208984375
0.40524902343749997
0.7597412109374999
1.0449462890624999
1.110205078125
1.4308593749999998
1.40830078125
1.545263671875
1.6943115234375
1.8417480468749998
1.6693359374999999
1.64677734375
1.6209960937499999
0.02900390625
0.07814941406249999
1.332568359375
1.2366943359375
1.6951171875
1.8715576171875
3.0365478515624997
3.034130859375
2.760205078125
2.3855712890625
2.1132568359375
1.8755859375
1.799853515625
1.5895751953125
1.7531249999999998
1.6008544921874999
1.5186767578125
1.571044921875
1.4203857421875
1.5106201171875
1.5082031249999999
1.8731689453125
3.0333251953125
2.1922119140625
2.00771484375
1.3833251953124999
1.1859374999999999
0.7097900390624999
0.0298095703125
0.0281982421875
0.1812744140625
0.562353515625
0.990966796875
1.132763671875
1.3672119140624999
1.458251953125
1.56943359375
1.6725585937499998
1.6298583984375
1.6669189453125
1.6459716796875
1.5992431640625
0.0298095703125
0.026586914062499998
0.9160400390625
1.0892578124999999
1.461474609375
1.996435546875
2.3871826171875
3.0365478515624997
3.0357421875
2.5934326171874997
2.147900390625
1.9263427734374998
1.786962890625
1.7684326171875
1.76279296875
1.7128417968749998
1.6435546875
1.3623779296874998
1.3905761718749998
1.47275390625
1.4671142578124998
1.4832275390624998
3.0301025390625
2.3855712890625
2.0359130859375
2.358984375
1.674169921875
0.71865234375
0.024169921875
0.0298095703125
0.0314208984375
0.4761474609375
0.80888671875
1.0868408203125
1.255224609375
1.426025390625
1.5517089843749998
1.6927001953124998
1.8796142578125
1.7217041015624999
1.6773925781249999
1.6371093749999999
1.5984375
0.0298095703125
0.878173828125
0.98291015625
1.1303466796875
1.4034667968749999
2.1978515625
3.0389648437499996
3.0381591796875
2.65546875
2.2832519531249997
1.98837890625
1.7764892578125
1.764404296875
1.7217041015624999
1.7047851562499998
1.5315673828124998
1.5001464843749999
1.4268310546874998
1.461474609375
1.4832275390624998
1.4880615234374999
3.0397705078125
2.4645263671874997
2.2921142578125
2.11728515625
1.880419921875
1.1480712890625
0.02900390625
0.0322265625
0.030615234374999998
0.3665771484375
0.7114013671874999
1.010302734375
1.0691162109374999
1.3656005859375
1.4719482421874999
1.5911865234375
1.754736328125
1.6878662109375
1.7289550781249998
1.6967285156249998
1.6411376953124999
0.024169921875
0.526904296875
1.1706298828125
1.1867431640625
1.480810546875
1.8981445312499998
3.0389648437499996
3.0389648437499996
2.8037109375
2.4355224609375
2.0689453125
1.8328857421875
1.815966796875
1.7458740234374999
1.72734375
1.6588623046875
1.5251220703125
1.332568359375
1.5218994140625
1.4888671875
1.4864501953125
3.0349365234374996
3.0357421875
2.1946289062499997
2.204296875
1.4389160156249998
1.2455566406249998
0.0281982421875
0.033032226562499996
0.0281982421875
0.26425781249999997
0.6018310546875
0.8991210937499999
0.9837158203124999
1.4107177734374998
1.3801025390625
1.5090087890625
1.6733642578124999
1.8522216796875
1.635498046875
1.6773925781249999
1.6806152343749998
0.030615234374999998
0.02900390625
1.12470703125
1.052197265625
1.5686279296874999
1.9875732421874999
2.7046142578124996
3.0365478515624997
3.001904296875
2.5370361328124997
2.2671386718749997
1.993212890625
1.85302734375
1.6862548828125
1.8103271484374999
1.683837890625
1.4896728515625
1.5299560546875
1.3768798828125
1.4477783203124999
1.458251953125
1.7136474609374999
3.0357421875
2.273583984375
2.0455810546874997
1.477587890625
1.287451171875
0.6815917968749999
0.033032226562499996
0.02900390625
0.13212890624999998
0.4632568359375
0.9031494140624999
0.990966796875
1.1964111328125
1.380908203125
1.4953124999999998
1.6540283203125
1.714453125
1.654833984375
1.6846435546874998
1.6564453124999998
0.0298095703125
0.0322265625
0.8846191406249999
0.98291015625
1.2544189453124999
1.9231201171874999
2.2840576171875
3.0381591796875
3.0357421875
2.7207275390624996
2.20751953125
1.9456787109375
1.7845458984375
1.7724609375
1.7990478515625
1.7410400390624998
1.5315673828124998
1.4195800781249999
1.5017578125
1.5702392578125
1.5243164062499999
1.490478515625
3.034130859375
2.4363281249999997
2.0987548828125
2.4145751953125
1.8054931640624998
0.77666015625
0.02900390625
0.02578125
0.030615234374999998
0.443115234375
0.6968994140625
0.9603515625
1.1319580078125
1.297119140625
1.3954101562499999
1.5919921874999998
1.8820312499999998
1.7047851562499998
1.71123046875
1.6951171875
1.6363037109374998
0.026586914062499998
0.78310546875
0.9015380859375
1.1384033203125
1.8248291015625
2.2534423828125
3.0349365234374996
3.0389648437499996
2.7062255859374997
2.4121582031249997
2.0987548828125
1.9029785156249999
1.8860595703124998
1.8232177734375
1.7289550781249998
1.6298583984375
1.458251953125
1.3220947265624998
1.4751708984374998
1.49853515625
1.46953125
3.0381591796875
2.5434814453124996
2.260693359375
2.2494140625
1.8981445312499998
1.2254150390625
0.0298095703125
0.027392578124999997
0.0281982421875
0.24733886718749998
0.5373779296875
0.9160400390625
0.9555175781249999
1.33740234375
1.4284423828125
1.6161621093749998
1.6830322265625
1.6540283203125
1.7297607421874999
1.6854492187499999
1.6564453124999998
0.0281982421875
0.40122070312499997
1.110205078125
1.132763671875
1.5460693359375
1.9924072265625
3.034130859375
3.0357421875
2.9430908203125
2.487890625
2.1068115234375
1.9432617187499999
1.9021728515624998
1.8095214843749998
1.796630859375
1.6910888671875
1.464697265625
1.2697265624999998
1.4687255859375
1.445361328125
1.4751708984374998
3.0365478515624997
3.0357421875
2.222021484375
2.2469970703124997
1.4139404296875
1.2624755859374999
0.030615234374999998
0.027392578124999997
0.026586914062499998
0.28037109374999997
0.5937744140625
0.8725341796874999
0.9595458984374999
1.287451171875
1.3043701171875
1.4590576171874998
1.7080078125
1.877197265625
1.69833984375
1.706396484375
1.667724609375
0.0322265625
0.31743164062499996
1.087646484375
1.05380859375
1.4139404296875
1.893310546875
2.75537109375
3.0357421875
2.9447021484375
2.5732910156249997
2.29775390625
2.0173828124999997
1.8425537109374999
1.67900390625
1.82080078125
1.6403320312499998
1.56298828125
1.5791015625
1.50498046875
1.4373046875
1.445361328125
1.50498046875
3.0317138671875
2.399267578125
2.131787109375
1.5444580078124999
1.2689208984375
0.7863281249999999
0.0322265625
0.040283203125
0.0281982421875
0.46647949218749996
0.8104980468749999
0.9692138671874999
1.1577392578124999
1.3212890625
1.456640625
1.6508056640625
1.7571533203124998
1.6894775390624999
1.71123046875
1.6749755859375
0.030615234374999998
0.0298095703125
0.8258056640625
1.0803955078125
1.2101074218749999
1.8957275390625
2.3742919921875
3.0413818359375
3.0333251953125
2.72958984375
2.33642578125
2.0552490234375
1.9029785156249999
1.8739746093749998
1.8699462890624998
1.7426513671875
1.5944091796875
1.2455566406249998
1.40185546875
1.416357421875
1.4622802734375
1.46630859375
3.0365478515624997
2.5491210937499997
2.118896484375
2.367041015625
1.8626953124999999
0.77666015625
0.02900390625
0.02578125
0.030615234374999998
0.41572265625
0.6751464843749999
0.9208740234374999
1.1287353515625
1.2963134765625
1.4461669921875
1.6209960937499999
1.8264404296874999
1.651611328125
1.6765869140624998
1.7007568359374998
1.6427490234375
0.033032226562499996
0.8129150390625
0.878173828125
1.1295410156249999
1.6508056640625
2.1382324218749997
3.0349365234374996
3.0357421875
2.8061279296875
2.4685546874999997
2.1849609375
1.8884765625
1.8280517578125
1.7958251953125
1.7555419921875
1.6532226562499999
1.480810546875
1.33740234375
1.458251953125
1.4687255859375
1.4445556640625
3.0381591796875
2.615185546875
2.318701171875
2.25263671875
2.0254394531249997
1.187548828125
0.02900390625
0.0298095703125
0.027392578124999997
0.2618408203125
0.526904296875
0.878173828125
0.9402099609375
1.2890625
1.3929931640625
1.5017578125
1.67578125
1.6330810546874999
1.76279296875
1.740234375
1.6991455078125
0.0281982421875
0.3923583984375
1.0852294921874999
1.1400146484375
1.5517089843749998
1.8941162109374998
3.0381591796875
3.034130859375
2.953564453125
2.6095458984374997
2.1599853515625
1.9521240234375
1.9086181640625
1.8377197265624998
1.7974365234374998
1.609716796875
1.5235107421874998
1.3349853515624999
1.545263671875
1.4590576171874998
1.4872558593749998
3.0397705078125
3.0357421875
2.17529296875
2.2824462890625
1.5073974609374998
1.2906738281249999
0.35126953125
0.0281982421875
0.02900390625
0.18288574218749998
0.488232421875
0.8185546874999999
0.9796874999999999
1.229443359375
1.2753662109375
1.4630859374999998
1.6653076171874999
1.835302734375
1.6693359374999999
1.6878662109375
1.64677734375
0.030615234374999998
0.19255371093749998
1.05380859375
1.0489746093749999
1.3422363281249998
1.9198974609375
2.72958984375
3.0365478515624997
3.0317138671875
2.6127685546875
2.328369140625
2.00771484375
1.9279541015625
1.751513671875
1.8175781249999998
1.7233154296875
1.4840332031249999
1.4381103515625
1.480810546875
1.474365234375
1.477587890625
1.50498046875
3.0357421875
2.441162109375
2.1535400390625
1.658056640625
1.2963134765625
0.7315429687499999
0.0298095703125
0.02900390625
0.0298095703125
0.35368652343749996
0.7541015624999999
0.9676025390624999
1.1802978515625
1.2955078125
1.4115234374999999
1.611328125
1.8216064453124998
1.654833984375
1.6862548828125
1.687060546875
0.02900390625
0.02900390625
0.7919677734374999
1.0691162109374999
1.058642578125
1.7418457031249999
2.1470947265625
3.0389648437499996
3.0365478515624997
2.7884033203125
2.3710693359375
2.1140624999999997
1.9053955078125
1.819189453125
1.8296630859374998
1.764404296875
1.5662109375
1.345458984375
1.4767822265625
1.448583984375
1.4703369140625
1.448583984375
3.034130859375
2.5579833984375
2.2236328125
2.3307861328125
1.9440673828125
0.752490234375
0.026586914062499998
0.026586914062499998
0.027392578124999997
0.38913574218749997
0.6775634765624999
0.88623046875
1.0642822265625
1.276171875
1.3978271484375
1.525927734375
1.8409423828125
1.6669189453125
1.699951171875
1.6693359374999999
1.6379150390625
0.030615234374999998
0.758935546875
0.8266113281249999
1.1134277343749999
1.6564453124999998
2.109228515625
3.0333251953125
3.0325195312499997
2.8149902343749997
2.4846679687499997
2.1954345703125
1.9231201171874999
1.880419921875
1.8377197265624998
1.7724609375
1.5645996093749999
1.5138427734375
1.2987304687499999
1.4679199218749999
1.4687255859375
1.458251953125
3.0349365234374996
2.673193359375
2.2953369140624997
2.2212158203125
1.9940185546875
1.2479736328125
0.0298095703125
0.0322265625
0.02900390625
0.20463867187499998
0.5067626953125
0.8515869140625
0.9095947265625
1.33740234375
1.368017578125
1.5460693359375
1.6636962890625
1.5621826171875
1.73056640625
1.6846435546874998
1.65
0.0314208984375
0.278759765625
1.077978515625
1.1013427734374999
1.5758789062499998
1.9166748046875
3.0389648437499996
3.0325195312499997
3.0333251953125
2.6135742187499997
2.2437744140625
2.018994140625
1.9279541015625
1.851416015625
1.8312744140625
1.6814208984374999
1.4711425781249998
1.31162109375
1.4671142578124998
1.4332763671875
1.4800048828124999
3.0317138671875
3.0365478515624997
2.1543457031249997
2.3372314453125
1.4993408203124998
1.348681640625
0.033837890625
0.0298095703125
0.030615234374999998
0.16274414062499998
0.44794921875
0.71865234375
0.8596435546875
1.1996337890625
1.26005859375
1.4308593749999998
1.6685302734374998
1.7893798828124998
1.6846435546874998
1.7200927734375
1.6854492187499999
0.033837890625
0.1409912109375
1.026416015625
1.06669921875
1.2447509765625
1.89169921875
2.5305908203125
3.0365478515624997
3.0325195312499997
2.6739990234374997
2.358984375
2.0649169921875
1.9110351562499999
1.8046875
1.8135498046874998
1.699951171875
1.542041015625
1.5017578125
1.5275390624999998
1.4993408203124998
1.4864501953125
1.4711425781249998
3.0349365234374996
2.4991699218749996
2.1760986328125
1.69189453125
1.2399169921875
0.710595703125
0.0314208984375
0.0281982421875
0.0298095703125
0.410888671875
0.7718261718749999
0.8934814453125
1.09892578125
1.29228515625
1.4364990234375
1.5484863281249999
1.8941162109374998
1.7080078125
1.735400390625
1.7176757812499999
0.02578125
0.0281982421875
0.8000244140624999
1.0578369140625
0.9611572265624999
1.77568359375
2.2051025390625
3.0333251953125
3.037353515625
2.7666503906249997
2.350927734375
2.0874755859375
1.9037841796875
1.8151611328125
1.7901855468749999
1.7313720703125
1.5782958984375
1.3220947265624998
1.4816162109375
1.4501953125
1.4759765624999999
1.432470703125
3.0357421875
2.592626953125
2.2171875
2.389599609375
1.9762939453125
0.8056640625
0.0281982421875
0.030615234374999998
0.030615234374999998
0.3101806640625
0.5969970703124999
0.8604492187499999
1.0530029296874999
1.2576416015624998
1.4397216796874999
1.6524169921874998
1.8022705078124999
1.62744140625
1.7200927734375
1.7039794921875
1.662890625
0.03544921875
0.7097900390624999
0.849169921875
1.029638671875
1.53076171875
2.0745849609375
3.0357421875
3.0381591796875
2.8560791015625
2.5168945312499997
2.2349121093749997
1.9505126953124998
1.9037841796875
1.8578613281249998
1.7772949218749998
1.67578125
1.5243164062499999
1.30517578125
1.458251953125
1.4518066406249999
1.4759765624999999
3.037353515625
2.7086425781249996
2.276806640625
2.2034912109375
2.03671875
1.2955078125
0.0322265625
0.0249755859375
0.0298095703125
0.1998046875
0.580078125
0.8419189453125
0.8322509765624999
1.2592529296875
1.327734375
1.46953125
1.667724609375
1.5766845703124999
1.735400390625
1.6991455078125
1.6822265625
0.023364257812499997
0.298095703125
1.013525390625
1.003857421875
1.5509033203125
1.9102294921874998
3.0365478515624997
3.0333251953125
3.0204345703124997
2.6095458984374997
2.209130859375
1.9779052734375
1.93681640625
1.819189453125
1.7901855468749999
1.6330810546874999
1.5283447265624999
1.3470703124999999
1.506591796875
1.480810546875
1.4759765624999999
3.0357421875
3.0381591796875
2.1543457031249997
2.373486328125
1.5911865234375
1.3212890625
0.343212890625
0.0298095703125
0.0298095703125
0.1409912109375
0.47373046874999997
0.7541015624999999
0.9353759765624999
1.2093017578125
1.29228515625
1.4655029296875
1.6878662109375
1.7660156249999999
1.69833984375
1.6862548828125
1.674169921875
0.030615234374999998
0.11440429687499999
0.990966796875
1.02158203125
1.2012451171875
1.8522216796875
2.6619140624999997
3.0317138671875
3.027685546875
2.657080078125
2.3275634765624997
2.0657226562499997
1.8844482421875
1.8296630859374998
1.8876708984375
1.7611816406249998
1.513037109375
1.30517578125
1.4687255859375
1.4437499999999999
1.4437499999999999
1.4518066406249999
3.037353515625
2.534619140625
2.2026855468749997
1.7660156249999999
1.276171875
0.768603515625
0.0298095703125
0.030615234374999998
0.0298095703125
0.33354492187499996
0.736376953125
0.8693115234375
1.052197265625
1.2866455078124999
1.47275390625
1.641943359375
1.851416015625
1.69189453125
1.7072021484375
1.6967285156249998
0.0281982421875
0.027392578124999997
0.8161376953124999
0.865283203125
0.8838134765625
1.7619873046874999
2.2341064453125
3.0381591796875
3.0357421875
2.80048828125
2.38154296875
2.101171875
1.90458984375
1.9102294921874998
1.8498046874999998
1.7684326171875
1.7104248046875
1.3905761718749998
1.513037109375
1.4550292968749998
1.45341796875
1.42119140625
3.0357421875
2.62646484375
2.270361328125
2.376708984375
1.9859619140625
0.8064697265624999
0.02900390625
0.0281982421875
0.0281982421875
0.34482421874999997
0.58974609375
0.845947265625
0.9958007812499999
1.1939941406249999
1.33740234375
1.5001464843749999
1.7579589843749999
1.641943359375
1.7281494140625
1.6975341796874999
1.6411376953124999
0.030615234374999998
0.7154296874999999
0.8499755859375
1.0965087890625
1.5637939453124998
2.07861328125
3.0301025390625
3.0421875
2.8230468749999997
2.4758056640625
2.205908203125
1.920703125
1.8820312499999998
1.783740234375
1.7772949218749998
1.5847412109374999
1.5146484375
1.3333740234375
1.4518066406249999
1.490478515625
1.5194824218749998
3.0357421875
2.763427734375
2.2598876953125
2.1632080078125
2.0117431640625
1.271337890625
0.1554931640625
0.027392578124999997
0.0322265625
0.2022216796875
0.5712158203125
0.8016357421875
0.9474609374999999
1.3422363281249998
1.38896484375
1.4945068359375
1.6459716796875
1.5364013671874999
1.7176757812499999
1.667724609375
1.6330810546874999
0.026586914062499998
0.149853515625
0.9966064453125
0.9611572265624999
1.5919921874999998
1.8602783203125
3.0349365234374996
3.0325195312499997
3.0357421875
2.7078369140625
2.2937255859375
2.04638671875
2.00771484375
1.9666259765624998
1.8788085937499999
1.7595703125
1.5162597656249999
1.3494873046875
1.4711425781249998
1.4332763671875
1.4356933593749999
3.0357421875
3.0357421875
2.151123046875
2.3178955078125
1.5807128906249999
1.3672119140624999
0.0281982421875
0.0298095703125
0.0298095703125
0.08620605468749999
0.36899414062499997
0.6751464843749999
0.7734375
1.1351806640625
1.2624755859374999
1.5557373046874998
1.6862548828125
1.7700439453124999
1.6951171875
1.6798095703125
1.6379150390625
0.030615234374999998
0.0281982421875
0.945849609375
0.9998291015624999
1.0997314453125
1.996435546875
2.586181640625
3.0365478515624997
3.034130859375
2.6860839843749997
2.367041015625
2.101171875
1.9545410156249998
1.8683349609375
1.8739746093749998
1.7603759765625
1.56943359375
1.3349853515624999
1.4655029296875
1.4332763671875
1.4510009765624998
1.4195800781249999
3.0357421875
2.512060546875
2.2292724609375
1.8328857421875
1.2769775390625
0.7677978515624999
0.033032226562499996
0.0298095703125
0.02900390625
0.3544921875
0.6703125
0.8789794921874999
1.04736328125
1.2963134765625
1.3994384765624999
1.509814453125
1.8884765625
1.7200927734375
1.6927001953124998
1.6927001953124998
0.0298095703125
0.02900390625
0.7412109375
1.0167480468749999
0.8596435546875
1.662890625
2.1744873046874997
3.0325195312499997
3.037353515625
2.8149902343749997
2.418603515625
2.1390380859375
1.93359375
1.8385253906249999
1.8336914062499998
1.799853515625
1.5573486328125
1.4598632812499999
1.593603515625
1.4703369140625
1.5170654296875
1.4945068359375
3.037353515625
2.634521484375
2.2566650390625
2.3259521484375
2.0359130859375
0.8757568359375
0.030615234374999998
0.023364257812499997
0.0281982421875
0.26103515625
0.5728271484374999
0.8258056640625
1.0755615234375
1.2503906249999999
1.3857421875
1.609716796875
1.7152587890625
1.5678222656249998
1.7047851562499998
1.6781982421875
1.6242187499999998
0.033032226562499996
0.69287109375
0.8104980468749999
1.042529296875
1.4719482421874999
2.1374267578125
3.0381591796875
3.0317138671875
2.840771484375
2.578125
2.2969482421875
2.00771484375
1.93359375
1.864306640625
1.786962890625
1.6822265625
1.4687255859375
1.26005859375
1.4308593749999998
1.442138671875
1.4284423828125
3.037353515625
2.8238525390625
2.2582763671875
2.3984619140625
2.0326904296875
1.3229003906249999
0.0298095703125
0.02900390625
0.0322265625
0.15629882812499998
0.4165283203125
0.8354736328125
0.8789794921874999
1.1794921875
1.3462646484374998
1.5791015625
1.6669189453125
1.5573486328125
1.7523193359375
1.69833984375
1.670947265625
0.02900390625
0.146630859375
1.0546142578125
1.0014404296875
1.690283203125
1.9086181640625
3.0317138671875
3.0357421875
3.0357421875
2.6917236328125
2.2405517578125
2.0012695312499997
1.9617919921875
1.85625
1.8046875
1.6798095703125
1.4928955078125
1.3905761718749998
1.4880615234374999
1.4832275390624998
1.4687255859375
3.0325195312499997
3.0389648437499996
2.1535400390625
2.39443359375
1.658056640625
1.3422363281249998
0.35368652343749996
0.0298095703125
0.0314208984375
0.149853515625
0.4954833984375
0.694482421875
0.823388671875
1.1093994140624999
1.2536132812499998
1.3704345703124998
1.6781982421875
1.7466796875
1.7523193359375
1.7450683593749998
1.7015624999999999
0.02900390625
0.0298095703125
0.8910644531249999
0.9877441406249999
1.0997314453125
1.9352050781249999
2.6337158203124997
3.034130859375
3.0349365234374996
2.7086425781249996
2.3839599609374997
2.0778076171874997
1.8925048828125
1.799853515625
1.7934082031249998
1.670947265625
1.5090087890625
1.345458984375
1.5146484375
1.5154541015624998
1.4864501953125
1.4477783203124999
3.0357421875
2.52978515625
2.2107421874999997
1.9585693359374998
1.27939453125
0.7677978515624999
0.0314208984375
0.026586914062499998
0.0298095703125
0.291650390625
0.671923828125
0.8314453125
1.044140625
1.3333740234375
1.4469726562499998
1.6483886718749998
1.8731689453125
1.7265380859375
1.7176757812499999
1.6975341796874999
0.0926513671875
0.0298095703125
0.7412109375
0.9418212890625
0.8185546874999999
1.585546875
2.1519287109375
3.034130859375
3.0349365234374996
2.8512451171874997
2.4500244140625
2.1720703125
1.9859619140625
1.8425537109374999
1.8006591796875
1.7507080078125
1.6330810546874999
1.3994384765624999
1.558154296875
1.4228027343749998
1.448583984375
1.44052734375
3.0381591796875
2.6321044921874996
2.281640625
2.257470703125
2.054443359375
0.8572265625
0.0298095703125
0.0281982421875
0.0322265625
0.33273925781249997
0.580078125
0.8362792968749999
1.0256103515625
1.2028564453125
1.3349853515624999
1.683837890625
1.7329833984374998
1.6008544921874999
1.7531249999999998
1.714453125
1.6483886718749998
0.02578125
0.639697265625
0.8870361328124999
1.0175537109375
1.3881591796875
1.9859619140625
3.037353515625
3.0309082031249996
2.8713867187499997
2.5249511718749997
2.2534423828125
1.93359375
1.8876708984375
1.8731689453125
1.780517578125
1.5807128906249999
1.5525146484374999
1.316455078125
1.482421875
1.4598632812499999
1.45341796875
3.0357421875
2.8133789062499996
2.193017578125
2.1889892578125
2.0149658203125
1.2898681640624998
0.2972900390625
0.02900390625
0.030615234374999998
0.153076171875
0.5389892578125
0.8096923828125
0.839501953125
1.2101074218749999
1.3470703124999999
1.4872558593749998
1.6991455078125
1.6282470703124998
1.7668212890625
1.7080078125
1.6556396484375
0.030615234374999998
0.08701171875
1.0207763671874999
0.9772705078124999
1.6733642578124999
1.9440673828125
3.0309082031249996
3.0357421875
3.021240234375
2.528173828125
2.2453857421875
2.006103515625
1.9247314453125
1.8707519531249999
1.8417480468749998
1.754736328125
1.4816162109375
1.4228027343749998
1.477587890625
1.4276367187499999
1.4236083984374999
3.034130859375
3.0325195312499997
2.0890869140625
2.36865234375
1.7233154296875
1.380908203125
0.1353515625
0.030615234374999998
0.030615234374999998
0.0733154296875
0.40122070312499997
0.6807861328125
0.7782714843749999
1.1448486328125
1.2584472656249999
1.5863525390625
1.6749755859375
1.6564453124999998
1.6886718749999998
1.7015624999999999
1.6636962890625
0.030615234374999998
0.030615234374999998
0.8958984375
0.9708251953125
1.8224121093749999
1.9489013671875
2.6361328124999996
3.037353515625
3.034130859375
2.7344238281249997
2.4041015624999997
2.0625
1.9787109374999998
1.835302734375
1.87236328125
1.7458740234374999
1.509814453125
1.300341796875
1.4413330078125
1.4437499999999999
1.456640625
3.0164062499999997
3.0365478515624997
2.4830566406249996
2.2179931640625
2.05927734375
1.29228515625
0.726708984375
0.02578125
0.0298095703125
0.0298095703125
0.37382812499999996
0.69609375
0.8950927734374999
1.019970703125
1.30517578125
1.4123291015625
1.5645996093749999
1.5170654296875
1.7668212890625
1.74345703125
1.7329833984374998
0.030615234374999998
0.02900390625
0.7420166015624999
1.0046630859374999
0.7822998046874999
1.5243164062499999
2.0439697265625
3.0333251953125
3.0357421875
2.81015625
2.3791259765625
2.1140624999999997
1.9062011718749998
1.7942138671874999
1.8062988281249999
1.7466796875
1.5597656249999998
1.4896728515625
1.6483886718749998
1.4550292968749998
1.4783935546875
1.490478515625
3.0349365234374996
2.4870849609374996
2.350927734375
2.215576171875
2.0044921875
0.9063720703125
0.0298095703125
0.030615234374999998
0.0298095703125
0.31259765624999997
0.59619140625
0.807275390625
1.0167480468749999
1.1939941406249999
1.3599609375
1.5573486328125
1.7233154296875
1.5621826171875
1.7184814453125
1.7039794921875
1.6137451171875
0.0298095703125
0.7154296874999999
0.928125
1.0634765625
1.413134765625
2.031884765625
3.0357421875
3.0357421875
2.8238525390625
2.5048095703124997
2.2236328125
1.9489013671875
1.9537353515625
1.8618896484374998
1.7942138671874999
1.654833984375
1.4671142578124998
1.6177734375
1.416357421875
1.4493896484375
1.4671142578124998
3.0365478515624997
2.8979736328124996
2.151123046875
2.1583740234374997
2.002880859375
1.3510986328124999
0.0322265625
0.0314208984375
0.0298095703125
0.13615722656249998
0.5051513671875
0.768603515625
0.75087890625
1.184326171875
1.3172607421875
1.538818359375
1.654833984375
1.5799072265624998
1.7507080078125
1.7072021484375
1.6451660156249999
0.02900390625
0.049951171875
0.920068359375
0.9877441406249999
1.8014648437499998
1.9916015624999999
3.0333251953125
3.029296875
3.034130859375
2.5797363281249996
2.3009765625
2.012548828125
1.93681640625
1.8602783203125
1.8328857421875
1.7088134765624998
1.4864501953125
1.5428466796875
1.490478515625
1.5146484375
1.4501953125
3.0357421875
3.034130859375
2.1277587890625
2.3074218749999997
1.7660156249999999
1.345458984375
0.37382812499999996
0.0314208984375
0.033032226562499996
0.127294921875
0.45761718749999997
0.7073730468749999
0.816943359375
1.1537109374999999
1.27939453125
1.4687255859375
1.7007568359374998
1.5654052734375
1.7378173828124999
1.7208984374999998
1.6653076171874999
0.02900390625
0.030615234374999998
0.8523925781249999
1.0675048828125
1.7603759765625
1.9545410156249998
2.5773193359374997
3.0365478515624997
3.037353515625
2.6764160156249996
2.3267578125
1.9996582031249999
1.8602783203125
1.8119384765625
1.8506103515624999
1.6765869140624998
1.5525146484374999
1.4510009765624998
1.4928955078125
1.49853515625
1.4638916015624999
2.63291015625
3.034130859375
2.4927246093749997
2.27197265625
2.2051025390625
1.3881591796875
0.8999267578125
0.027392578124999997
0.0298095703125
0.030615234374999998
0.32468261718749997
0.7138183593749999
0.8427246093749999
1.0191650390625
1.284228515625
1.4139404296875
1.5090087890625
1.4268310546874998
1.7345947265625
1.6886718749999998
1.6943115234375
0.6050537109374999
0.0281982421875
0.7097900390624999
1.0223876953125
0.8096923828125
1.55009765625
2.4725830078124997
3.0365478515624997
3.0357421875
2.8593017578124997
2.42666015625
2.1487060546875
1.9682373046875
1.8659179687499998
1.8377197265624998
1.770849609375
1.6048828124999999
1.461474609375
1.635498046875
1.4381103515625
1.4687255859375
1.4598632812499999
3.0389648437499996
2.4846679687499997
2.39765625
2.1978515625
1.4735595703125
0.9289306640624999
0.0281982421875
0.02900390625
0.0298095703125
0.2650634765625
0.5808837890624999
0.8741455078125
1.0288330078124999
1.1931884765625
1.3913818359374999
1.6322753906249998
1.6814208984374999
1.525927734375
1.667724609375
1.7039794921875
1.6435546875
0.0322265625
0.6114990234375
0.8709228515624999
0.9563232421875
1.3285400390625
1.993212890625
3.034130859375
3.0349365234374996
2.900390625
2.6135742187499997
2.2743896484375
1.9601806640625
1.883642578125
1.8884765625
1.8216064453124998
1.6798095703125
1.4832275390624998
1.6056884765625
1.448583984375
1.4655029296875
1.4791992187499998
3.034130859375
2.9559814453124997
2.1382324218749997
2.2365234375
1.9078125
1.3269287109374999
0.02900390625
0.0298095703125
0.033837890625
0.116015625
0.54140625
0.797607421875
0.8741455078125
1.2012451171875
1.3478759765625
1.4832275390624998
1.6991455078125
1.6991455078125
1.7362060546875
1.7136474609374999
1.6564453124999998
0.0298095703125
0.040283203125
0.9329589843749999
1.02802734375
1.770849609375
1.9110351562499999
3.0357421875
3.0365478515624997
3.0365478515624997
2.5563720703125
2.260693359375
2.054443359375
1.9440673828125
1.8465820312499999
1.864306640625
1.7200927734375
1.5218994140625
1.7208984374999998
1.4518066406249999
1.4687255859375
1.464697265625
3.0325195312499997
3.0349365234374996
2.1229248046875
2.321923828125
1.8828369140624999
1.3100097656249998
0.488232421875
0.02900390625
0.026586914062499998
0.08056640625
0.41330566406249997
0.7355712890624999
0.8507812499999999
1.229443359375
1.2914794921875
1.4477783203124999
1.6508056640625
1.448583984375
1.7265380859375
1.69833984375
1.6636962890625
0.045117187499999996
0.0281982421875
0.816943359375
1.0328613281249999
1.8441650390625
2.1132568359375
2.62646484375
3.0389648437499996
3.034130859375
2.6764160156249996
2.38154296875
2.0149658203125
1.896533203125
1.7926025390625
1.8183837890624999
1.7362060546875
1.5517089843749998
1.3865478515624998
1.319677734375
1.43408203125
1.4115234374999999
2.4693603515625
3.0325195312499997
2.466943359375
2.230078125
2.1664306640624997
1.2463623046874999
0.8129150390625
0.02900390625
0.030615234374999998
0.0298095703125
0.2972900390625
0.6670898437499999
0.8773681640625
1.003857421875
1.26328125
1.3929931640625
1.638720703125
1.5299560546875
1.786962890625
1.7394287109375
1.7047851562499998
0.8749511718749999
0.0298095703125
0.726708984375
1.0223876953125
0.7806884765625
1.4655029296875
2.41376953125
3.0389648437499996
3.0349365234374996
2.840771484375
2.4032958984375
2.141455078125
1.9424560546874998
1.7797119140625
1.783740234375
1.738623046875
1.5073974609374998
1.4332763671875
1.6508056640625
1.38896484375
1.4469726562499998
1.4437499999999999
3.0349365234374996
2.466943359375
2.373486328125
2.15595703125
1.6322753906249998
0.920068359375
0.0298095703125
0.0298095703125
0.02900390625
0.3230712890625
0.5953857421875
0.894287109375
1.0223876953125
1.2665039062499999
1.4123291015625
1.545263671875
1.7587646484375
1.611328125
1.7410400390624998
1.706396484375
1.6322753906249998
0.027392578124999997
0.6340576171875
0.9063720703125
1.0127197265624999
1.3253173828125
1.9593749999999999
3.0357421875
3.0349365234374996
2.85205078125
2.505615234375
2.2389404296874997
1.9593749999999999
1.9182861328124998
1.8602783203125
1.77890625
1.606494140625
1.461474609375
1.5758789062499998
1.4791992187499998
1.4638916015624999
1.474365234375
3.0357421875
2.9680664062499997
2.0665283203125
2.1462890624999997
1.7635986328125
1.3470703124999999
0.0281982421875
0.030615234374999998
0.02900390625
0.1393798828125
0.5526855468749999
0.8129150390625
0.8338623046875
1.2858398437499998
1.368017578125
1.5033691406249998
1.7088134765624998
1.7660156249999999
1.7692382812499998
1.7418457031249999
1.674169921875
0.0281982421875
0.0281982421875
0.958740234375
1.0731445312499999
1.8248291015625
2.0052978515624997
2.9463134765624996
3.0365478515624997
3.0365478515624997
2.5467041015625
2.254248046875
2.0197998046875
1.89169921875
1.8038818359375
1.82724609375
1.6959228515625
1.474365234375
1.61455078125
1.3962158203125
1.4195800781249999
1.4219970703125
2.91650390625
3.0349365234374996
2.109228515625
2.180126953125
1.9867675781249998
1.3905761718749998
0.3311279296875
0.0249755859375
0.0281982421875
0.120849609375
0.4487548828125
0.7839111328124999
0.95390625
1.2093017578125
1.329345703125
1.4767822265625
1.7168701171874998
1.5033691406249998
1.796630859375
1.7684326171875
1.732177734375
0.42619628906249996
0.0281982421875
0.8024414062499999
1.029638671875
1.7007568359374998
1.9682373046875
2.4838623046875
3.0357421875
3.0349365234374996
2.6756103515625
2.3581787109375
1.9916015624999999
1.8489990234375
1.7781005859374999
1.8393310546875
1.7345947265625
1.5404296874999999
1.4542236328125
1.4107177734374998
1.5154541015624998
1.5057861328125
2.0987548828125
3.037353515625
2.4339111328125
2.2969482421875
2.2985595703125
1.445361328125
0.8685058593749999
0.02900390625
0.033837890625
0.02900390625
0.388330078125
0.7927734375
0.9466552734375
1.11826171875
1.2802001953125
1.4630859374999998
1.5218994140625
1.7176757812499999
1.7668212890625
1.7015624999999999
1.6806152343749998
1.1931884765625
0.0281982421875
0.7259033203124999
0.887841796875
0.813720703125
1.384130859375
1.9360107421875
3.037353515625
3.0357421875
2.8415771484374996
2.4210205078125
2.13984375
1.8868652343749999
1.8618896484374998
1.8022705078124999
1.7764892578125
1.65
1.4558349609374999
1.574267578125
1.4356933593749999
1.4501953125
1.448583984375
3.0357421875
2.876220703125
2.3646240234375
2.1325927734375
1.91748046875
1.010302734375
0.030615234374999998
0.0314208984375
0.033032226562499996
0.2513671875
0.5422119140625
0.8225830078124999
0.9966064453125
1.2624755859374999
1.3744628906249998
1.5597656249999998
1.7208984374999998
1.6540283203125
1.7724609375
1.7426513671875
1.6443603515624998
0.023364257812499997
0.62197265625
0.9740478515625
1.029638671875
1.8087158203125
2.0214111328124997
3.037353515625
3.034130859375
2.8979736328124996
2.5491210937499997
2.2494140625
2.0085205078125
1.8788085937499999
1.7934082031249998
1.8111328125
1.6798095703125
1.4920898437499999
1.571044921875
1.413134765625
1.4598632812499999
1.42119140625
3.0365478515624997
3.0083496093749997
2.1084228515625
2.3243408203125
1.670947265625
1.303564453125
0.35126953125
0.02900390625
0.02900390625
0.14018554687499998
0.4793701171875
0.8322509765624999
0.9087890624999999
1.174658203125
1.3470703124999999
1.4928955078125
1.7168701171874998
1.5573486328125
1.7329833984374998
1.719287109375
1.6612792968749999
0.03544921875
0.027392578124999997
0.8950927734374999
1.134375
1.883642578125
2.0520263671875
2.59423828125
3.0349365234374996
3.0284912109374997
2.6216308593749997
2.2437744140625
1.9674316406249999
1.8868652343749999
1.7724609375
1.8167724609375
1.6540283203125
1.5436523437499998
1.7442626953125
1.4735595703125
1.5106201171875
1.45341796875
2.663525390625
3.034130859375
2.421826171875
2.1809326171875
2.02060546875
1.2858398437499998
0.5260986328125
0.02900390625
0.0298095703125
0.0314208984375
0.488232421875
0.7210693359375
0.897509765625
1.17626953125
1.3285400390625
1.4461669921875
1.738623046875
1.5645996093749999
1.828857421875
1.7345947265625
1.66611328125
0.6437255859375
0.0314208984375
0.8032470703125
1.071533203125
0.8765624999999999
2.0697509765624997
2.5676513671874996
3.0389648437499996
3.0365478515624997
2.6820556640624997
2.3678466796874997
2.083447265625
1.864306640625
1.80791015625
1.7901855468749999
1.7595703125
1.53720703125
1.461474609375
1.625830078125
1.4791992187499998
1.4469726562499998
1.4469726562499998
3.0349365234374996
2.4210205078125
2.270361328125
2.2502197265625
1.4026611328124998
0.9240966796875
0.02900390625
0.0314208984375
0.027392578124999997
0.378662109375
0.8121093749999999
1.0239990234375
1.1126220703125
1.3067871093749999
1.4550292968749998
1.63388671875
1.6846435546874998
1.7611816406249998
1.670947265625
1.6943115234375
1.4276367187499999
0.02900390625
0.7154296874999999
0.9595458984374999
1.0014404296875
1.4783935546875
2.0689453125
3.0325195312499997
3.0349365234374996
2.7892089843749996
2.3162841796875
1.9996582031249999
1.80791015625
1.7821289062499999
1.7313720703125
1.7329833984374998
1.6008544921874999
1.413134765625
1.5380126953125
1.445361328125
1.48564453125
1.4912841796874998
3.037353515625
2.7900146484375
2.3050048828125
2.0391357421875
1.7450683593749998
0.9240966796875
0.0298095703125
0.02900390625
0.027392578124999997
0.404443359375
0.7138183593749999
0.9853271484374999
1.1375976562499999
1.3414306640625
1.4107177734374998
1.5170654296875
1.7297607421874999
1.7088134765624998
1.7345947265625
1.7499023437499999
1.6636962890625
0.02900390625
0.7073730468749999
1.0739501953125
1.1625732421875
1.85625
1.9666259765624998
3.0357421875
3.0357421875
2.7755126953125
2.360595703125
2.08505859375
1.7982421874999999
1.7934082031249998
1.7313720703125
1.7442626953125
1.5645996093749999
1.4953124999999998
1.6129394531249999
1.5243164062499999
1.490478515625
1.4477783203124999
3.0389648437499996
2.9447021484375
2.0230224609375
2.1696533203125
1.5122314453124999
1.1794921875
0.468896484375
0.0281982421875
0.030615234374999998
0.2263916015625
0.620361328125
1.007080078125
1.036083984375
1.3462646484374998
1.429248046875
1.5734619140625
1.7329833984374998
1.82724609375
1.69833984375
1.7047851562499998
1.6564453124999998
0.0298095703125
0.0733154296875
0.9563232421875
1.1375976562499999
1.9078125
2.0898925781249997
2.8866943359375
3.0357421875
3.0325195312499997
2.5789306640625
2.1454833984375
1.9223144531249998
1.7579589843749999
1.7055908203124999
1.7418457031249999
1.651611328125
1.4469726562499998
1.6371093749999999
1.4437499999999999
1.482421875
1.4526123046875
2.512060546875
3.0349365234374996
2.075390625
2.1060058593749997
2.099560546875
1.222998046875
0.4229736328125
0.0281982421875
0.0298095703125
0.16274414062499998
0.5647705078124999
0.8427246093749999
0.994189453125
1.232666015625
1.3784912109374998
1.46630859375
1.6830322265625
1.5154541015624998
1.74345703125
1.735400390625
1.662890625
0.646142578125
0.0298095703125
0.994189453125
1.0973144531249999
0.93779296875
1.9988525390624998
2.399267578125
3.0349365234374996
3.034130859375
2.5934326171874997
2.270361328125
2.0439697265625
1.8038818359375
1.71123046875
1.71123046875
1.670947265625
1.5299560546875
1.4848388671875
1.409912109375
1.5001464843749999
1.480810546875
1.4791992187499998
3.0349365234374996
2.4169921875
2.2502197265625
2.2953369140624997
1.4477783203124999
0.8685058593749999
0.0322265625
0.02578125
0.02900390625
0.4165283203125
0.813720703125
1.0159423828125
1.134375
1.36962890625
1.4574462890625
1.5863525390625
1.7781005859374999
1.8369140625
1.7249267578124998
1.72734375
1.4437499999999999
0.0298095703125
0.7242919921875
1.0546142578125
0.990966796875
1.4735595703125
2.060888671875
3.0317138671875
3.021240234375
2.745703125
2.2840576171875
1.98193359375
1.7893798828124998
1.7716552734375
1.7370117187499998
1.7217041015624999
1.5251220703125
1.43408203125
1.5565429687499999
1.48564453125
1.4912841796874998
1.4864501953125
3.037353515625
2.8528564453125
2.2647216796875
2.018994140625
1.6886718749999998
1.044140625
0.0298095703125
0.0378662109375
0.0298095703125
0.3311279296875
0.6550048828124999
0.9313476562499999
1.09892578125
1.3792968749999999
1.4558349609374999
1.641943359375
1.7619873046874999
1.754736328125
1.7458740234374999
1.71123046875
1.6524169921874998
0.0281982421875
0.6082763671875
1.1077880859375
1.1625732421875
1.458251953125
2.04638671875
2.9342285156249996
3.0349365234374996
2.802099609375
2.434716796875
2.11728515625
1.8111328125
1.7893798828124998
1.7450683593749998
1.7603759765625
1.6491943359374999
1.46630859375
1.5791015625
1.4719482421874999
1.43408203125
1.4413330078125
3.0357421875
2.979345703125
2.006103515625
2.1019775390624997
1.5009521484375
1.2270263671875
0.307763671875
0.027392578124999997
0.0298095703125
0.2102783203125
0.5857177734375
0.9877441406249999
1.0650878906249999
1.3172607421875
1.3986328124999998
1.545263671875
1.71123046875
1.8393310546875
1.74345703125
1.7055908203124999
1.6701416015625
0.0298095703125
0.045117187499999996
0.9369873046874999
1.1794921875
1.8473876953125
2.1406494140625
2.9801513671874997
3.0397705078125
2.99384765625
2.544287109375
2.0939208984374997
1.867529296875
1.7926025390625
1.670947265625
1.751513671875
1.6403320312499998
1.4638916015624999
1.6701416015625
1.4219970703125
1.4872558593749998
1.474365234375
2.2163818359375
3.0421875
2.12373046875
2.0488037109375
2.1164794921875
1.1947998046875
0.5889404296874999
0.02900390625
0.0314208984375
0.191748046875
0.5849121093749999
0.8725341796874999
1.0465576171875
1.271337890625
1.397021484375
1.4630859374999998
1.71123046875
1.5758789062499998
1.7772949218749998
1.7120361328125
1.6814208984374999
1.0119140625
0.02900390625
0.9289306640624999
1.1150390625
0.9885498046875
2.023828125
2.3952392578125
3.0365478515624997
3.029296875
2.5934326171874997
2.2502197265625
1.9948242187499998
1.8014648437499998
1.7660156249999999
1.7611816406249998
1.703173828125
1.5114257812499998
1.4518066406249999
1.4034667968749999
1.4888671875
1.4598632812499999
1.4437499999999999
3.0349365234374996
2.3436767578124997
2.2083251953125
2.3066162109375
1.4800048828124999
0.978076171875
0.030615234374999998
0.0281982421875
0.02900390625
0.3988037109375
0.8290283203125
1.0771728515624999
1.2181640624999999
1.36962890625
1.4469726562499998
1.6306640625
1.6806152343749998
1.7418457031249999
1.6798095703125
1.6765869140624998
1.5533203125
0.033837890625
0.736376953125
1.100537109375
1.1029541015625
1.4228027343749998
2.0020751953125
3.0349365234374996
3.0381591796875
2.7771240234374996
2.2985595703125
2.0310791015625
1.8248291015625
1.7958251953125
1.7539306640624999
1.732177734375
1.6161621093749998
1.4195800781249999
1.4880615234374999
1.4638916015624999
1.46953125
1.5073974609374998
3.0357421875
2.8125732421875
2.2888916015625
2.0552490234375
1.65966796875
1.055419921875
0.030615234374999998
0.030615234374999998
0.026586914062499998
0.407666015625
0.720263671875
1.029638671875
1.1432373046875
1.3551269531249999
1.43408203125
1.5791015625
1.7450683593749998
1.748291015625
1.7023681640625
1.6943115234375
1.6653076171874999
0.0298095703125
0.6171386718749999
1.155322265625
1.1690185546875
1.4590576171874998
1.9867675781249998
3.0349365234374996
3.037353515625
2.818212890625
2.402490234375
2.075390625
1.791796875
1.8296630859374998
1.72734375
1.7281494140625
1.5444580078124999
1.4791992187499998
1.662890625
1.50498046875
1.4711425781249998
1.4800048828124999
3.034130859375
2.98740234375
2.05927734375
2.135009765625
1.4671142578124998
1.2205810546875
0.5164306640624999
0.02900390625
0.033032226562499996
0.2860107421875
0.6598388671875
0.9740478515625
1.045751953125
1.29228515625
1.3978271484375
1.525927734375
