0.026586914062499998
0.02578125
0.02578125
0.0249755859375
0.024169921875
0.026586914062499998
0.0281982421875
0.026586914062499998
0.27634277343749997
0.1699951171875
0.075732421875
0.0845947265625
0.058813476562499994
0.024169921875
0.027392578124999997
0.02578125
0.023364257812499997
0.02900390625
0.026586914062499998
0.4245849609375
3.0309082031249996
3.0325195312499997
3.0333251953125
3.034130859375
3.0349365234374996
3.0325195312499997
3.0309082031249996
3.0349365234374996
3.0027099609374996
2.8496337890624996
3.0333251953125
2.6594970703125
2.5628173828125
2.4468017578125
3.0333251953125
3.0325195312499997
3.0333251953125
3.037353515625
3.0325195312499997
3.0309082031249996
1.4187744140624998
0.017724609375
0.02578125
0.02578125
0.024169921875
0.026586914062499998
0.02578125
0.026586914062499998
0.026586914062499998
0.024169921875
0.026586914062499998
0.024169921875
0.027392578124999997
0.0346435546875
0.02578125
0.024169921875
0.027392578124999997
0.0298095703125
0.026586914062499998
0.02578125
0.0249755859375
0.0217529296875
3.0317138671875
3.0333251953125
3.034130859375
3.0317138671875
3.034130859375
3.029296875
3.0309082031249996
3.0349365234374996
3.0333251953125
2.8858886718749996
2.6780273437499997
2.6192138671875
2.5982666015625
2.4226318359375
3.0309082031249996
3.034130859375
3.0317138671875
3.0301025390625
3.0333251953125
3.0317138671875
1.2511962890625
0.20302734374999998
0.0298095703125
0.027392578124999997
0.026586914062499998
0.0298095703125
0.0298095703125
0.027392578124999997
0.02578125
0.0281982421875
0.0298095703125
0.18691406249999998
0.149853515625
0.11440429687499999
0.09023437499999999
0.026586914062499998
0.024169921875
0.023364257812499997
0.0249755859375
0.0281982421875
0.02900390625
0.027392578124999997
2.6103515625
3.0333251953125
3.034130859375
3.0301025390625
3.0325195312499997
3.0317138671875
2.9519531249999997
3.0333251953125
3.0091552734375
2.8270751953124997
3.0325195312499997
2.8037109375
2.5338134765625
2.4484130859374997
2.7489257812499996
3.0357421875
3.0325195312499997
3.034130859375
3.034130859375
3.0325195312499997
2.5950439453125
0.7194580078124999
0.027392578124999997
0.024169921875
0.026586914062499998
0.026586914062499998
0.027392578124999997
0.030615234374999998
0.027392578124999997
0.0201416015625
0.026586914062499998
0.026586914062499998
0.049951171875
0.09829101562499999
0.10957031249999999
0.02578125
0.027392578124999997
0.026586914062499998
0.02900390625
0.0281982421875
0.026586914062499998
0.02578125
2.41376953125
3.0317138671875
3.02607421875
3.034130859375
3.0309082031249996
3.0325195312499997
3.0349365234374996
3.0357421875
3.0317138671875
3.0301025390625
2.7819580078125
2.6272705078125
2.582958984375
2.5168945312499997
2.3340087890625
3.0325195312499997
3.0365478515624997
3.034130859375
3.034130859375
3.0309082031249996
3.0309082031249996
1.200439453125
0.023364257812499997
0.041088867187499996
0.030615234374999998
0.027392578124999997
0.027392578124999997
0.02900390625
0.026586914062499998
0.02578125
0.026586914062499998
0.0322265625
0.053173828124999996
0.033837890625
0.10634765624999999
0.02900390625
0.02578125
0.027392578124999997
0.0298095703125
0.027392578124999997
0.027392578124999997
0.0298095703125
0.026586914062499998
3.0357421875
3.0284912109374997
3.0317138671875
3.0357421875
3.0333251953125
3.0325195312499997
3.0317138671875
3.0333251953125
3.0317138671875
2.8254638671874996
3.0365478515624997
2.6917236328125
2.5757080078124996
2.4758056640625
3.0333251953125
3.0325195312499997
3.0325195312499997
3.034130859375
3.0325195312499997
3.0325195312499997
1.01513671875
0.024169921875
0.027392578124999997
0.027392578124999997
0.0249755859375
0.0281982421875
0.0298095703125
0.027392578124999997
0.0281982421875
0.02578125
0.027392578124999997
0.026586914062499998
0.046728515624999994
0.078955078125
0.07009277343749999
0.02900390625
0.023364257812499997
0.027392578124999997
0.026586914062499998
0.026586914062499998
0.026586914062499998
0.0322265625
2.8834716796874997
3.0301025390625
3.0325195312499997
3.0333251953125
3.0301025390625
3.034130859375
3.029296875
3.029296875
2.9608154296875
2.8939453124999996
3.0365478515624997
2.8770263671875
2.6014892578124997
2.4822509765625
3.0309082031249996
3.0309082031249996
3.0317138671875
3.0309082031249996
3.0284912109374997
3.0333251953125
2.5434814453124996
0.15468749999999998
0.02578125
0.02578125
0.026586914062499998
0.02578125
0.024169921875
0.02578125
0.023364257812499997
0.02578125
0.027392578124999997
0.027392578124999997
0.104736328125
0.0910400390625
0.107958984375
0.02578125
0.027392578124999997
0.027392578124999997
0.02900390625
0.026586914062499998
0.0281982421875
0.019335937499999997
2.518505859375
3.0349365234374996
3.0325195312499997
3.0349365234374996
3.0357421875
3.034130859375
3.0325195312499997
3.0301025390625
3.0325195312499997
3.0333251953125
2.6748046875
2.8560791015625
2.67158203125
2.5177001953125
3.0301025390625
3.034130859375
3.0325195312499997
3.0349365234374996
3.0325195312499997
3.0357421875
3.0365478515624997
0.9788818359375
0.02578125
0.026586914062499998
0.027392578124999997
0.030615234374999998
0.027392578124999997
0.0281982421875
0.026586914062499998
0.026586914062499998
0.027392578124999997
0.026586914062499998
0.0314208984375
0.027392578124999997
0.027392578124999997
0.0281982421875
0.02578125
0.026586914062499998
0.02578125
0.0281982421875
0.027392578124999997
0.027392578124999997
1.1859374999999999
3.0317138671875
3.0333251953125
3.034130859375
3.0325195312499997
3.0317138671875
3.034130859375
3.0309082031249996
3.0333251953125
3.0309082031249996
2.8593017578124997
2.9422851562499996
2.6482177734374996
2.53623046875
2.402490234375
3.0309082031249996
3.0325195312499997
3.029296875
3.027685546875
3.0284912109374997
3.027685546875
0.7597412109374999
0.023364257812499997
0.02578125
0.0281982421875
0.024169921875
0.02578125
0.0281982421875
0.0314208984375
0.02900390625
0.027392578124999997
0.026586914062499998
0.018530273437499998
0.0459228515625
0.0620361328125
0.026586914062499998
0.022558593749999998
0.02900390625
0.030615234374999998
0.024169921875
0.0249755859375
0.023364257812499997
0.026586914062499998
2.8834716796874997
3.029296875
3.0349365234374996
3.034130859375
3.0309082031249996
3.0325195312499997
3.034130859375
3.0309082031249996
2.9044189453125
2.85205078125
2.6449951171875
2.67158203125
2.599072265625
2.4822509765625
3.0317138671875
3.0357421875
3.0309082031249996
3.027685546875
3.0317138671875
3.0325195312499997
2.4548583984375
0.0281982421875
0.027392578124999997
0.026586914062499998
0.027392578124999997
0.0281982421875
0.02578125
0.026586914062499998
0.0249755859375
0.026586914062499998
0.026586914062499998
0.0298095703125
0.027392578124999997
0.02900390625
0.0298095703125
0.027392578124999997
0.027392578124999997
0.02578125
0.026586914062499998
0.027392578124999997
0.02900390625
0.024169921875
2.60712890625
3.0357421875
3.0349365234374996
3.034130859375
3.0333251953125
3.0325195312499997
3.0317138671875
3.0309082031249996
3.0333251953125
2.9519531249999997
2.9656494140625
2.80048828125
2.6369384765625
2.487890625
3.0333251953125
3.0309082031249996
3.0325195312499997
3.0301025390625
3.0309082031249996
3.0301025390625
2.367041015625
0.8225830078124999
0.026586914062499998
0.026586914062499998
0.0298095703125
0.0322265625
0.0298095703125
0.026586914062499998
0.027392578124999997
0.02578125
0.02900390625
0.026586914062499998
0.02578125
0.0281982421875
0.04833984375
0.02900390625
0.0298095703125
0.0281982421875
0.02900390625
0.02578125
0.026586914062499998
0.023364257812499997
2.255859375
3.0349365234374996
3.0357421875
3.0309082031249996
3.034130859375
3.0357421875
3.0365478515624997
3.0309082031249996
3.0333251953125
2.892333984375
2.6804443359374996
2.6611083984375
2.6780273437499997
2.5563720703125
2.4016845703125
3.0325195312499997
3.034130859375
3.0333251953125
3.0325195312499997
3.0349365234374996
3.0309082031249996
0.752490234375
0.027392578124999997
0.0281982421875
0.0281982421875
0.024169921875
0.0298095703125
0.030615234374999998
0.027392578124999997
0.026586914062499998
0.023364257812499997
0.0281982421875
0.030615234374999998
0.07412109374999999
0.11923828125
0.0966796875
0.02900390625
0.026586914062499998
0.027392578124999997
0.02900390625
0.027392578124999997
0.0281982421875
0.023364257812499997
3.0333251953125
3.0325195312499997
3.0333251953125
3.0333251953125
3.0317138671875
3.0349365234374996
3.0317138671875
3.037353515625
3.029296875
2.8576904296874996
2.9801513671874997
2.6885009765624996
2.544287109375
2.470166015625
3.0333251953125
3.0349365234374996
3.0317138671875
3.0317138671875
3.0309082031249996
3.0309082031249996
1.2052734375
0.017724609375
0.02578125
0.027392578124999997
0.02900390625
0.0298095703125
0.0281982421875
0.024169921875
0.024169921875
0.0249755859375
0.026586914062499998
0.0298095703125
0.050756835937499994
0.0394775390625
0.0620361328125
0.026586914062499998
0.02578125
0.027392578124999997
0.033032226562499996
0.02578125
0.027392578124999997
0.027392578124999997
2.582958984375
3.029296875
3.0333251953125
3.0284912109374997
3.029296875
3.0325195312499997
3.0317138671875
3.0333251953125
3.0333251953125
2.8955566406249997
2.5265625
2.75537109375
2.5837646484374996
2.4911132812499996
3.0325195312499997
3.0317138671875
3.0284912109374997
3.0333251953125
3.0309082031249996
3.0309082031249996
1.899755859375
0.5615478515625
0.02578125
0.027392578124999997
0.026586914062499998
0.026586914062499998
0.026586914062499998
0.030615234374999998
0.027392578124999997
0.027392578124999997
0.02578125
0.026586914062499998
0.027392578124999997
0.1353515625
0.16435546874999998
0.026586914062499998
0.027392578124999997
0.024169921875
0.026586914062499998
0.026586914062499998
0.027392578124999997
0.0281982421875
2.2888916015625
3.034130859375
3.027685546875
3.0317138671875
3.0325195312499997
3.0317138671875
3.0357421875
3.0325195312499997
3.0325195312499997
2.9761230468749997
2.454052734375
2.5958496093749996
2.6401611328124996
2.5249511718749997
2.360595703125
3.0317138671875
3.0357421875
3.0333251953125
3.034130859375
3.0317138671875
3.0244628906249997
0.845947265625
0.027392578124999997
0.0249755859375
0.0298095703125
0.0298095703125
0.026586914062499998
0.0298095703125
0.027392578124999997
0.02578125
0.027392578124999997
0.37785644531249996
0.02578125
0.09990234375
0.104736328125
0.024169921875
0.02578125
0.027392578124999997
0.023364257812499997
0.026586914062499998
0.026586914062499998
0.026586914062499998
2.333203125
3.0333251953125
3.029296875
3.0357421875
3.034130859375
3.034130859375
3.029296875
3.0325195312499997
3.034130859375
3.0333251953125
2.5757080078124996
2.55234375
2.6441894531249996
2.487890625
2.3525390625
3.0333251953125
3.0333251953125
3.0349365234374996
3.0309082031249996
3.034130859375
3.0325195312499997
1.14404296875
0.026586914062499998
0.026586914062499998
0.026586914062499998
0.02578125
0.023364257812499997
0.02900390625
0.02578125
0.02900390625
0.02578125
0.024169921875
0.0201416015625
0.0298095703125
0.072509765625
0.0322265625
0.02900390625
0.027392578124999997
0.0281982421875
0.019335937499999997
0.02578125
0.022558593749999998
0.0249755859375
2.7529541015624996
3.0349365234374996
3.0357421875
3.0325195312499997
3.0333251953125
3.0317138671875
3.0325195312499997
3.0333251953125
3.034130859375
2.8496337890624996
2.4806396484374997
2.6176025390624997
2.5877929687499996
2.4685546874999997
3.034130859375
3.0317138671875
3.034130859375
3.037353515625
3.0317138671875
3.0333251953125
1.542041015625
0.35690917968749997
0.02900390625
0.0281982421875
0.011279296874999999
0.02900390625
0.02900390625
0.024169921875
0.02900390625
0.02578125
0.026586914062499998
0.18046874999999998
0.064453125
0.08620605468749999
0.08942871093749999
0.024169921875
0.024169921875
0.0298095703125
0.027392578124999997
0.0249755859375
0.0249755859375
0.026586914062499998
2.1865722656249997
3.0357421875
3.0333251953125
3.034130859375
3.0317138671875
3.0333251953125
3.0309082031249996
3.0333251953125
3.0349365234374996
2.9946533203124996
3.0349365234374996
2.776318359375
2.705419921875
2.6208251953125
3.0301025390625
3.0349365234374996
3.034130859375
3.034130859375
3.0309082031249996
3.0325195312499997
2.89716796875
0.4278076171875
0.026586914062499998
0.023364257812499997
0.026586914062499998
0.026586914062499998
0.02578125
0.027392578124999997
0.0281982421875
0.027392578124999997
0.027392578124999997
0.0298095703125
0.057202148437499996
0.1297119140625
0.120849609375
0.0298095703125
0.02578125
0.027392578124999997
0.023364257812499997
0.027392578124999997
0.026586914062499998
0.027392578124999997
2.3017822265625
3.034130859375
3.0325195312499997
3.0325195312499997
3.0365478515624997
3.0309082031249996
3.0309082031249996
3.0325195312499997
3.034130859375
3.0333251953125
2.44921875
2.5088378906249997
2.6562744140624996
2.5193115234374996
2.3742919921875
3.0357421875
3.0325195312499997
3.0325195312499997
3.0333251953125
3.0325195312499997
3.0333251953125
1.0570312499999999
0.0298095703125
0.026586914062499998
0.033032226562499996
0.02578125
0.02900390625
0.0281982421875
0.026586914062499998
0.02900390625
0.026586914062499998
0.42539062499999997
0.027392578124999997
0.027392578124999997
0.10554199218749999
0.075732421875
0.02578125
0.027392578124999997
0.027392578124999997
0.027392578124999997
0.027392578124999997
0.0298095703125
0.02578125
2.8657470703124996
3.0325195312499997
3.0317138671875
3.0309082031249996
3.029296875
3.034130859375
3.0333251953125
3.0317138671875
3.0333251953125
2.83271484375
2.889111328125
2.650634765625
2.5894042968749997
2.4758056640625
3.0349365234374996
3.0333251953125
3.0309082031249996
3.034130859375
3.0349365234374996
3.0309082031249996
1.3510986328124999
0.02578125
0.027392578124999997
0.020947265625
0.026586914062499998
0.027392578124999997
0.027392578124999997
0.0298095703125
0.027392578124999997
0.02900390625
0.0281982421875
0.1893310546875
0.0958740234375
0.09345703124999999
0.08217773437499999
0.026586914062499998
0.027392578124999997
0.026586914062499998
0.0281982421875
0.02900390625
0.023364257812499997
0.027392578124999997
2.719921875
3.0309082031249996
3.0333251953125
3.0325195312499997
3.0325195312499997
3.0301025390625
3.0284912109374997
3.0381591796875
3.029296875
2.931005859375
2.5475097656249996
2.6788330078125
2.5934326171874997
2.4774169921875
3.0333251953125
3.034130859375
3.029296875
3.0317138671875
3.034130859375
3.0333251953125
2.0012695312499997
0.3585205078125
0.0281982421875
0.0281982421875
0.026586914062499998
0.0249755859375
0.023364257812499997
0.026586914062499998
0.0249755859375
0.019335937499999997
0.027392578124999997
0.18852539062499998
0.120849609375
0.0362548828125
0.02900390625
0.024169921875
0.027392578124999997
0.026586914062499998
0.02900390625
0.0281982421875
0.02900390625
0.0249755859375
2.2268554687499997
3.0325195312499997
3.027685546875
3.029296875
3.0357421875
3.0317138671875
3.0317138671875
3.0309082031249996
3.0333251953125
2.7827636718749997
3.0325195312499997
2.631298828125
2.5902099609375
2.4339111328125
2.3372314453125
3.0301025390625
3.0349365234374996
3.0325195312499997
3.0325195312499997
3.0309082031249996
2.7086425781249996
0.9353759765624999
0.027392578124999997
0.02578125
0.02578125
0.02900390625
0.02578125
0.02578125
0.027392578124999997
0.023364257812499997
0.02578125
0.0708984375
0.165966796875
0.10231933593749999
0.09829101562499999
0.0845947265625
0.027392578124999997
0.02578125
0.026586914062499998
0.026586914062499998
0.027392578124999997
0.026586914062499998
0.02900390625
3.0325195312499997
3.037353515625
3.0309082031249996
3.0365478515624997
3.034130859375
3.0325195312499997
3.034130859375
3.0301025390625
2.9438964843749997
2.840771484375
3.0309082031249996
2.6256591796874997
2.6047119140625
2.5716796874999996
3.0333251953125
3.0317138671875
3.0381591796875
3.0333251953125
3.0309082031249996
3.0349365234374996
1.1319580078125
0.026586914062499998
0.026586914062499998
0.0298095703125
0.022558593749999998
0.0249755859375
0.027392578124999997
0.026586914062499998
0.027392578124999997
0.0249755859375
0.030615234374999998
0.18046874999999998
0.1071533203125
0.10231933593749999
0.09345703124999999
0.02900390625
0.026586914062499998
0.027392578124999997
0.02578125
0.027392578124999997
0.02578125
0.033032226562499996
3.034130859375
3.0357421875
3.0349365234374996
3.0349365234374996
3.0357421875
3.0333251953125
3.027685546875
3.0333251953125
3.011572265625
2.8447998046875
2.8593017578124997
2.5934326171874997
2.5958496093749996
2.4443847656249997
3.0349365234374996
3.0301025390625
3.0309082031249996
3.034130859375
3.0333251953125
3.0309082031249996
1.3398193359375
0.17724609375
0.02578125
0.02900390625
0.0281982421875
0.02578125
0.023364257812499997
0.026586914062499998
0.020947265625
0.023364257812499997
0.027392578124999997
0.0281982421875
0.02900390625
0.0708984375
0.08217773437499999
0.027392578124999997
0.02578125
0.02578125
0.019335937499999997
0.026586914062499998
0.02578125
0.02900390625
2.11728515625
3.034130859375
3.0333251953125
3.0333251953125
3.0325195312499997
3.0349365234374996
3.0333251953125
3.0325195312499997
3.0349365234374996
2.8689697265625
3.0309082031249996
2.8294921874999996
2.5595947265624996
2.4306884765625
3.0301025390625
3.0317138671875
3.029296875
3.0325195312499997
3.0325195312499997
3.0317138671875
2.5652343749999997
0.8822021484375
0.0249755859375
0.0281982421875
0.026586914062499998
0.024169921875
0.02578125
0.024169921875
0.0314208984375
0.030615234374999998
0.0281982421875
0.0249755859375
0.0523681640625
0.054785156249999994
0.050756835937499994
0.024169921875
0.024169921875
0.027392578124999997
0.02578125
0.0249755859375
0.024169921875
0.015307617187499999
1.06669921875
3.0333251953125
3.0333251953125
3.0325195312499997
3.0333251953125
3.034130859375
3.0381591796875
3.029296875
3.0333251953125
2.9124755859375
2.8810546875
2.7134765625
2.747314453125
2.5813476562499997
2.410546875
3.0325195312499997
3.0317138671875
3.0357421875
3.0349365234374996
3.0325195312499997
3.0325195312499997
0.65419921875
0.0249755859375
0.027392578124999997
0.026586914062499998
0.02578125
0.027392578124999997
0.027392578124999997
0.027392578124999997
0.0298095703125
0.0249755859375
0.14824218749999998
0.1168212890625
0.0459228515625
0.0765380859375
0.046728515624999994
0.02578125
0.0281982421875
0.026586914062499998
0.024169921875
0.02900390625
0.0281982421875
1.1738525390624999
3.0325195312499997
3.0349365234374996
3.0357421875
3.0349365234374996
3.0333251953125
3.0349365234374996
3.0301025390625
3.0333251953125
3.0325195312499997
2.8254638671874996
3.029296875
2.6482177734374996
2.5209228515624997
2.4298828125
3.034130859375
3.0333251953125
3.0317138671875
3.0333251953125
3.0325195312499997
3.0309082031249996
1.2374999999999998
0.027392578124999997
0.026586914062499998
0.027392578124999997
0.027392578124999997
0.027392578124999997
0.0249755859375
0.02578125
0.02578125
0.0249755859375
0.030615234374999998
0.026586914062499998
0.0298095703125
0.057202148437499996
0.026586914062499998
0.0249755859375
0.02900390625
0.02578125
0.026586914062499998
0.027392578124999997
0.026586914062499998
0.0281982421875
2.5338134765625
3.0333251953125
3.0309082031249996
3.034130859375
3.0349365234374996
3.0333251953125
3.0333251953125
3.0309082031249996
3.0389648437499996
2.8947509765625
2.95517578125
2.647412109375
2.6103515625
2.4282714843749997
3.0317138671875
3.0309082031249996
3.0284912109374997
3.0317138671875
3.037353515625
3.0333251953125
2.260693359375
0.0281982421875
0.024169921875
0.02578125
0.026586914062499998
0.0281982421875
0.02578125
0.026586914062499998
0.027392578124999997
0.026586914062499998
0.026586914062499998
0.026586914062499998
0.104736328125
0.062841796875
0.088623046875
0.026586914062499998
0.0298095703125
0.027392578124999997
0.030615234374999998
0.026586914062499998
0.02900390625
0.02900390625
2.8190185546874997
3.034130859375
3.0349365234374996
3.0317138671875
3.034130859375
3.0333251953125
3.034130859375
3.034130859375
2.9817626953125
2.89716796875
3.0365478515624997
2.8834716796874997
2.6538574218749997
2.5587890625
3.0325195312499997
3.0333251953125
3.0325195312499997
3.0317138671875
3.0333251953125
3.0309082031249996
2.5402587890625
0.6646728515625
0.02900390625
0.0298095703125
0.0281982421875
0.0314208984375
0.02900390625
0.02900390625
0.02578125
0.0217529296875
0.027392578124999997
0.026586914062499998
0.08540039062499999
0.0636474609375
0.078955078125
0.02900390625
0.030615234374999998
0.026586914062499998
0.026586914062499998
0.0281982421875
0.0217529296875
0.02900390625
1.7781005859374999
3.0325195312499997
3.0357421875
3.0325195312499997
3.0325195312499997
3.029296875
3.0365478515624997
3.0309082031249996
3.0333251953125
2.9237548828124997
2.8657470703124996
3.0309082031249996
2.6683593749999996
2.5571777343749997
2.3968505859375
3.0325195312499997
3.0333251953125
3.0317138671875
3.0325195312499997
3.0309082031249996
3.0357421875
1.2890625
0.0281982421875
0.024169921875
0.02900390625
0.0298095703125
0.0249755859375
0.024169921875
0.026586914062499998
0.027392578124999997
0.027392578124999997
0.0201416015625
0.027392578124999997
0.0684814453125
0.072509765625
0.0281982421875
0.027392578124999997
0.024169921875
0.0249755859375
0.0281982421875
0.027392578124999997
0.027392578124999997
0.022558593749999998
2.6885009765624996
3.0301025390625
3.0309082031249996
3.0333251953125
3.0309082031249996
3.0301025390625
3.0325195312499997
3.0301025390625
3.0357421875
2.8528564453125
2.5128662109374997
2.6498291015624997
2.591015625
2.4564697265624997
3.0317138671875
3.0325195312499997
3.0333251953125
3.0333251953125
3.0325195312499997
3.0333251953125
2.2276611328125
0.023364257812499997
0.026586914062499998
0.0249755859375
0.027392578124999997
0.0281982421875
0.023364257812499997
0.02578125
0.02578125
0.02578125
0.026586914062499998
0.023364257812499997
0.111181640625
0.0443115234375
0.0765380859375
0.027392578124999997
0.027392578124999997
0.0169189453125
0.02578125
0.024169921875
0.0281982421875
0.0217529296875
2.5515380859374996
3.0333251953125
3.0333251953125
3.0325195312499997
3.0309082031249996
3.029296875
3.0381591796875
3.0317138671875
3.0325195312499997
3.0156005859375
3.0075439453125
2.8641357421875
2.6611083984375
2.5628173828125
3.0325195312499997
3.0301025390625
3.034130859375
3.0325195312499997
3.0325195312499997
3.0317138671875
2.512060546875
0.5446289062499999
0.026586914062499998
0.027392578124999997
0.0281982421875
0.024169921875
0.027392578124999997
0.02578125
0.026586914062499998
0.0217529296875
0.0201416015625
0.026586914062499998
0.027392578124999997
0.069287109375
0.0958740234375
0.027392578124999997
0.02578125
0.027392578124999997
0.026586914062499998
0.026586914062499998
0.0281982421875
0.024169921875
2.1358154296875
3.0317138671875
3.0365478515624997
3.0309082031249996
3.0333251953125
3.034130859375
3.0333251953125
3.0325195312499997
3.0301025390625
2.972900390625
2.6256591796874997
2.5152832031249996
2.6159912109374996
2.5088378906249997
2.34931640625
3.0317138671875
3.02607421875
3.0284912109374997
3.0301025390625
3.0325195312499997
3.0309082031249996
1.2221923828124999
0.026586914062499998
0.02578125
0.0217529296875
0.0249755859375
0.02578125
0.0281982421875
0.026586914062499998
0.026586914062499998
0.024169921875
0.02900390625
0.03544921875
0.0749267578125
0.09345703124999999
0.07734374999999999
0.024169921875
0.02900390625
0.027392578124999997
0.02900390625
0.026586914062499998
0.026586914062499998
0.02900390625
3.0317138671875
3.0333251953125
3.0244628906249997
3.0333251953125
3.0301025390625
3.0301025390625
3.0325195312499997
3.0325195312499997
3.0317138671875
2.889111328125
2.8077392578125
2.6192138671875
2.5483154296875
2.4226318359375
3.0325195312499997
3.0325195312499997
3.0309082031249996
3.0333251953125
3.0333251953125
3.0325195312499997
0.8225830078124999
0.026586914062499998
0.026586914062499998
0.026586914062499998
0.026586914062499998
0.0281982421875
0.02578125
0.022558593749999998
0.024169921875
0.0104736328125
0.0249755859375
0.026586914062499998
0.09345703124999999
0.11359863281249999
0.095068359375
0.026586914062499998
0.026586914062499998
0.02900390625
0.026586914062499998
0.026586914062499998
0.0249755859375
0.026586914062499998
2.6143798828125
3.0333251953125
3.0365478515624997
3.0317138671875
3.0228515624999996
3.0357421875
3.029296875
3.0357421875
3.0156005859375
2.8423828125
2.50400390625
2.682861328125
2.582958984375
2.4758056640625
3.0349365234374996
3.0357421875
3.0349365234374996
3.0317138671875
3.0309082031249996
3.0357421875
2.3904052734375
0.549462890625
0.0298095703125
0.026586914062499998
0.027392578124999997
0.0298095703125
0.0298095703125
0.027392578124999997
0.026586914062499998
0.026586914062499998
0.026586914062499998
0.0249755859375
0.02578125
0.0845947265625
0.0966796875
0.02900390625
0.02578125
0.027392578124999997
0.026586914062499998
0.027392578124999997
0.02578125
0.024169921875
2.4943359375
3.0309082031249996
3.0325195312499997
3.0333251953125
3.0317138671875
3.0333251953125
3.0333251953125
3.0333251953125
3.0357421875
2.866552734375
2.32998046875
2.68125
2.570068359375
2.4854736328125
2.34287109375
3.0325195312499997
3.029296875
3.0333251953125
3.0309082031249996
3.0317138671875
2.9825683593749996
0.710595703125
0.0281982421875
0.026586914062499998
0.0298095703125
0.027392578124999997
0.02578125
0.0298095703125
0.0281982421875
0.0249755859375
0.026586914062499998
0.47775878906249997
0.026586914062499998
0.078955078125
0.0910400390625
0.027392578124999997
0.027392578124999997
0.024169921875
0.026586914062499998
0.02578125
0.02900390625
0.0249755859375
2.618408203125
3.0389648437499996
3.0333251953125
3.0301025390625
3.0349365234374996
3.0389648437499996
3.0365478515624997
3.0325195312499997
3.034130859375
2.979345703125
2.6337158203124997
2.6256591796874997
2.663525390625
2.5483154296875
2.389599609375
3.0309082031249996
3.0333251953125
3.0317138671875
3.0317138671875
3.0309082031249996
3.0325195312499997
0.8145263671874999
0.02578125
0.02578125
0.027392578124999997
0.026586914062499998
0.027392578124999997
0.027392578124999997
0.026586914062499998
0.023364257812499997
0.027392578124999997
0.08942871093749999
0.027392578124999997
0.10231933593749999
0.103125
0.116015625
0.024169921875
0.0249755859375
0.0298095703125
0.027392578124999997
0.02578125
0.026586914062499998
0.02578125
2.8657470703124996
3.0309082031249996
3.0317138671875
3.034130859375
3.0317138671875
3.034130859375
3.0301025390625
3.0309082031249996
2.8834716796874997
2.8681640625
2.47177734375
2.5966552734375
2.537841796875
2.4226318359375
3.0317138671875
3.0325195312499997
3.029296875
3.0333251953125
3.029296875
3.0325195312499997
1.7861572265624999
0.39799804687499996
0.0249755859375
0.0249755859375
0.022558593749999998
0.026586914062499998
0.024169921875
0.026586914062499998
0.027392578124999997
0.02578125
0.027392578124999997
0.0281982421875
0.026586914062499998
0.037060546874999996
0.069287109375
0.023364257812499997
0.027392578124999997
0.026586914062499998
0.0249755859375
0.027392578124999997
0.02578125
0.027392578124999997
2.5458984375
3.0357421875
3.0309082031249996
3.034130859375
3.034130859375
3.0325195312499997
3.0333251953125
3.0333251953125
3.0333251953125
2.848828125
2.79404296875
2.7481201171875
2.5724853515625
2.51044921875
3.0349365234374996
3.0325195312499997
3.029296875
3.0349365234374996
3.0325195312499997
3.0301025390625
2.6949462890625
0.4648681640625
0.026586914062499998
0.027392578124999997
0.026586914062499998
0.0217529296875
0.02900390625
0.030615234374999998
0.027392578124999997
0.0298095703125
0.026586914062499998
0.0281982421875
0.0378662109375
0.10957031249999999
0.11762695312499999
0.02578125
0.0314208984375
0.030615234374999998
0.02578125
0.0281982421875
0.026586914062499998
0.026586914062499998
2.1599853515625
3.0309082031249996
3.0325195312499997
3.034130859375
3.0301025390625
3.0317138671875
3.0357421875
3.0325195312499997
3.034130859375
2.9277832031249997
2.76181640625
2.5555664062499996
2.6401611328124996
2.4983642578125
2.36220703125
3.0381591796875
3.0365478515624997
3.0317138671875
3.0349365234374996
3.0333251953125
2.8866943359375
0.9224853515625
0.0281982421875
0.02900390625
0.0298095703125
0.024169921875
0.027392578124999997
0.023364257812499997
0.02578125
0.02578125
0.0249755859375
0.631640625
0.146630859375
0.1716064453125
0.1740234375
0.165966796875
0.026586914062499998
0.033032226562499996
0.0249755859375
0.027392578124999997
0.026586914062499998
0.026586914062499998
0.02900390625
2.8294921874999996
3.0357421875
3.0309082031249996
3.0357421875
3.0333251953125
3.0365478515624997
3.0333251953125
3.0349365234374996
3.0333251953125
2.8738037109374996
2.924560546875
2.6337158203124997
2.505615234375
2.4403564453124997
3.027685546875
3.0325195312499997
3.0357421875
3.0309082031249996
3.0333251953125
3.0333251953125
1.2721435546875
0.02900390625
0.024169921875
0.026586914062499998
0.026586914062499998
0.024169921875
0.0298095703125
0.026586914062499998
0.0249755859375
0.02578125
0.02900390625
0.1087646484375
0.02900390625
0.0837890625
0.0604248046875
0.02578125
0.027392578124999997
0.027392578124999997
0.0281982421875
0.02578125
0.024169921875
0.030615234374999998
2.85849609375
3.0325195312499997
3.0317138671875
3.034130859375
3.0333251953125
3.0349365234374996
3.0317138671875
3.034130859375
3.0309082031249996
2.937451171875
2.599072265625
2.6143798828125
2.640966796875
2.4661376953125
3.0357421875
3.0309082031249996
3.0349365234374996
3.0365478515624997
3.0333251953125
3.0309082031249996
1.2769775390625
0.3279052734375
0.027392578124999997
0.0298095703125
0.027392578124999997
0.0298095703125
0.0298095703125
0.027392578124999997
0.0281982421875
0.027392578124999997
0.024169921875
0.24733886718749998
0.1264892578125
0.1353515625
0.127294921875
0.027392578124999997
0.026586914062499998
0.027392578124999997
0.02578125
0.027392578124999997
0.027392578124999997
0.0249755859375
2.1374267578125
3.0333251953125
3.0349365234374996
3.0309082031249996
3.0325195312499997
3.027685546875
3.034130859375
3.0333251953125
3.0325195312499997
2.9108642578125
3.0325195312499997
2.81015625
2.6361328124999996
2.5112548828124996
2.3879882812499997
3.034130859375
3.0325195312499997
3.0309082031249996
3.0349365234374996
3.0309082031249996
2.7336181640625
0.79921875
0.030615234374999998
0.026586914062499998
0.02578125
0.02578125
0.0298095703125
0.0120849609375
0.023364257812499997
0.030615234374999998
0.026586914062499998
0.049951171875
0.17724609375
0.09990234375
0.07734374999999999
0.056396484375
0.02900390625
0.027392578124999997
0.022558593749999998
0.030615234374999998
0.027392578124999997
0.020947265625
0.023364257812499997
3.0349365234374996
3.0325195312499997
3.0325195312499997
3.0325195312499997
3.0325195312499997
3.034130859375
3.0317138671875
3.0325195312499997
3.037353515625
2.8367431640625
2.5313964843749996
2.6014892578124997
2.5571777343749997
2.454052734375
3.0301025390625
3.0325195312499997
3.0317138671875
3.0325195312499997
3.0309082031249996
3.0333251953125
1.0763671875
0.02900390625
0.024169921875
0.027392578124999997
0.026586914062499998
0.030615234374999998
0.026586914062499998
0.02578125
0.02578125
0.02900390625
0.027392578124999997
0.0555908203125
0.0459228515625
0.0708984375
0.043505859375
0.02578125
0.027392578124999997
0.02578125
0.02578125
0.0281982421875
0.026586914062499998
0.02578125
2.921337890625
3.0357421875
3.0333251953125
3.0333251953125
3.0325195312499997
3.037353515625
3.0309082031249996
3.0325195312499997
3.034130859375
2.856884765625
2.7811523437499996
2.663525390625
2.66513671875
2.5394531249999996
3.0325195312499997
3.029296875
3.0309082031249996
3.0325195312499997
3.0357421875
3.0317138671875
1.1375976562499999
0.1716064453125
0.027392578124999997
0.026586914062499998
0.0249755859375
0.023364257812499997
0.027392578124999997
0.027392578124999997
0.0281982421875
0.026586914062499998
0.0249755859375
0.21591796875
0.13857421875
0.1426025390625
0.09990234375
0.027392578124999997
0.027392578124999997
0.030615234374999998
0.027392578124999997
0.0298095703125
0.02900390625
0.026586914062499998
2.5096435546875
3.0333251953125
3.0325195312499997
3.034130859375
3.034130859375
3.0309082031249996
3.0325195312499997
3.0333251953125
2.985791015625
2.9350341796875
3.0333251953125
2.834326171875
2.6014892578124997
2.4725830078124997
2.9559814453124997
3.0325195312499997
3.0357421875
3.034130859375
3.0325195312499997
3.0349365234374996
2.602294921875
0.95068359375
0.027392578124999997
0.020947265625
0.026586914062499998
0.030615234374999998
0.02578125
0.026586914062499998
0.0298095703125
0.027392578124999997
0.023364257812499997
0.0298095703125
0.08217773437499999
0.033032226562499996
0.0555908203125
0.027392578124999997
0.024169921875
0.026586914062499998
0.024169921875
0.026586914062499998
0.026586914062499998
0.023364257812499997
1.2044677734375
3.037353515625
3.0309082031249996
3.0325195312499997
3.0309082031249996
3.0333251953125
3.0309082031249996
3.0349365234374996
3.0325195312499997
3.0349365234374996
2.8705810546875
2.7158935546875
2.673193359375
2.5612060546874997
2.437939453125
3.0325195312499997
3.0325195312499997
3.0357421875
3.029296875
3.0325195312499997
3.0357421875
1.1190673828125
0.027392578124999997
0.0281982421875
0.02900390625
0.026586914062499998
0.026586914062499998
0.027392578124999997
0.027392578124999997
0.027392578124999997
0.024169921875
0.026586914062499998
0.06606445312499999
0.0298095703125
0.0684814453125
0.0281982421875
0.024169921875
0.0281982421875
0.026586914062499998
0.0298095703125
0.027392578124999997
0.02578125
0.0249755859375
3.0317138671875
3.034130859375
3.034130859375
3.0325195312499997
3.0349365234374996
3.0317138671875
3.0317138671875
3.0333251953125
3.0309082031249996
2.88427734375
3.034130859375
2.7086425781249996
2.5628173828125
2.495947265625
3.0325195312499997
3.0325195312499997
3.0309082031249996
3.0317138671875
3.0333251953125
3.034130859375
1.0127197265624999
0.027392578124999997
0.0298095703125
0.023364257812499997
0.024169921875
0.020947265625
0.0281982421875
0.02900390625
0.0249755859375
0.02578125
0.02578125
0.026586914062499998
0.0555908203125
0.08217773437499999
0.0668701171875
0.024169921875
0.027392578124999997
0.027392578124999997
0.02578125
0.02900390625
0.026586914062499998
0.026586914062499998
2.8778320312499996
3.034130859375
3.0333251953125
3.0309082031249996
3.0349365234374996
3.034130859375
3.0333251953125
3.0301025390625
2.969677734375
2.8834716796874997
3.0284912109374997
2.695751953125
2.6562744140624996
2.5418701171875
3.0357421875
3.0333251953125
3.0309082031249996
3.0333251953125
3.0325195312499997
3.034130859375
2.5088378906249997
0.18852539062499998
0.024169921875
0.02578125
0.02578125
0.02578125
0.030615234374999998
0.02900390625
0.027392578124999997
0.027392578124999997
0.026586914062499998
0.07009277343749999
0.0394775390625
0.037060546874999996
0.0749267578125
0.02578125
0.027392578124999997
0.02578125
0.0249755859375
0.024169921875
0.026586914062499998
0.024169921875
2.2357177734375
3.0325195312499997
3.0309082031249996
3.037353515625
3.0309082031249996
3.0325195312499997
3.0325195312499997
3.034130859375
3.0333251953125
3.0301025390625
3.0357421875
2.8335205078124996
2.6337158203124997
2.437939453125
3.0325195312499997
3.034130859375
3.034130859375
3.0349365234374996
3.0333251953125
3.034130859375
2.5587890625
0.9232910156249999
0.026586914062499998
0.0281982421875
0.0281982421875
0.02900390625
0.026586914062499998
0.02900390625
0.026586914062499998
0.02900390625
0.027392578124999997
0.0249755859375
0.0346435546875
0.0765380859375
0.0459228515625
0.026586914062499998
0.023364257812499997
0.026586914062499998
0.027392578124999997
0.0249755859375
0.027392578124999997
0.02578125
0.0281982421875
3.034130859375
3.0309082031249996
3.034130859375
3.0325195312499997
3.034130859375
3.0357421875
3.034130859375
3.034130859375
3.0043212890624997
2.8319091796875
3.0309082031249996
2.6748046875
2.59423828125
2.425048828125
3.0317138671875
3.0309082031249996
3.0309082031249996
3.0325195312499997
3.0325195312499997
3.0325195312499997
0.837890625
0.027392578124999997
0.0281982421875
0.024169921875
0.027392578124999997
0.026586914062499998
0.030615234374999998
0.02578125
0.027392578124999997
0.0281982421875
0.030615234374999998
0.022558593749999998
0.04833984375
0.0926513671875
0.0733154296875
0.027392578124999997
0.0249755859375
0.024169921875
0.026586914062499998
0.026586914062499998
0.024169921875
0.027392578124999997
3.001904296875
3.037353515625
3.034130859375
3.0333251953125
3.0349365234374996
3.0333251953125
3.0357421875
3.0349365234374996
3.034130859375
2.914892578125
3.0381591796875
2.6876953125
2.6143798828125
2.462109375
3.0284912109374997
3.0333251953125
3.0317138671875
3.0333251953125
3.034130859375
3.0317138671875
2.4049072265625
0.0394775390625
0.023364257812499997
0.02578125
0.02578125
0.026586914062499998
0.0201416015625
0.027392578124999997
0.027392578124999997
0.0249755859375
0.0298095703125
0.026586914062499998
0.0298095703125
0.0555908203125
0.06767578125
0.027392578124999997
0.026586914062499998
0.02578125
0.0281982421875
0.022558593749999998
0.0249755859375
0.02578125
2.410546875
3.034130859375
3.0333251953125
3.0333251953125
3.0309082031249996
3.0349365234374996
3.0309082031249996
3.037353515625
3.029296875
2.9495361328125
2.9801513671874997
2.8214355468749996
2.6514404296875
2.544287109375
3.0309082031249996
3.0357421875
3.034130859375
3.0309082031249996
3.034130859375
3.034130859375
2.3694580078125
0.7114013671874999
0.0281982421875
0.0298095703125
0.026586914062499998
0.0281982421875
0.02578125
0.033837890625
0.0298095703125
0.0281982421875
0.02578125
0.02578125
0.02578125
0.02900390625
0.043505859375
0.02900390625
0.026586914062499998
0.0249755859375
0.0322265625
0.027392578124999997
0.02900390625
0.033032226562499996
2.2268554687499997
3.027685546875
3.0325195312499997
3.0325195312499997
3.034130859375
3.034130859375
3.0333251953125
3.034130859375
3.0325195312499997
3.0204345703124997
2.7827636718749997
2.7529541015624996
2.745703125
2.6047119140625
2.4548583984375
3.0325195312499997
3.0357421875
3.0357421875
3.0301025390625
3.0301025390625
3.0325195312499997
0.7565185546875
0.02578125
0.0249755859375
0.023364257812499997
0.024169921875
0.0281982421875
0.02578125
0.024169921875
0.0281982421875
0.027392578124999997
0.019335937499999997
0.042700195312499994
0.04189453125
0.0733154296875
0.061230468749999996
0.026586914062499998
0.026586914062499998
0.027392578124999997
0.024169921875
0.0249755859375
0.0298095703125
0.026586914062499998
3.0164062499999997
3.0317138671875
3.0333251953125
3.0325195312499997
3.0317138671875
3.0333251953125
3.034130859375
3.0333251953125
3.0317138671875
2.8955566406249997
2.9817626953125
2.6578857421874997
2.5491210937499997
2.3952392578125
3.0325195312499997
3.0349365234374996
3.0325195312499997
3.0325195312499997
3.0317138671875
3.029296875
1.3656005859375
0.023364257812499997
0.027392578124999997
0.027392578124999997
0.02578125
0.026586914062499998
0.0249755859375
0.02578125
0.02578125
0.026586914062499998
0.026586914062499998
0.030615234374999998
0.0281982421875
0.056396484375
0.038671874999999994
0.02578125
0.027392578124999997
0.0298095703125
0.027392578124999997
0.026586914062499998
0.02900390625
0.027392578124999997
2.8721923828125
3.0301025390625
3.0317138671875
3.0325195312499997
3.034130859375
3.0333251953125
3.0365478515624997
3.0333251953125
3.0325195312499997
2.9060302734374996
2.7964599609375
2.76181640625
2.6031005859375
2.4596923828125
3.0325195312499997
3.0309082031249996
3.034130859375
3.029296875
3.034130859375
3.0301025390625
2.0745849609375
0.6098876953125
0.026586914062499998
0.027392578124999997
0.02578125
0.027392578124999997
0.026586914062499998
0.027392578124999997
0.0298095703125
0.023364257812499997
0.0298095703125
0.027392578124999997
0.02900390625
0.0555908203125
0.0684814453125
0.0281982421875
0.030615234374999998
0.02900390625
0.027392578124999997
0.026586914062499998
0.0217529296875
0.0249755859375
2.244580078125
3.0333251953125
3.0349365234374996
3.0317138671875
3.0349365234374996
3.0317138671875
3.034130859375
3.0325195312499997
3.029296875
2.99384765625
2.4202148437499997
2.9414794921875
2.7497314453125
2.6272705078125
2.47177734375
3.0325195312499997
3.0309082031249996
3.0301025390625
3.0325195312499997
3.0317138671875
3.029296875
0.6662841796875
0.0249755859375
0.027392578124999997
0.026586914062499998
0.02578125
0.024169921875
0.022558593749999998
0.02578125
0.0314208984375
0.02578125
0.36899414062499997
0.026586914062499998
0.08942871093749999
0.0652587890625
0.027392578124999997
0.0281982421875
0.02578125
0.0281982421875
0.02578125
0.027392578124999997
0.027392578124999997
2.247802734375
3.0301025390625
3.034130859375
3.037353515625
3.0349365234374996
3.034130859375
3.0421875
3.0309082031249996
3.0325195312499997
3.0349365234374996
2.6369384765625
2.5330078124999997
2.6208251953125
2.4693603515625
2.3291748046875
3.0309082031249996
3.0317138671875
3.0301025390625
3.0325195312499997
3.034130859375
3.0284912109374997
1.2262207031249999
0.027392578124999997
0.027392578124999997
0.026586914062499998
0.027392578124999997
0.027392578124999997
0.026586914062499998
0.026586914062499998
0.026586914062499998
0.0249755859375
0.027392578124999997
0.0249755859375
0.0249755859375
0.024169921875
0.02578125
0.02900390625
0.024169921875
0.022558593749999998
0.026586914062499998
0.02578125
0.027392578124999997
0.02900390625
2.8133789062499996
3.0389648437499996
3.029296875
3.0309082031249996
3.0325195312499997
3.034130859375
3.0301025390625
3.0333251953125
3.0333251953125
2.8939453124999996
2.46533203125
2.76181640625
2.5918212890624996
2.4943359375
3.0333251953125
3.0333251953125
3.0333251953125
3.0325195312499997
3.0301025390625
3.0333251953125
1.8973388671875
0.2795654296875
0.02578125
0.026586914062499998
0.027392578124999997
0.02578125
0.0249755859375
0.026586914062499998
0.027392578124999997
0.0298095703125
0.026586914062499998
0.17482910156249998
0.072509765625
0.08942871093749999
0.07412109374999999
0.0281982421875
0.027392578124999997
0.0281982421875
0.026586914062499998
0.030615234374999998
0.02578125
0.027392578124999997
2.8214355468749996
3.0325195312499997
3.0309082031249996
3.0268798828124996
3.0325195312499997
3.0325195312499997
3.0349365234374996
3.0325195312499997
3.0301025390625
2.953564453125
2.5209228515624997
2.7408691406249996
2.6522460937499996
2.566845703125
3.0309082031249996
3.0349365234374996
3.0333251953125
3.0309082031249996
3.0333251953125
3.0325195312499997
2.9221435546874996
0.5687988281249999
0.027392578124999997
0.026586914062499998
0.027392578124999997
0.0298095703125
0.02900390625
0.026586914062499998
0.026586914062499998
0.02578125
0.0281982421875
0.026586914062499998
0.0298095703125
0.0523681640625
0.0475341796875
0.024169921875
0.027392578124999997
0.02578125
0.0281982421875
0.023364257812499997
0.0249755859375
0.0281982421875
2.6159912109374996
3.0325195312499997
3.0365478515624997
3.0333251953125
3.0333251953125
3.0309082031249996
3.0317138671875
3.037353515625
3.0349365234374996
3.0325195312499997
2.4951416015624996
2.5160888671875
2.6482177734374996
2.5144775390625
2.389599609375
3.0309082031249996
3.0301025390625
3.034130859375
3.0317138671875
3.0325195312499997
2.972900390625
1.1110107421875
0.02900390625
0.027392578124999997
0.027392578124999997
0.027392578124999997
0.027392578124999997
0.026586914062499998
0.026586914062499998
0.024169921875
0.02900390625
0.49951171875
0.02900390625
0.04833984375
0.040283203125
0.0620361328125
0.026586914062499998
0.024169921875
0.027392578124999997
0.024169921875
0.02578125
0.020947265625
0.0314208984375
2.98095703125
3.029296875
3.037353515625
3.0325195312499997
3.0317138671875
3.0325195312499997
3.0333251953125
3.0333251953125
3.0317138671875
2.924560546875
2.8786376953125
2.7497314453125
2.6482177734374996
2.5410644531249997
3.0325195312499997
3.0325195312499997
3.0284912109374997
3.034130859375
3.0301025390625
3.0309082031249996
1.6411376953124999
0.026586914062499998
0.0281982421875
0.026586914062499998
0.02900390625
0.0298095703125
0.0249755859375
0.0249755859375
0.027392578124999997
0.027392578124999997
0.027392578124999997
0.21269531249999998
0.062841796875
0.0926513671875
0.09990234375
0.022558593749999998
0.033837890625
0.02578125
0.027392578124999997
0.0281982421875
0.02578125
0.02578125
2.7577880859375
3.0333251953125
3.029296875
3.0349365234374996
3.029296875
3.034130859375
3.0333251953125
3.0325195312499997
3.0325195312499997
2.89716796875
2.502392578125
2.6232421875
2.5894042968749997
2.5064208984375
3.034130859375
3.034130859375
3.0317138671875
3.0284912109374997
3.0325195312499997
3.034130859375
1.85625
0.43344726562499997
0.026586914062499998
0.02578125
0.026586914062499998
0.027392578124999997
0.026586914062499998
0.0281982421875
0.027392578124999997
0.024169921875
0.02578125
0.07009277343749999
0.026586914062499998
0.0281982421875
0.027392578124999997
0.0281982421875
0.026586914062499998
0.02578125
0.027392578124999997
0.0281982421875
0.0249755859375
0.026586914062499998
2.3146728515625
3.0325195312499997
3.0301025390625
3.0325195312499997
3.0397705078125
3.034130859375
3.0349365234374996
3.0309082031249996
3.0309082031249996
2.8294921874999996
3.0357421875
2.666748046875
2.544287109375
2.45888671875
2.3549560546875
3.0357421875
3.0357421875
3.0317138671875
3.0301025390625
3.034130859375
2.8431884765624997
0.9901611328125
0.02900390625
0.02578125
0.026586914062499998
0.0249755859375
0.02578125
0.023364257812499997
0.026586914062499998
0.024169921875
0.027392578124999997
0.0797607421875
0.1329345703125
0.0580078125
0.027392578124999997
0.0298095703125
0.020947265625
0.026586914062499998
0.0249755859375
0.0314208984375
0.02578125
0.024169921875
0.030615234374999998
3.0333251953125
3.0333251953125
3.0333251953125
3.0357421875
3.034130859375
3.034130859375
3.0333251953125
3.0381591796875
2.963232421875
2.8593017578124997
2.56845703125
2.6627197265625
2.5877929687499996
2.463720703125
3.0317138671875
3.0365478515624997
3.0284912109374997
3.0309082031249996
3.0317138671875
3.0317138671875
1.2745605468749999
0.027392578124999997
0.026586914062499998
0.026586914062499998
0.02578125
0.027392578124999997
0.023364257812499997
0.0217529296875
0.026586914062499998
0.02578125
0.027392578124999997
0.07412109374999999
0.0378662109375
0.0580078125
0.0281982421875
0.0281982421875
0.02578125
0.024169921875
0.027392578124999997
0.0298095703125
0.027392578124999997
0.026586914062499998
3.0309082031249996
3.0333251953125
3.0365478515624997
3.0301025390625
3.0325195312499997
3.0317138671875
3.0317138671875
3.0309082031249996
3.0357421875
2.8786376953125
2.94873046875
2.6562744140624996
2.618408203125
2.4532470703125
3.0357421875
3.0317138671875
3.0301025390625
3.0301025390625
3.0309082031249996
3.0333251953125
1.3253173828125
0.275537109375
0.026586914062499998
0.026586914062499998
0.027392578124999997
0.0281982421875
0.027392578124999997
0.0281982421875
0.027392578124999997
0.0298095703125
0.026586914062499998
0.0394775390625
0.033837890625
0.027392578124999997
0.024169921875
0.0249755859375
0.0314208984375
0.026586914062499998
0.027392578124999997
0.02900390625
0.026586914062499998
0.027392578124999997
2.21396484375
3.034130859375
3.0317138671875
3.0325195312499997
3.0325195312499997
3.027685546875
3.034130859375
3.0349365234374996
3.0309082031249996
2.9342285156249996
3.0357421875
2.8560791015625
2.6337158203124997
2.486279296875
2.856884765625
3.027685546875
3.0333251953125
3.0309082031249996
3.0325195312499997
3.0357421875
2.093115234375
0.990966796875
0.026586914062499998
0.02578125
0.027392578124999997
0.026586914062499998
0.024169921875
0.02578125
0.027392578124999997
0.027392578124999997
0.02578125
0.02900390625
0.0298095703125
0.0281982421875
0.03544921875
0.0298095703125
0.024169921875
0.02578125
0.022558593749999998
0.0281982421875
0.02578125
0.02578125
2.7497314453125
3.034130859375
3.0325195312499997
3.0309082031249996
3.0309082031249996
3.0309082031249996
3.034130859375
3.0325195312499997
3.0301025390625
2.9342285156249996
2.8270751953124997
2.6788330078125
2.5724853515625
2.5193115234374996
2.3138671875
3.0317138671875
3.0333251953125
3.034130859375
3.0317138671875
3.0301025390625
3.0317138671875
0.7557128906249999
0.027392578124999997
0.026586914062499998
0.027392578124999997
0.0281982421875
0.0298095703125
0.02900390625
0.0249755859375
0.027392578124999997
0.0249755859375
0.0523681640625
0.17080078124999998
0.0733154296875
0.09426269531249999
0.030615234374999998
0.0281982421875
0.027392578124999997
0.02900390625
0.02578125
0.027392578124999997
0.0298095703125
1.5605712890624999
3.0317138671875
3.0325195312499997
3.0301025390625
3.0333251953125
3.034130859375
3.0325195312499997
3.0325195312499997
3.034130859375
3.0317138671875
2.840771484375
3.0309082031249996
2.640966796875
2.54267578125
2.408935546875
3.0317138671875
3.0325195312499997
3.034130859375
3.0333251953125
3.0357421875
3.0333251953125
1.3921875
0.0717041015625
0.026586914062499998
0.02900390625
0.027392578124999997
0.0298095703125
0.024169921875
0.026586914062499998
0.02578125
0.02578125
0.024169921875
0.024169921875
0.0281982421875
0.030615234374999998
0.024169921875
0.0281982421875
0.02578125
0.0249755859375
0.026586914062499998
0.026586914062499998
0.023364257812499997
0.02578125
2.6458007812499997
3.0333251953125
3.0325195312499997
3.0317138671875
3.0333251953125
3.0325195312499997
3.0325195312499997
3.0325195312499997
3.0309082031249996
2.8931396484375
2.9479248046874997
2.6417724609374997
2.62646484375
2.4774169921875
3.0325195312499997
3.0325195312499997
3.0333251953125
3.0333251953125
3.0317138671875
3.0325195312499997
2.4661376953125
0.141796875
0.0249755859375
0.026586914062499998
0.026586914062499998
0.026586914062499998
0.026586914062499998
0.026586914062499998
0.026586914062499998
0.02578125
0.027392578124999997
0.0298095703125
0.078955078125
0.04833984375
0.059619140625
0.0249755859375
0.0281982421875
0.027392578124999997
0.026586914062499998
0.026586914062499998
0.026586914062499998
0.027392578124999997
2.3646240234375
3.0309082031249996
3.0325195312499997
3.0349365234374996
3.029296875
3.0284912109374997
3.0349365234374996
3.0333251953125
3.0333251953125
2.9720947265624997
2.874609375
2.824658203125
2.6780273437499997
2.586181640625
2.89716796875
3.0309082031249996
3.0317138671875
3.0317138671875
3.0325195312499997
3.034130859375
3.0333251953125
0.7114013671874999
0.026586914062499998
0.026586914062499998
0.026586914062499998
0.026586914062499998
0.027392578124999997
0.027392578124999997
0.0281982421875
0.02578125
0.02578125
0.02578125
0.049951171875
0.030615234374999998
0.024169921875
0.0281982421875
0.0249755859375
0.026586914062499998
0.027392578124999997
0.026586914062499998
0.027392578124999997
0.0281982421875
0.027392578124999997
3.0325195312499997
3.0325195312499997
3.0301025390625
3.0309082031249996
3.0325195312499997
3.0325195312499997
3.0333251953125
3.0333251953125
3.034130859375
2.7690673828124996
2.9358398437499997
2.5692626953124997
2.418603515625
2.325146484375
3.0325195312499997
3.0333251953125
3.0325195312499997
3.0325195312499997
3.0357421875
3.0325195312499997
1.3390136718749999
0.027392578124999997
0.027392578124999997
0.026586914062499998
0.026586914062499998
0.02578125
0.0281982421875
0.027392578124999997
0.02578125
0.027392578124999997
0.02578125
0.0314208984375
0.0298095703125
0.08137207031249999
0.038671874999999994
0.026586914062499998
0.027392578124999997
0.0298095703125
0.0249755859375
0.02900390625
0.027392578124999997
0.027392578124999997
2.66513671875
3.034130859375
3.0309082031249996
3.0301025390625
3.034130859375
3.0333251953125
3.0325195312499997
3.034130859375
3.0301025390625
2.8576904296874996
2.6498291015624997
2.6756103515625
2.5885986328125
2.4339111328125
3.029296875
3.0301025390625
3.0333251953125
3.0317138671875
3.0301025390625
3.0325195312499997
2.4041015624999997
0.045117187499999996
0.02578125
0.02578125
0.02900390625
0.02900390625
0.0281982421875
0.0298095703125
0.02578125
0.027392578124999997
0.026586914062499998
0.026586914062499998
0.1264892578125
0.103125
0.11923828125
0.0281982421875
0.02578125
0.027392578124999997
0.02578125
0.027392578124999997
0.026586914062499998
0.02578125
3.0236572265625
3.0301025390625
3.0317138671875
3.034130859375
3.029296875
3.0325195312499997
3.0325195312499997
3.0333251953125
3.0301025390625
2.9608154296875
2.9922363281249997
2.8286865234375
2.65546875
2.4943359375
3.0284912109374997
3.0325195312499997
3.0301025390625
3.0357421875
3.034130859375
3.0325195312499997
2.5555664062499996
0.6292236328124999
0.026586914062499998
0.0281982421875
0.0281982421875
0.0249755859375
0.027392578124999997
0.0201416015625
0.027392578124999997
0.027392578124999997
0.024169921875
0.026586914062499998
0.026586914062499998
0.042700195312499994
0.069287109375
0.02578125
0.026586914062499998
0.0322265625
0.02900390625
0.026586914062499998
0.030615234374999998
0.027392578124999997
1.13115234375
3.0349365234374996
3.0357421875
3.0325195312499997
3.0325195312499997
3.0333251953125
3.0357421875
3.0317138671875
3.0301025390625
3.0357421875
2.8037109375
2.8109619140624997
2.6321044921874996
2.4935302734375
2.3823486328125
3.0325195312499997
3.0317138671875
3.034130859375
3.0325195312499997
3.0325195312499997
3.0309082031249996
1.1819091796874999
0.0298095703125
0.02578125
0.026586914062499998
0.0281982421875
0.030615234374999998
0.027392578124999997
0.02578125
0.0249755859375
0.027392578124999997
0.027392578124999997
0.026586914062499998
0.027392578124999997
0.02900390625
0.02578125
0.027392578124999997
0.026586914062499998
0.026586914062499998
0.027392578124999997
0.02578125
0.0298095703125
0.027392578124999997
3.0317138671875
3.0317138671875
3.0333251953125
3.0317138671875
3.0333251953125
3.0325195312499997
3.0325195312499997
3.029296875
3.0284912109374997
2.9495361328125
3.0059326171875
2.7448974609374996
2.6216308593749997
2.5289794921874997
3.0325195312499997
3.0284912109374997
3.0317138671875
3.029296875
3.0333251953125
3.034130859375
2.3235351562499997
0.024169921875
0.027392578124999997
0.0249755859375
0.026586914062499998
0.027392578124999997
0.026586914062499998
0.02578125
0.02578125
0.026586914062499998
0.02578125
0.02578125
0.107958984375
0.056396484375
0.058813476562499994
0.027392578124999997
0.023364257812499997
0.030615234374999998
0.02578125
0.027392578124999997
0.0281982421875
0.027392578124999997
2.78759765625
3.0365478515624997
3.029296875
3.029296875
3.0333251953125
3.0357421875
3.0309082031249996
3.0252685546875
3.0325195312499997
2.872998046875
2.5458984375
2.7046142578124996
2.5595947265624996
2.4564697265624997
3.0301025390625
3.0349365234374996
3.0301025390625
3.0309082031249996
3.0301025390625
3.0325195312499997
2.4468017578125
0.630029296875
0.027392578124999997
0.0298095703125
0.027392578124999997
0.0281982421875
0.0281982421875
0.030615234374999998
0.02578125
0.02578125
0.027392578124999997
0.027392578124999997
0.024169921875
0.0539794921875
0.07814941406249999
0.027392578124999997
0.026586914062499998
0.023364257812499997
0.02578125
0.02578125
0.0298095703125
0.027392578124999997
2.289697265625
3.0333251953125
3.0333251953125
3.0349365234374996
3.0325195312499997
3.0309082031249996
3.0333251953125
3.0357421875
3.0325195312499997
2.937451171875
2.37509765625
2.486279296875
2.6280761718749996
2.5031982421874996
2.3775146484375
3.0301025390625
3.0325195312499997
3.0301025390625
3.0301025390625
3.0333251953125
3.0301025390625
0.9724365234375
0.0281982421875
0.02900390625
0.02578125
0.02578125
0.02578125
0.02578125
0.024169921875
0.023364257812499997
0.027392578124999997
0.3714111328125
0.026586914062499998
0.0298095703125
0.0281982421875
0.026586914062499998
0.026586914062499998
0.02900390625
0.0249755859375
0.027392578124999997
0.027392578124999997
0.02578125
0.026586914062499998
3.0333251953125
3.034130859375
3.034130859375
3.034130859375
3.0317138671875
3.0301025390625
3.0301025390625
3.034130859375
2.931005859375
2.8593017578124997
2.6925292968749996
2.6296874999999997
2.52978515625
2.354150390625
3.0301025390625
3.0349365234374996
3.0325195312499997
3.0325195312499997
3.0301025390625
3.0325195312499997
0.6662841796875
0.026586914062499998
0.026586914062499998
0.0281982421875
0.027392578124999997
0.026586914062499998
0.027392578124999997
0.02900390625
0.0281982421875
0.026586914062499998
0.0378662109375
0.027392578124999997
0.061230468749999996
0.046728515624999994
0.024169921875
0.02578125
0.0281982421875
0.0249755859375
0.027392578124999997
0.026586914062499998
0.027392578124999997
0.026586914062499998
3.0091552734375
3.0301025390625
3.0317138671875
3.0325195312499997
3.0357421875
3.0333251953125
3.0309082031249996
3.0317138671875
3.0325195312499997
2.8754150390624997
2.4371337890625
2.6296874999999997
2.6192138671875
2.512060546875
3.034130859375
3.0317138671875
3.0309082031249996
3.0301025390625
3.0325195312499997
3.0317138671875
1.6363037109374998
0.42941894531249997
0.02578125
0.026586914062499998
0.0281982421875
0.0281982421875
0.026586914062499998
0.02900390625
0.0281982421875
0.02578125
0.026586914062499998
0.06606445312499999
0.027392578124999997
0.02900390625
0.0580078125
0.026586914062499998
0.02578125
0.023364257812499997
0.02578125
0.0249755859375
0.02578125
0.0281982421875
2.634521484375
3.0317138671875
3.0357421875
3.0349365234374996
3.0325195312499997
3.0317138671875
3.0309082031249996
3.0309082031249996
3.0333251953125
2.9116699218749997
3.0317138671875
2.7166992187499996
2.6385498046875
2.560400390625
3.0317138671875
3.0357421875
3.0325195312499997
3.029296875
3.0325195312499997
3.0325195312499997
2.760205078125
0.53818359375
0.02900390625
0.026586914062499998
0.027392578124999997
0.023364257812499997
0.02578125
0.027392578124999997
0.0201416015625
0.022558593749999998
0.0281982421875
0.399609375
0.033837890625
0.09990234375
0.10554199218749999
0.02900390625
0.02900390625
0.019335937499999997
0.026586914062499998
0.027392578124999997
0.026586914062499998
0.024169921875
2.199462890625
3.0317138671875
3.0325195312499997
3.027685546875
3.0333251953125
3.0349365234374996
3.0325195312499997
3.0309082031249996
3.0349365234374996
2.972900390625
2.5918212890624996
2.616796875
2.7569824218749996
2.6788330078125
2.4709716796875
3.0317138671875
3.0333251953125
3.0317138671875
3.0309082031249996
3.0325195312499997
3.0309082031249996
0.6936767578124999
0.0281982421875
0.026586914062499998
0.0298095703125
0.027392578124999997
0.027392578124999997
0.02578125
0.02900390625
0.026586914062499998
0.026586914062499998
0.5736328125
0.1345458984375
0.10231933593749999
0.1152099609375
0.10231933593749999
0.02578125
0.0281982421875
0.026586914062499998
0.026586914062499998
0.027392578124999997
0.0281982421875
0.02578125
2.9173095703125
3.0333251953125
3.0333251953125
3.0325195312499997
3.0333251953125
3.034130859375
3.0325195312499997
3.0349365234374996
3.0244628906249997
2.8037109375
2.591015625
2.5958496093749996
2.5168945312499997
2.4677490234375
3.0309082031249996
3.0325195312499997
3.0309082031249996
3.029296875
3.0365478515624997
3.0325195312499997
1.32451171875
0.2118896484375
0.026586914062499998
0.02900390625
0.02578125
0.027392578124999997
0.027392578124999997
0.027392578124999997
0.026586914062499998
0.026586914062499998
0.024169921875
0.0837890625
0.07009277343749999
0.0684814453125
0.059619140625
0.02900390625
0.027392578124999997
0.0249755859375
0.022558593749999998
0.026586914062499998
0.02578125
0.026586914062499998
2.8311035156249997
3.0357421875
3.034130859375
3.0309082031249996
3.034130859375
3.0349365234374996
3.0333251953125
3.0333251953125
3.0333251953125
2.9197265624999997
3.0188232421874996
2.7400634765625
2.6449951171875
2.5410644531249997
3.0333251953125
3.0317138671875
3.0309082031249996
3.0349365234374996
3.0325195312499997
3.0333251953125
2.5757080078124996
0.3424072265625
0.027392578124999997
0.023364257812499997
0.027392578124999997
0.026586914062499998
0.0298095703125
0.0281982421875
0.026586914062499998
0.026586914062499998
0.02578125
0.269091796875
0.146630859375
0.1474365234375
0.11037597656249999
0.02578125
0.027392578124999997
0.026586914062499998
0.024169921875
0.02900390625
0.0201416015625
0.027392578124999997
2.128564453125
3.0365478515624997
3.0325195312499997
3.0317138671875
3.029296875
3.034130859375
3.0325195312499997
3.0325195312499997
3.0325195312499997
2.963232421875
3.0325195312499997
2.6756103515625
2.6562744140624996
2.51044921875
2.3807373046875
3.0325195312499997
3.0317138671875
3.0325195312499997
3.0333251953125
3.0325195312499997
2.8802490234375
0.7387939453125
0.026586914062499998
0.023364257812499997
0.024169921875
0.0249755859375
0.0249755859375
0.026586914062499998
0.02900390625
0.02578125
0.033032226562499996
0.046728515624999994
0.1458251953125
0.057202148437499996
0.0378662109375
0.02900390625
0.0281982421875
0.033032226562499996
0.0217529296875
0.026586914062499998
0.02900390625
0.024169921875
0.02578125
2.940673828125
3.0325195312499997
3.0317138671875
3.0349365234374996
3.034130859375
3.0284912109374997
3.0309082031249996
3.0365478515624997
3.0325195312499997
2.8359375
3.0325195312499997
2.6296874999999997
2.576513671875
2.4830566406249996
3.0252685546875
3.0317138671875
3.0357421875
3.0349365234374996
3.0325195312499997
3.0317138671875
1.4687255859375
0.02578125
0.026586914062499998
0.023364257812499997
0.027392578124999997
0.026586914062499998
0.02578125
0.02900390625
0.02900390625
0.026586914062499998
0.02578125
0.027392578124999997
0.026586914062499998
0.02900390625
0.026586914062499998
0.027392578124999997
0.027392578124999997
0.022558593749999998
0.0298095703125
0.027392578124999997
0.0281982421875
0.027392578124999997
2.7932373046874996
3.0357421875
3.0317138671875
3.0349365234374996
3.034130859375
3.0309082031249996
3.0325195312499997
3.0357421875
3.0317138671875
2.9197265624999997
2.9825683593749996
2.68125
2.6200195312499996
2.4758056640625
3.0333251953125
3.0317138671875
3.0325195312499997
3.034130859375
3.0357421875
3.0244628906249997
1.1609619140625
0.16032714843749998
0.026586914062499998
0.024169921875
0.027392578124999997
0.0281982421875
0.026586914062499998
0.0249755859375
0.026586914062499998
0.02900390625
0.023364257812499997
0.165966796875
0.1264892578125
0.08056640625
0.0958740234375
0.026586914062499998
0.027392578124999997
0.02900390625
0.02578125
0.026586914062499998
0.026586914062499998
0.027392578124999997
2.421826171875
3.0333251953125
3.0317138671875
3.0317138671875
3.0333251953125
3.0309082031249996
3.0325195312499997
3.0325195312499997
3.034130859375
2.91650390625
3.0325195312499997
2.89072265625
2.6578857421874997
2.5491210937499997
3.0309082031249996
3.034130859375
3.0333251953125
3.0365478515624997
3.0357421875
3.0333251953125
2.6361328124999996
0.7959960937499999
0.024169921875
0.0249755859375
0.027392578124999997
0.027392578124999997
0.026586914062499998
0.027392578124999997
0.0249755859375
0.026586914062499998
0.024169921875
0.027392578124999997
0.02578125
0.0322265625
0.02578125
0.0217529296875
0.02578125
0.0281982421875
0.0249755859375
0.0298095703125
0.02578125
0.02578125
0.0249755859375
3.0333251953125
3.0309082031249996
3.0309082031249996
3.0333251953125
3.0317138671875
3.0357421875
3.0365478515624997
3.0317138671875
3.034130859375
2.8423828125
2.6885009765624996
2.6522460937499996
2.5636230468749996
2.4403564453124997
3.0325195312499997
3.0349365234374996
3.0309082031249996
3.0325195312499997
3.0333251953125
3.0325195312499997
1.2423339843749999
0.019335937499999997
0.02900390625
0.026586914062499998
0.024169921875
0.02578125
0.023364257812499997
0.02578125
0.0249755859375
0.026586914062499998
0.027392578124999997
0.0990966796875
0.08701171875
0.10957031249999999
0.0958740234375
0.026586914062499998
0.026586914062499998
0.026586914062499998
0.0281982421875
0.02578125
0.0217529296875
0.0322265625
3.0325195312499997
3.0357421875
3.0325195312499997
3.0349365234374996
3.034130859375
3.0333251953125
3.0317138671875
3.0284912109374997
3.029296875
2.9438964843749997
3.029296875
2.721533203125
2.6256591796874997
2.4371337890625
3.0325195312499997
3.0317138671875
3.0268798828124996
3.0333251953125
3.0357421875
3.0301025390625
0.903955078125
0.024169921875
0.0249755859375
0.02578125
0.027392578124999997
0.027392578124999997
0.027392578124999997
0.027392578124999997
0.027392578124999997
0.027392578124999997
0.0298095703125
0.02578125
0.11359863281249999
0.13857421875
0.0958740234375
0.02578125
0.026586914062499998
0.02578125
0.026586914062499998
0.024169921875
0.0298095703125
0.027392578124999997
2.5313964843749996
3.0309082031249996
3.0357421875
3.0333251953125
3.0349365234374996
3.0333251953125
3.0325195312499997
3.0325195312499997
3.0325195312499997
2.8874999999999997
2.7529541015624996
2.7481201171875
2.6095458984374997
2.479833984375
3.0333251953125
3.034130859375
3.034130859375
3.0325195312499997
3.0325195312499997
3.0309082031249996
2.44921875
0.8161376953124999
0.024169921875
0.027392578124999997
0.026586914062499998
0.024169921875
0.02578125
0.02900390625
0.024169921875
0.026586914062499998
0.02578125
0.02578125
0.026586914062499998
0.038671874999999994
0.0322265625
0.0217529296875
0.027392578124999997
0.0281982421875
0.026586914062499998
0.02900390625
0.0298095703125
0.038671874999999994
1.110205078125
3.0284912109374997
3.0357421875
3.0301025390625
3.0317138671875
3.0301025390625
3.0325195312499997
3.0333251953125
3.0325195312499997
2.9036132812499997
2.5491210937499997
2.889111328125
2.6723876953124996
2.5265625
3.0325195312499997
3.0309082031249996
3.0309082031249996
3.0365478515624997
3.0349365234374996
3.0349365234374996
3.0309082031249996
0.8403076171874999
0.0249755859375
0.02900390625
0.026586914062499998
0.02900390625
0.02578125
0.024169921875
0.02578125
0.024169921875
0.024169921875
0.0217529296875
0.038671874999999994
0.12890625
0.1087646484375
0.027392578124999997
0.027392578124999997
0.0249755859375
0.02578125
0.022558593749999998
0.024169921875
0.023364257812499997
1.7176757812499999
3.0317138671875
3.0325195312499997
3.0301025390625
3.034130859375
3.0325195312499997
3.0309082031249996
3.0325195312499997
3.0349365234374996
2.9769287109375
2.8270751953124997
2.79404296875
2.7005859374999996
2.5958496093749996
2.4524414062499997
3.0357421875
3.0301025390625
3.0325195312499997
3.0333251953125
3.0309082031249996
3.0325195312499997
0.7637695312499999
0.0281982421875
0.020947265625
0.026586914062499998
0.026586914062499998
0.0249755859375
0.018530273437499998
0.026586914062499998
0.0298095703125
0.0281982421875
0.07412109374999999
0.027392578124999997
0.10151367187499999
0.1329345703125
0.059619140625
0.02578125
0.02578125
0.026586914062499998
0.023364257812499997
0.0281982421875
0.026586914062499998
0.0281982421875
2.8157958984375
3.0333251953125
3.0333251953125
3.034130859375
3.0333251953125
3.034130859375
3.0325195312499997
3.0284912109374997
3.0333251953125
2.8721923828125
2.3887939453125
2.6997802734375
2.5934326171874997
2.5072265624999996
3.0325195312499997
3.0301025390625
3.0317138671875
3.0317138671875
3.0325195312499997
3.0325195312499997
1.7426513671875
0.026586914062499998
0.023364257812499997
0.027392578124999997
0.027392578124999997
0.026586914062499998
0.027392578124999997
0.024169921875
0.024169921875
0.0249755859375
0.02578125
0.027392578124999997
0.024169921875
0.04189453125
0.053173828124999996
0.02578125
0.026586914062499998
0.026586914062499998
0.027392578124999997
0.026586914062499998
0.024169921875
0.026586914062499998
2.3718749999999997
3.0333251953125
3.0333251953125
3.0325195312499997
3.034130859375
3.0333251953125
3.0325195312499997
3.0309082031249996
3.0284912109374997
2.8770263671875
2.5475097656249996
2.70703125
2.5845703125
2.5209228515624997
3.0333251953125
3.0325195312499997
3.0325195312499997
3.0349365234374996
3.0333251953125
3.0333251953125
2.2373291015625
0.5873291015625
0.02578125
0.02578125
0.02578125
0.0281982421875
0.02578125
0.026586914062499998
0.026586914062499998
0.027392578124999997
0.027392578124999997
0.026586914062499998
0.0298095703125
0.15468749999999998
0.1611328125
0.0281982421875
0.023364257812499997
0.02578125
0.0298095703125
0.0249755859375
0.027392578124999997
0.027392578124999997
2.384765625
3.0357421875
3.0309082031249996
3.0333251953125
3.0325195312499997
3.0333251953125
3.0317138671875
3.0317138671875
3.029296875
3.005126953125
2.4298828125
2.6232421875
2.7320068359375
2.592626953125
2.4427734375
3.034130859375
3.0333251953125
3.029296875
3.0309082031249996
3.0317138671875
3.0325195312499997
0.9249023437499999
0.027392578124999997
0.026586914062499998
0.030615234374999998
0.027392578124999997
0.02578125
0.026586914062499998
0.027392578124999997
0.02578125
0.02578125
0.31259765624999997
0.0555908203125
0.10231933593749999
0.10554199218749999
0.0878173828125
0.0281982421875
0.0298095703125
0.027392578124999997
0.026586914062499998
0.0281982421875
0.02578125
0.0281982421875
2.695751953125
3.034130859375
3.0317138671875
3.0325195312499997
3.0349365234374996
3.037353515625
3.0317138671875
3.0317138671875
3.0284912109374997
2.8528564453125
2.66513671875
2.650634765625
2.5458984375
2.4629150390625
3.0317138671875
3.0309082031249996
3.0325195312499997
3.0333251953125
3.0317138671875
3.0317138671875
1.4348876953124998
0.0281982421875
0.027392578124999997
0.02578125
0.027392578124999997
0.02578125
0.0281982421875
0.024169921875
0.027392578124999997
0.02578125
0.026586914062499998
0.02578125
0.02900390625
0.037060546874999996
0.02900390625
0.027392578124999997
0.026586914062499998
0.0281982421875
0.0322265625
0.027392578124999997
0.02578125
0.026586914062499998
2.6997802734375
3.0389648437499996
3.0333251953125
3.027685546875
3.0317138671875
3.034130859375
3.0317138671875
3.0301025390625
3.0349365234374996
2.9430908203125
2.4790283203124996
2.6949462890625
2.618408203125
2.5289794921874997
3.0309082031249996
3.0349365234374996
3.034130859375
3.0325195312499997
3.034130859375
3.0317138671875
2.118896484375
