1.123095703125
0.9893554687499999
1.06025390625
1.0385009765625
1.134375
1.3631835937499999
1.5275390624999998
1.6169677734374999
1.6701416015625
1.7184814453125
1.7587646484375
1.7539306640624999
1.7571533203124998
1.7539306640624999
1.7080078125
1.69833984375
1.6878662109375
1.65966796875
1.3672119140624999
1.931982421875
2.015771484375
2.09150390625
2.115673828125
2.1632080078125
2.26875
1.9682373046875
1.5927978515624999
1.4373046875
1.3575439453125
1.332568359375
1.3462646484374998
1.332568359375
1.33740234375
1.3478759765625
1.3333740234375
1.384130859375
1.3929931640625
1.409912109375
1.4123291015625
1.8796142578125
1.364794921875
1.1279296875
1.0868408203125
1.0570312499999999
1.0932861328124999
0.9047607421874999
1.1367919921875
1.2995361328125
1.5517089843749998
1.6459716796875
1.7047851562499998
1.7281494140625
1.7934082031249998
1.7877685546875
1.77568359375
1.7893798828124998
1.7426513671875
1.73056640625
1.667724609375
1.6491943359374999
1.1577392578124999
1.780517578125
2.03671875
2.0616943359374997
2.115673828125
2.1422607421874997
2.399267578125
2.0761962890625
1.5541259765625
1.4026611328124998
1.345458984375
1.3269287109374999
1.3309570312499999
1.319677734375
1.32451171875
1.3430419921874999
1.3623779296874998
1.3768798828125
1.3954101562499999
1.4115234374999999
1.4171630859375
1.7208984374999998
1.4107177734374998
1.168212890625
1.1134277343749999
1.0610595703124999
1.1657958984374999
0.9651855468749999
1.1158447265625
1.2785888671874999
1.4848388671875
1.6290527343749999
1.7080078125
1.732177734375
1.7861572265624999
1.78857421875
1.7732666015624998
1.7821289062499999
1.7345947265625
1.72734375
1.722509765625
1.6927001953124998
1.1786865234375
1.7362060546875
2.0278564453125
2.0898925781249997
2.1309814453125
1.9996582031249999
2.0600830078125
2.244580078125
1.73056640625
1.5041748046874999
1.3817138671875
1.34384765625
1.335791015625
1.32451171875
1.3220947265624998
1.3269287109374999
1.3237060546875
1.3672119140624999
1.37607421875
1.3929931640625
1.4252197265625
1.7039794921875
1.6475830078125
1.1690185546875
1.10859375
1.026416015625
0.9917724609374999
0.9635742187499999
1.06669921875
1.1859374999999999
1.458251953125
1.60166015625
1.6814208984374999
1.7176757812499999
1.7829345703125
1.7797119140625
1.77568359375
1.767626953125
1.7450683593749998
1.7345947265625
1.703173828125
1.6951171875
1.3994384765624999
1.42119140625
2.028662109375
2.0649169921875
2.1245361328125
2.0778076171874997
2.047998046875
2.3775146484375
1.7595703125
1.5009521484375
1.3921875
1.3478759765625
1.3285400390625
1.319677734375
1.3309570312499999
1.3285400390625
1.3261230468749998
1.3365966796875
1.3817138671875
1.4010498046875
1.4042724609375
1.4107177734374998
1.6975341796874999
1.2141357421874999
1.126318359375
1.0401123046875
0.9490722656249999
1.0376953125
0.9079833984375
1.1931884765625
1.3905761718749998
1.5686279296874999
1.6765869140624998
1.7120361328125
1.7523193359375
1.7821289062499999
1.77568359375
1.7700439453124999
1.8046875
1.7490966796874998
1.7217041015624999
1.69833984375
1.4574462890625
1.3664062499999998
1.957763671875
2.064111328125
2.1116455078125
2.1503173828124997
2.176904296875
2.3775146484375
1.8868652343749999
1.5541259765625
1.3913818359374999
1.3414306640625
1.3212890625
1.3253173828125
1.3333740234375
1.3317626953125
1.332568359375
1.348681640625
1.3865478515624998
1.3905761718749998
1.4058837890625
1.4187744140624998
1.8755859375
1.232666015625
1.1375976562499999
1.0892578124999999
1.069921875
1.0030517578125
0.9152343749999999
1.11826171875
1.3559326171875
1.554931640625
1.6403320312499998
1.7096191406249999
1.770849609375
1.7877685546875
1.780517578125
1.7732666015624998
1.780517578125
1.7337890624999999
1.7128417968749998
1.6943115234375
1.67900390625
1.1770751953125
1.9279541015625
2.0576660156249997
2.080224609375
2.12373046875
2.1551513671875
2.2623046875
2.00771484375
1.6048828124999999
1.4381103515625
1.3639892578125
1.3301513671874998
1.3365966796875
1.335791015625
1.327734375
1.3365966796875
1.3253173828125
1.3575439453125
1.377685546875
1.3946044921874998
1.4171630859375
1.88525390625
1.3962158203125
1.1529052734375
1.0884521484375
1.058642578125
1.147265625
0.8950927734374999
1.09892578125
1.2938964843749998
1.4791992187499998
1.6306640625
1.6943115234375
1.7184814453125
1.7861572265624999
1.77890625
1.78857421875
1.767626953125
1.7297607421874999
1.7208984374999998
1.7080078125
1.6822265625
1.168212890625
1.7265380859375
2.0326904296875
2.07216796875
2.1293701171875
1.9948242187499998
2.231689453125
2.263916015625
1.751513671875
1.4574462890625
1.36962890625
1.3317626953125
1.3390136718749999
1.3092041015625
1.3188720703124999
1.3365966796875
1.33740234375
1.3599609375
1.3744628906249998
1.4042724609375
1.42119140625
1.69189453125
1.6403320312499998
1.1593505859375
1.0997314453125
1.03125
1.17626953125
0.994189453125
1.00224609375
1.2052734375
1.4671142578124998
1.6169677734374999
1.67578125
1.7217041015624999
1.7764892578125
1.780517578125
1.7813232421874998
1.7845458984375
1.7539306640624999
1.7297607421874999
1.7039794921875
1.6806152343749998
1.3817138671875
1.6806152343749998
2.018994140625
2.0471923828125
2.1454833984375
2.0504150390625
2.0560546875
2.3694580078125
1.719287109375
1.5033691406249998
1.3929931640625
1.3333740234375
1.3317626953125
1.3204833984375
1.32451171875
1.3261230468749998
1.3446533203125
1.348681640625
1.3849365234375
1.3921875
1.40830078125
1.63388671875
1.6975341796874999
1.229443359375
1.1142333984375
1.0328613281249999
0.9571289062499999
1.055419921875
0.9821044921875
1.1835205078125
1.3792968749999999
1.6048828124999999
1.6765869140624998
1.7208984374999998
1.75634765625
1.780517578125
1.7781005859374999
1.7692382812499998
1.7474853515625
1.738623046875
1.7136474609374999
1.6967285156249998
1.4703369140625
1.353515625
1.9537353515625
2.051220703125
2.1197021484375
2.160791015625
2.05283203125
2.3307861328125
1.98515625
1.5412353515625
1.409912109375
1.3543212890624998
1.3180664062499998
1.3188720703124999
1.3148437499999999
1.3301513671874998
1.3269287109374999
1.3212890625
1.3688232421875
1.3921875
1.4066894531249998
1.42119140625
1.8812255859375
1.2383056640624999
1.1287353515625
1.0916748046875
0.9321533203125
1.0143310546875
0.9232910156249999
1.1214843749999999
1.364794921875
1.5517089843749998
1.6363037109374998
1.7168701171874998
1.7507080078125
1.7909912109375
1.780517578125
1.7813232421874998
1.7700439453124999
1.732177734375
1.714453125
1.7039794921875
1.6765869140624998
1.3108154296874999
1.9327880859375
2.0431640625
2.0979492187499997
2.1229248046875
2.1567626953125
2.2727783203125
2.0085205078125
1.6081054687499998
1.445361328125
1.3551269531249999
1.3180664062499998
1.335791015625
1.3212890625
1.3229003906249999
1.3269287109374999
1.3341796874999998
1.377685546875
1.3897705078125
1.4066894531249998
1.4171630859375
1.8812255859375
1.4010498046875
1.1287353515625
1.0916748046875
1.05380859375
1.1335693359374999
0.8934814453125
1.1134277343749999
1.2963134765625
1.5565429687499999
1.6411376953124999
1.7072021484375
1.74345703125
1.7893798828124998
1.78857421875
1.764404296875
1.7877685546875
1.7410400390624998
1.7233154296875
1.6991455078125
1.67578125
1.1657958984374999
1.7297607421874999
2.0471923828125
2.07861328125
2.1229248046875
2.07861328125
2.29775390625
2.2187988281249997
1.6161621093749998
1.4413330078125
1.368017578125
1.3309570312499999
1.3261230468749998
1.3180664062499998
1.3220947265624998
1.3285400390625
1.340625
1.36962890625
1.3865478515624998
1.4010498046875
1.4147460937499998
1.7088134765624998
1.4300537109375
1.158544921875
1.1174560546874999
1.04736328125
1.173046875
0.968408203125
1.0965087890625
1.2592529296875
1.46630859375
1.6081054687499998
1.690283203125
1.72412109375
1.7764892578125
1.7813232421874998
1.764404296875
1.7740722656249999
1.74345703125
1.7249267578124998
1.7088134765624998
1.6910888671875
1.1778808593749999
1.6862548828125
2.018994140625
2.0745849609375
2.1382324218749997
2.0520263671875
2.054443359375
2.2856689453125
1.7909912109375
1.5202880859374999
1.3784912109374998
1.3382080078124998
1.332568359375
1.31162109375
1.3204833984375
1.3220947265624998
1.3261230468749998
1.3551269531249999
1.377685546875
1.38896484375
1.4147460937499998
1.6395263671875
1.6781982421875
1.1593505859375
1.119873046875
1.0272216796875
0.9692138671874999
1.0014404296875
1.03447265625
1.1867431640625
1.4630859374999998
1.6048828124999999
1.6733642578124999
1.7096191406249999
1.7732666015624998
1.7716552734375
1.7732666015624998
1.7748779296875
1.7426513671875
1.7297607421874999
1.703173828125
1.6967285156249998
1.4469726562499998
1.3744628906249998
2.012548828125
2.060888671875
2.1068115234375
2.1205078125
2.05283203125
2.3823486328125
1.7781005859374999
1.5146484375
1.3921875
1.3365966796875
1.3269287109374999
1.3237060546875
1.3309570312499999
1.3365966796875
1.3341796874999998
1.340625
1.37607421875
1.3954101562499999
1.409912109375
1.4203857421875
1.7329833984374998
1.2374999999999998
1.13115234375
1.0513916015625
0.945849609375
1.0119140625
0.91201171875
1.1835205078125
1.3664062499999998
1.5589599609375
1.674169921875
1.7200927734375
1.7539306640624999
1.7821289062499999
1.7700439453124999
1.76279296875
1.7877685546875
1.7281494140625
1.7128417968749998
1.69833984375
1.5283447265624999
1.3172607421875
1.944873046875
2.0552490234375
2.1019775390624997
2.118896484375
2.1567626953125
2.3887939453125
1.941650390625
1.5927978515624999
1.40185546875
1.340625
1.3237060546875
1.3212890625
1.3253173828125
1.329345703125
1.3422363281249998
1.3365966796875
1.3833251953124999
1.3865478515624998
1.4171630859375
1.4236083984374999
1.89169921875
1.2495849609374998
1.1287353515625
1.08603515625
1.0634765625
0.9772705078124999
0.8958984375
1.110205078125
1.353515625
1.5299560546875
1.6346923828125
1.7023681640625
1.74345703125
1.7934082031249998
1.78857421875
1.7764892578125
1.7635986328125
1.732177734375
1.719287109375
1.7023681640625
1.6822265625
1.1706298828125
1.90458984375
2.04638671875
2.0794189453125
2.1076171875
2.1052001953125
2.23974609375
2.0625
1.6540283203125
1.4469726562499998
1.3744628906249998
1.32451171875
1.3341796874999998
1.3212890625
1.3229003906249999
1.3349853515624999
1.3204833984375
1.3744628906249998
1.3825195312499998
1.393798828125
1.4123291015625
1.8659179687499998
1.42119140625
1.1674072265625
1.09892578125
1.055419921875
1.1786865234375
0.865283203125
1.0900634765625
1.2697265624999998
1.46953125
1.6395263671875
1.6951171875
1.714453125
1.7974365234374998
1.7829345703125
1.7724609375
1.7845458984375
1.732177734375
1.722509765625
1.7055908203124999
1.683837890625
1.174658203125
1.6886718749999998
2.0431640625
2.075390625
2.1342041015624997
2.0431640625
2.2405517578125
2.263916015625
1.7418457031249999
1.45341796875
1.3559326171875
1.3237060546875
1.3253173828125
1.3309570312499999
1.3365966796875
1.3414306640625
1.3390136718749999
1.3607666015625
1.3905761718749998
1.4219970703125
1.429248046875
1.6443603515624998
1.4679199218749999
1.16337890625
1.10859375
1.03125
1.18271484375
1.0288330078124999
0.9901611328125
1.2592529296875
1.4630859374999998
1.6129394531249999
1.67578125
1.7136474609374999
1.767626953125
1.770849609375
1.767626953125
1.7821289062499999
1.751513671875
1.719287109375
1.7088134765624998
1.6822265625
1.4413330078125
1.62744140625
1.9996582031249999
2.054443359375
2.1245361328125
2.102783203125
2.051220703125
2.28486328125
1.76279296875
1.509814453125
1.4034667968749999
1.3494873046875
1.3349853515624999
1.3317626953125
1.3382080078124998
1.3333740234375
1.329345703125
1.3817138671875
1.3954101562499999
1.40185546875
1.4107177734374998
1.5807128906249999
1.7176757812499999
1.2439453125
1.1287353515625
1.061865234375
0.95390625
1.06669921875
1.0481689453125
1.1786865234375
1.3551269531249999
1.5815185546875
1.6572509765624999
1.7015624999999999
1.7668212890625
1.7829345703125
1.7772949218749998
1.7764892578125
1.7378173828124999
1.7281494140625
1.714453125
1.6894775390624999
1.5323730468749999
1.3317626953125
1.9787109374999998
2.0294677734374997
2.08505859375
2.1052001953125
2.05283203125
2.3114501953124997
2.0117431640625
1.5460693359375
1.4187744140624998
1.3672119140624999
1.3414306640625
1.335791015625
1.3309570312499999
1.32451171875
1.3390136718749999
1.340625
1.3801025390625
1.405078125
1.40830078125
1.4155517578124999
1.767626953125
1.2689208984375
1.148876953125
1.1150390625
0.966796875
0.9885498046875
0.9152343749999999
1.1819091796874999
1.3631835937499999
1.538818359375
1.638720703125
1.69833984375
1.7337890624999999
1.77890625
1.7716552734375
1.764404296875
1.7692382812499998
1.7297607421874999
1.7080078125
1.6886718749999998
1.67578125
1.2947021484374999
1.8949218749999999
2.0302734375
2.0794189453125
2.07216796875
2.0906982421875
2.281640625
1.9787109374999998
1.609716796875
1.4397216796874999
1.35673828125
1.3365966796875
1.3510986328124999
1.3382080078124998
1.3414306640625
1.3430419921874999
1.3543212890624998
1.3897705078125
1.393798828125
1.4091064453125
1.4236083984374999
1.8602783203125
1.4187744140624998
1.155322265625
1.11181640625
1.0650878906249999
1.17626953125
0.9240966796875
1.106982421875
1.2858398437499998
1.5283447265624999
1.6282470703124998
1.6878662109375
1.7096191406249999
1.7772949218749998
1.7748779296875
1.764404296875
1.7716552734375
1.738623046875
1.7257324218749999
1.6943115234375
1.6685302734374998
1.171435546875
1.6967285156249998
2.0262451171875
2.0536376953124997
2.1164794921875
2.0173828124999997
2.2590820312499997
2.2099365234375
1.6177734375
1.4542236328125
1.3873535156249999
1.3502929687499998
1.3510986328124999
1.3341796874999998
1.33740234375
1.3470703124999999
1.332568359375
1.3672119140624999
1.393798828125
1.4066894531249998
1.4268310546874998
1.6620849609375
1.4679199218749999
1.187548828125
1.12470703125
1.0570312499999999
1.19560546875
1.0207763671874999
1.116650390625
1.2616699218749998
1.4550292968749998
1.590380859375
1.67900390625
1.6991455078125
1.767626953125
1.7764892578125
1.7764892578125
1.7668212890625
1.7394287109375
1.7136474609374999
1.7039794921875
1.683837890625
1.1996337890625
1.6435546875
1.989990234375
2.0504150390625
2.1197021484375
2.0842529296875
2.0423583984375
2.3050048828125
1.7909912109375
1.5235107421874998
1.3929931640625
1.34384765625
1.33740234375
1.3333740234375
1.332568359375
1.3285400390625
1.329345703125
1.3623779296874998
1.3849365234375
1.4074951171874999
1.416357421875
1.5911865234375
1.714453125
1.18916015625
1.1222900390625
1.0489746093749999
0.9732421874999999
1.042529296875
1.045751953125
1.181103515625
1.4413330078125
1.590380859375
1.65966796875
1.7039794921875
1.7611816406249998
1.767626953125
1.767626953125
1.7619873046874999
1.74345703125
1.72734375
1.706396484375
1.687060546875
1.5017578125
1.348681640625
1.98837890625
2.02705078125
2.093115234375
2.147900390625
2.0431640625
2.358984375
1.7797119140625
1.525927734375
1.4042724609375
1.3599609375
1.3349853515624999
1.340625
1.327734375
1.345458984375
1.3446533203125
1.351904296875
1.3825195312499998
1.3946044921874998
1.4187744140624998
1.4284423828125
1.754736328125
1.2673095703125
1.1561279296875
1.06025390625
0.9651855468749999
1.0094970703125
0.920068359375
1.184326171875
1.3559326171875
1.5444580078124999
1.6645019531249998
1.7184814453125
1.7378173828124999
1.7668212890625
1.7595703125
1.7523193359375
1.7732666015624998
1.7370117187499998
1.7128417968749998
1.7015624999999999
1.5654052734375
1.300341796875
1.9102294921874998
2.0294677734374997
2.0778076171874997
2.0898925781249997
2.1084228515625
2.3420654296875
1.980322265625
1.625830078125
1.4219970703125
1.368017578125
1.345458984375
1.3382080078124998
1.3382080078124998
1.3382080078124998
1.348681640625
1.340625
1.380908203125
1.3873535156249999
1.40830078125
1.4171630859375
1.8651123046875
1.27939453125
1.1577392578124999
1.1174560546874999
1.0731445312499999
0.98291015625
0.9015380859375
1.1126220703125
1.348681640625
1.522705078125
1.6266357421875
1.6806152343749998
1.7233154296875
1.77568359375
1.7813232421874998
1.7700439453124999
1.7474853515625
1.72734375
1.703173828125
1.6951171875
1.683837890625
1.1899658203124999
1.8828369140624999
2.0359130859375
2.05927734375
2.0947265625
2.0439697265625
2.2502197265625
2.04638671875
1.6322753906249998
1.4590576171874998
1.3849365234375
1.3414306640625
1.3470703124999999
1.3365966796875
1.3414306640625
1.345458984375
1.3285400390625
1.3736572265625
1.38896484375
1.4026611328124998
1.4155517578124999
1.8457763671874998
1.4598632812499999
1.1859374999999999
1.1150390625
1.0642822265625
1.2060791015624999
0.90234375
1.11181640625
1.2536132812499998
1.4598632812499999
1.6177734375
1.670947265625
1.7104248046875
1.7877685546875
1.7821289062499999
1.7579589843749999
1.77890625
1.740234375
1.7168701171874998
1.7047851562499998
1.67900390625
1.197216796875
1.6765869140624998
2.0109375
2.03994140625
2.115673828125
2.05283203125
2.2510253906249997
2.2268554687499997
1.7442626953125
1.4655029296875
1.3768798828125
1.345458984375
1.345458984375
1.3212890625
1.3398193359375
1.3269287109374999
1.3583496093749998
1.3825195312499998
1.3978271484375
1.4107177734374998
1.4219970703125
1.606494140625
1.506591796875
1.1980224609374999
1.1351806640625
1.0723388671875
1.200439453125
1.0771728515624999
1.03447265625
1.2374999999999998
1.4389160156249998
1.585546875
1.654833984375
1.7047851562499998
1.7507080078125
1.7499023437499999
1.7635986328125
1.7748779296875
1.7611816406249998
1.7313720703125
1.7039794921875
1.683837890625
1.464697265625
1.6056884765625
1.9891845703125
2.0326904296875
2.1132568359375
2.13662109375
2.0496093749999997
2.2840576171875
1.7772949218749998
1.5243164062499999
1.4115234374999999
1.3494873046875
1.345458984375
1.340625
1.3631835937499999
1.3414306640625
1.348681640625
1.361572265625
1.384130859375
1.3946044921874998
1.4155517578124999
1.542041015625
1.7458740234374999
1.276171875
1.139208984375
1.0787841796875
0.9659912109375
1.0562255859375
1.0650878906249999
1.1609619140625
1.3575439453125
1.5702392578125
1.658056640625
1.6935058593749999
1.7571533203124998
1.7724609375
1.7724609375
1.7668212890625
1.7345947265625
1.7249267578124998
1.71123046875
1.6959228515625
1.5726562499999999
1.3059814453124998
1.972265625
2.0278564453125
2.0826416015625
2.0794189453125
2.0625
2.3235351562499997
2.0085205078125
1.5541259765625
1.4437499999999999
1.377685546875
1.34384765625
1.3349853515624999
1.33740234375
1.340625
1.3462646484374998
1.340625
1.3728515625
1.4066894531249998
1.413134765625
1.4203857421875
1.791796875
1.2858398437499998
1.1625732421875
1.119873046875
1.0030517578125
0.9716308593749999
0.9031494140624999
1.16015625
1.345458984375
1.5251220703125
1.625830078125
1.6814208984374999
1.7208984374999998
1.767626953125
1.7700439453124999
1.7692382812499998
1.77568359375
1.73056640625
1.7128417968749998
1.6967285156249998
1.670947265625
1.2511962890625
1.8788085937499999
2.0246337890625
2.0665283203125
2.0713623046875
2.0391357421875
2.2921142578125
1.96904296875
1.609716796875
1.4461669921875
1.3639892578125
1.3414306640625
1.3470703124999999
1.3382080078124998
1.3349853515624999
1.3365966796875
1.35673828125
1.3817138671875
1.397021484375
1.4252197265625
1.4276367187499999
1.8522216796875
1.46953125
1.1617675781249999
1.12470703125
1.05380859375
1.190771484375
0.90556640625
1.0997314453125
1.2560302734375
1.5073974609374998
1.6105224609375
1.6798095703125
1.7208984374999998
1.783740234375
1.7853515624999998
1.7684326171875
1.7619873046874999
1.7289550781249998
1.7200927734375
1.6967285156249998
1.67578125
1.184326171875
1.6620849609375
2.0262451171875
2.0625
2.125341796875
1.98515625
2.189794921875
2.280029296875
1.6669189453125
1.4711425781249998
1.380908203125
1.3430419921874999
1.3502929687499998
1.3301513671874998
1.335791015625
1.3478759765625
1.340625
1.3736572265625
1.393798828125
1.4107177734374998
1.4187744140624998
1.6218017578125
1.4880615234374999
1.1883544921875
1.1351806640625
1.0691162109374999
1.1980224609374999
1.013525390625
1.0884521484375
1.2415283203124998
1.4364990234375
1.5839355468749998
1.6846435546874998
1.71123046875
1.7603759765625
1.7781005859374999
1.7748779296875
1.7611816406249998
1.732177734375
1.72412109375
1.7007568359374998
1.6854492187499999
1.2157470703125
1.6137451171875
1.980322265625
2.0455810546874997
2.1277587890625
2.131787109375
2.0496093749999997
2.3307861328125
1.812744140625
1.5509033203125
1.38896484375
1.3341796874999998
1.3309570312499999
1.3212890625
1.353515625
1.3382080078124998
1.348681640625
1.3704345703124998
1.3897705078125
1.400244140625
1.4155517578124999
1.5573486328125
1.7426513671875
1.2157470703125
1.139208984375
1.069921875
0.9579345703125
1.0675048828125
0.9861328125
1.1778808593749999
1.4373046875
1.5911865234375
1.654833984375
1.706396484375
1.75634765625
1.7555419921875
1.75634765625
1.764404296875
1.7466796875
1.7281494140625
1.7152587890625
1.7015624999999999
1.5492919921875
1.3108154296874999
1.9682373046875
2.022216796875
2.0778076171874997
2.1760986328125
2.0729736328125
2.3638183593749997
1.8683349609375
1.5186767578125
1.409912109375
1.364794921875
1.35673828125
1.3543212890624998
1.32451171875
1.3309570312499999
1.3365966796875
1.364794921875
1.3946044921874998
1.413134765625
1.4195800781249999
1.4219970703125
1.7901855468749999
1.2705322265624999
1.1512939453125
1.074755859375
0.9732421874999999
0.9812988281249999
0.8999267578125
1.171435546875
1.35673828125
1.5186767578125
1.64677734375
1.6846435546874998
1.7257324218749999
1.7595703125
1.7813232421874998
1.7748779296875
1.7797119140625
1.735400390625
1.7055908203124999
1.6822265625
1.6129394531249999
1.2737548828124998
1.8884765625
2.0246337890625
2.0657226562499997
2.0713623046875
2.0625
2.3146728515625
2.070556640625
1.6556396484375
1.4332763671875
1.377685546875
1.3494873046875
1.3502929687499998
1.3382080078124998
1.3414306640625
1.351904296875
1.345458984375
1.3833251953124999
1.3865478515624998
1.4042724609375
1.4228027343749998
1.861083984375
1.442138671875
1.1593505859375
1.1239013671875
1.07958984375
0.992578125
0.90556640625
1.1021484375
1.2640869140625
1.5033691406249998
1.6218017578125
1.6846435546874998
1.7120361328125
1.7700439453124999
1.764404296875
1.7740722656249999
1.7587646484375
1.73056640625
1.719287109375
1.6967285156249998
1.683837890625
1.1980224609374999
1.8417480468749998
2.01416015625
2.047998046875
2.09150390625
1.98837890625
2.212353515625
2.2614990234375
1.6363037109374998
1.44052734375
1.384130859375
1.3801025390625
1.3792968749999999
1.3382080078124998
1.340625
1.3494873046875
1.3430419921874999
1.3728515625
1.3962158203125
1.4147460937499998
1.4195800781249999
1.8328857421875
1.4953124999999998
1.1996337890625
1.12470703125
1.0594482421875
1.200439453125
1.061865234375
1.0828125
1.24716796875
1.442138671875
1.6121337890624998
1.6798095703125
1.699951171875
1.754736328125
1.77890625
1.7660156249999999
1.7748779296875
1.73056640625
1.7023681640625
1.6830322265625
1.6773925781249999
1.203662109375
1.6379150390625
1.9875732421874999
2.0584716796875
2.1060058593749997
2.0826416015625
2.2341064453125
2.2341064453125
1.7499023437499999
1.4735595703125
1.397021484375
1.3543212890624998
1.361572265625
1.3333740234375
1.3599609375
1.351904296875
1.351904296875
1.3744628906249998
1.3929931640625
1.409912109375
1.4203857421875
1.5734619140625
1.7257324218749999
1.2052734375
1.139208984375
1.0828125
1.1819091796874999
1.0787841796875
1.0336669921875
1.1722412109375
1.4171630859375
1.5726562499999999
1.651611328125
1.687060546875
1.751513671875
1.7724609375
1.7507080078125
1.7724609375
1.7362060546875
1.72412109375
1.7120361328125
1.6878662109375
1.52109375
1.5726562499999999
1.9682373046875
2.0278564453125
2.1060058593749997
2.1632080078125
2.0439697265625
2.296142578125
1.8111328125
1.56943359375
1.4703369140625
1.3954101562499999
1.3583496093749998
1.3317626953125
1.3172607421875
1.3092041015625
1.3333740234375
1.35673828125
1.4074951171874999
1.41796875
1.4107177734374998
1.5017578125
1.7700439453124999
1.2769775390625
1.142431640625
1.0755615234375
0.9756591796874999
1.0006347656249999
1.0570312499999999
1.1674072265625
1.345458984375
1.5533203125
1.6322753906249998
1.7047851562499998
1.7313720703125
1.7700439453124999
1.7595703125
1.7684326171875
1.7426513671875
1.7096191406249999
1.7039794921875
1.6798095703125
1.590380859375
1.2858398437499998
1.8884765625
2.023828125
2.0681396484375
2.0778076171874997
2.08505859375
2.3404541015625
2.0069091796875
1.5565429687499999
1.4252197265625
1.3752685546874999
1.351904296875
1.3390136718749999
1.3583496093749998
1.3494873046875
1.3527099609375
1.3720458984375
1.3946044921874998
1.3986328124999998
1.409912109375
1.4171630859375
1.8506103515624999
1.3059814453124998
1.17626953125
1.1351806640625
1.0449462890624999
0.9812988281249999
0.8950927734374999
1.1093994140624999
1.3333740234375
1.5186767578125
1.619384765625
1.6894775390624999
1.7200927734375
1.7740722656249999
1.7450683593749998
1.7458740234374999
1.7724609375
1.7297607421874999
1.716064453125
1.6951171875
1.67900390625
1.2447509765625
1.8522216796875
2.0181884765625
2.0520263671875
2.060888671875
1.98193359375
2.2993652343749997
2.031884765625
1.6435546875
1.458251953125
1.3672119140624999
1.34384765625
1.3446533203125
1.3309570312499999
1.3502929687499998
1.3672119140624999
1.3527099609375
1.3849365234375
1.4026611328124998
1.432470703125
1.4203857421875
1.8369140625
1.4920898437499999
1.1786865234375
1.1303466796875
1.0675048828125
1.1980224609374999
0.8950927734374999
1.0997314453125
1.26328125
1.490478515625
1.6081054687499998
1.6693359374999999
1.6733642578124999
1.7579589843749999
1.7748779296875
1.7797119140625
1.7490966796874998
1.722509765625
1.706396484375
1.6951171875
1.6822265625
1.2238037109375
1.6242187499999998
1.996435546875
2.0359130859375
2.0874755859375
1.93681640625
2.165625
2.309033203125
1.72412109375
1.5001464843749999
1.4147460937499998
1.351904296875
1.3527099609375
1.3317626953125
1.34384765625
1.3446533203125
1.3301513671874998
1.3744628906249998
1.3962158203125
1.4010498046875
1.4139404296875
1.5791015625
1.5315673828124998
1.213330078125
1.1537109374999999
1.0642822265625
1.1835205078125
1.0771728515624999
1.0852294921874999
1.2286376953125
1.429248046875
1.5686279296874999
1.6685302734374998
1.6959228515625
1.7490966796874998
1.764404296875
1.7474853515625
1.7635986328125
1.7362060546875
1.719287109375
1.6967285156249998
1.6886718749999998
1.2383056640624999
1.5718505859374998
1.9505126953124998
2.03671875
2.099560546875
2.1535400390625
2.0455810546874997
2.3211181640625
1.7958251953125
1.53076171875
1.3929931640625
1.3591552734374999
1.34384765625
1.3341796874999998
1.368017578125
1.3583496093749998
1.3510986328124999
1.3873535156249999
1.393798828125
1.3978271484375
1.4026611328124998
1.46630859375
1.732177734375
1.2624755859374999
1.2028564453125
1.123095703125
1.010302734375
1.1110107421875
0.9732421874999999
1.1657958984374999
1.4066894531249998
1.5702392578125
1.6298583984375
1.611328125
1.751513671875
1.7692382812499998
1.7684326171875
1.7571533203124998
1.7458740234374999
1.7184814453125
1.722509765625
1.699951171875
1.59521484375
1.2697265624999998
1.9360107421875
2.0044921875
2.0568603515625
2.1857666015625
2.0898925781249997
2.3452880859375
1.8087158203125
1.5283447265624999
1.4308593749999998
1.3905761718749998
1.3583496093749998
1.361572265625
1.3502929687499998
1.3494873046875
1.345458984375
1.3551269531249999
1.3954101562499999
1.4074951171874999
1.413134765625
1.426025390625
1.803076171875
1.3059814453124998
1.1786865234375
1.1150390625
1.0401123046875
0.9796874999999999
1.0248046874999999
1.139208984375
1.3333740234375
1.5162597656249999
1.6306640625
1.6773925781249999
1.7128417968749998
1.764404296875
1.76279296875
1.7619873046874999
1.7378173828124999
1.7362060546875
1.7176757812499999
1.7047851562499998
1.635498046875
1.2310546875
1.8369140625
2.0101318359375
2.0568603515625
2.0657226562499997
1.993212890625
2.2880859375
2.096337890625
1.6765869140624998
1.4501953125
1.3865478515624998
1.3688232421875
1.3639892578125
1.3510986328124999
1.329345703125
1.3301513671874998
1.332568359375
1.3954101562499999
1.4026611328124998
1.4228027343749998
1.4187744140624998
1.828857421875
1.348681640625
1.190771484375
1.1384033203125
1.084423828125
1.0046630859374999
0.894287109375
1.1053710937499999
1.30517578125
1.49853515625
1.5879638671874998
1.667724609375
1.7176757812499999
1.7740722656249999
1.77890625
1.76279296875
1.764404296875
1.7297607421874999
1.7047851562499998
1.6806152343749998
1.6685302734374998
1.22138671875
1.8022705078124999
2.002880859375
2.01416015625
2.0633056640625
1.9432617187499999
2.18173828125
2.096337890625
1.667724609375
1.4816162109375
1.405078125
1.348681640625
1.33740234375
1.3382080078124998
1.340625
1.3478759765625
1.364794921875
1.393798828125
1.405078125
1.426025390625
1.416357421875
1.7942138671874999
1.554931640625
1.2238037109375
1.142431640625
1.0739501953125
1.164990234375
0.9385986328125
1.0707275390625
1.252001953125
1.4356933593749999
1.5944091796875
1.65966796875
1.690283203125
1.767626953125
1.7595703125
1.7595703125
1.7635986328125
1.7313720703125
1.7015624999999999
1.6943115234375
1.6717529296875
1.252001953125
1.5670166015625
1.9867675781249998
2.0278564453125
2.0955322265625
2.1422607421874997
2.08505859375
2.2953369140624997
1.8344970703124999
1.5202880859374999
1.4139404296875
1.3720458984375
1.3478759765625
1.3285400390625
1.3414306640625
1.3470703124999999
1.3607666015625
1.3833251953124999
1.3897705078125
1.3929931640625
1.4010498046875
1.5243164062499999
1.603271484375
1.2374999999999998
1.148876953125
1.087646484375
1.119873046875
1.1110107421875
1.0675048828125
1.22783203125
1.3962158203125
1.5476806640624998
1.6363037109374998
1.6733642578124999
1.7249267578124998
1.7716552734375
1.7692382812499998
1.7474853515625
1.73056640625
1.7217041015624999
1.7039794921875
1.6886718749999998
1.5984375
1.5009521484375
1.948095703125
2.0044921875
2.0818359374999997
2.180126953125
2.0649169921875
2.3323974609375
1.9053955078125
1.6056884765625
1.4501953125
1.364794921875
1.3559326171875
1.3543212890624998
1.3720458984375
1.351904296875
1.3510986328124999
1.3688232421875
1.3784912109374998
1.3946044921874998
1.4115234374999999
1.456640625
1.828857421875
1.3180664062499998
1.139208984375
1.1053710937499999
1.042529296875
1.1045654296875
1.0288330078124999
1.1657958984374999
1.332568359375
1.5597656249999998
1.635498046875
1.6830322265625
1.719287109375
1.7619873046874999
1.75634765625
1.7370117187499998
1.7539306640624999
1.7337890624999999
1.716064453125
1.7007568359374998
1.6306640625
1.2310546875
1.9456787109375
2.0052978515624997
2.047998046875
2.0576660156249997
2.126953125
2.3839599609374997
1.973876953125
1.5573486328125
1.4373046875
1.3833251953124999
1.3551269531249999
1.3422363281249998
1.3341796874999998
1.327734375
1.340625
1.3664062499999998
1.400244140625
1.4115234374999999
1.4300537109375
1.4348876953124998
1.8707519531249999
1.3494873046875
1.174658203125
1.1367919921875
1.1029541015625
1.02802734375
0.8991210937499999
1.1319580078125
1.3027587890624999
1.4928955078125
1.603271484375
1.683837890625
1.7249267578124998
1.7668212890625
1.7716552734375
1.7499023437499999
1.7507080078125
1.706396484375
1.6967285156249998
1.706396484375
1.690283203125
1.21494140625
1.8143554687499999
2.0093261718749997
2.04638671875
2.064111328125
1.9376220703125
2.33642578125
2.0697509765624997
1.6556396484375
1.4840332031249999
1.3833251953124999
1.3591552734374999
1.3712402343749999
1.3502929687499998
1.3583496093749998
1.353515625
1.3446533203125
1.3792968749999999
1.3873535156249999
1.4074951171874999
1.4171630859375
1.8199951171875
1.525927734375
1.1819091796874999
1.1464599609375
1.0787841796875
1.08603515625
0.9160400390625
1.094091796875
1.2262207031249999
1.4791992187499998
1.593603515625
1.6636962890625
1.6894775390624999
1.77890625
1.7595703125
1.7531249999999998
1.7362060546875
1.719287109375
1.706396484375
1.69833984375
1.6846435546874998
1.232666015625
1.7571533203124998
1.989990234375
2.0246337890625
2.0971435546875
1.9279541015625
2.0761962890625
2.3315917968749997
1.732177734375
1.5090087890625
1.409912109375
1.353515625
1.3575439453125
1.3390136718749999
1.3664062499999998
1.3631835937499999
1.3462646484374998
1.3744628906249998
1.393798828125
1.4147460937499998
1.40830078125
1.7442626953125
1.5992431640625
1.232666015625
1.1625732421875
1.0828125
1.132763671875
1.090869140625
1.0610595703124999
1.2189697265625
1.40830078125
1.5662109375
1.658056640625
1.699951171875
1.740234375
1.7579589843749999
1.7611816406249998
1.7700439453124999
1.7442626953125
1.7217041015624999
1.69189453125
1.6773925781249999
1.264892578125
1.5154541015624998
1.9625976562499998
2.0343017578125
2.0729736328125
2.1543457031249997
2.0745849609375
2.3082275390625
1.8232177734375
1.5831298828125
1.41796875
1.3712402343749999
1.3599609375
1.3398193359375
1.3583496093749998
1.3575439453125
1.3543212890624998
1.3792968749999999
1.397021484375
1.4107177734374998
1.429248046875
1.4671142578124998
1.8175781249999998
1.2423339843749999
1.168212890625
1.1190673828125
1.0578369140625
1.095703125
0.9901611328125
1.14404296875
1.3913818359374999
1.5766845703124999
1.6459716796875
1.6910888671875
1.7345947265625
1.7660156249999999
1.764404296875
1.7611816406249998
1.7587646484375
1.7152587890625
1.703173828125
1.6822265625
1.6403320312499998
1.4381103515625
1.93359375
2.0052978515624997
2.0520263671875
2.1785156249999997
2.1406494140625
2.3291748046875
1.880419921875
1.56943359375
1.44052734375
1.3720458984375
1.351904296875
1.3510986328124999
1.353515625
1.3390136718749999
1.351904296875
1.3333740234375
1.3881591796875
1.397021484375
1.4115234374999999
1.445361328125
1.867529296875
1.3365966796875
1.174658203125
1.1061767578125
1.0763671875
1.007080078125
1.019970703125
1.116650390625
1.319677734375
1.4961181640624999
1.6314697265625
1.6773925781249999
1.7015624999999999
1.7474853515625
1.7579589843749999
1.7732666015624998
1.7772949218749998
1.7362060546875
1.714453125
1.69189453125
1.6636962890625
1.19560546875
1.799853515625
2.0020751953125
2.0334960937499997
2.0657226562499997
2.1462890624999997
2.3098388671875
2.112451171875
1.690283203125
1.4638916015624999
1.3768798828125
1.3494873046875
1.34384765625
1.3414306640625
1.348681640625
1.3398193359375
1.3527099609375
1.3897705078125
1.40830078125
1.4228027343749998
1.42119140625
1.8183837890624999
1.3752685546874999
1.1923828125
1.148876953125
1.0981201171875
1.06025390625
0.9152343749999999
1.077978515625
1.2987304687499999
1.4759765624999999
1.6040771484374998
1.6773925781249999
1.7055908203124999
1.7692382812499998
1.7781005859374999
1.748291015625
1.7684326171875
1.7442626953125
1.7152587890625
1.6878662109375
1.6636962890625
1.1778808593749999
1.7716552734375
1.9867675781249998
2.022216796875
2.0761962890625
1.9279541015625
2.1728759765625
2.080224609375
1.670947265625
1.493701171875
1.3921875
1.3656005859375
1.361572265625
1.3309570312499999
1.351904296875
1.3599609375
1.3494873046875
1.3833251953124999
1.4034667968749999
1.413134765625
1.4300537109375
1.786962890625
1.5791015625
1.2350830078125
1.1537109374999999
1.0803955078125
1.1617675781249999
0.9434326171874999
1.0803955078125
1.1851318359375
1.368017578125
1.5984375
1.683837890625
1.706396484375
1.7652099609374998
1.7603759765625
1.7587646484375
1.7531249999999998
1.7313720703125
1.7152587890625
1.6967285156249998
1.6822265625
1.2721435546875
1.5162597656249999
1.9835449218749999
2.0197998046875
2.08505859375
1.9376220703125
2.0560546875
2.3243408203125
1.88525390625
1.51787109375
1.4195800781249999
1.3768798828125
1.3623779296874998
1.340625
1.3575439453125
1.34384765625
1.3478759765625
1.368017578125
1.3897705078125
1.4010498046875
1.4074951171874999
1.46630859375
1.6153564453125
1.2439453125
1.1537109374999999
1.0812011718749999
1.0852294921874999
1.0884521484375
1.0481689453125
1.2028564453125
1.3817138671875
1.5460693359375
1.658056640625
1.69189453125
1.7337890624999999
1.7660156249999999
1.7499023437499999
1.7652099609374998
1.7442626953125
1.716064453125
1.6935058593749999
1.67900390625
1.3349853515624999
1.4574462890625
1.941650390625
2.0020751953125
2.0689453125
2.1760986328125
2.1052001953125
2.34931640625
1.8739746093749998
1.5734619140625
1.409912109375
1.3599609375
1.3502929687499998
1.3494873046875
1.361572265625
1.3631835937499999
1.351904296875
1.3672119140624999
1.3857421875
1.3994384765624999
1.4195800781249999
1.4300537109375
1.85625
1.348681640625
1.1738525390624999
1.1206787109375
1.0691162109374999
1.0900634765625
0.9466552734375
1.1512939453125
1.3148437499999999
1.5533203125
1.6363037109374998
1.683837890625
1.7313720703125
1.754736328125
1.7539306640624999
1.73056640625
1.7652099609374998
1.7281494140625
1.7104248046875
1.6886718749999998
1.6604736328124998
1.2125244140625
1.9190917968749999
2.0036865234375
2.0431640625
2.1390380859375
2.141455078125
2.3388427734375
2.0584716796875
1.587158203125
1.4558349609374999
1.3825195312499998
1.3591552734374999
1.3631835937499999
1.345458984375
1.3502929687499998
1.3478759765625
1.3551269531249999
1.38896484375
1.40185546875
1.4171630859375
1.429248046875
1.8788085937499999
1.368017578125
1.1835205078125
1.11826171875
1.0916748046875
1.0546142578125
0.9152343749999999
1.119873046875
1.3043701171875
1.4783935546875
1.6209960937499999
1.674169921875
1.7152587890625
1.7772949218749998
1.7619873046874999
1.7579589843749999
1.7426513671875
1.716064453125
1.7297607421874999
1.6951171875
1.6798095703125
1.1931884765625
1.7660156249999999
1.98193359375
2.0431640625
2.064111328125
1.9271484374999999
2.2276611328125
2.18173828125
1.732177734375
1.4703369140625
1.397021484375
1.3639892578125
1.361572265625
1.3422363281249998
1.3422363281249998
1.3494873046875
1.340625
1.377685546875
1.3946044921874998
1.4074951171874999
1.4187744140624998
1.7877685546875
1.5654052734375
1.1980224609374999
1.15048828125
1.084423828125
1.1295410156249999
0.9128173828124999
1.0892578124999999
1.216552734375
1.4703369140625
1.5839355468749998
1.6524169921874998
1.699951171875
1.7611816406249998
1.7740722656249999
1.76279296875
1.7700439453124999
1.7378173828124999
1.71123046875
1.6927001953124998
1.674169921875
1.2495849609374998
1.7257324218749999
1.9754882812499999
2.02060546875
2.0729736328125
1.925537109375
2.1213134765625
2.3130615234375
1.687060546875
1.4977294921875
1.4034667968749999
1.35673828125
1.361572265625
1.3382080078124998
1.348681640625
1.3543212890624998
1.361572265625
1.3817138671875
1.3994384765624999
1.4147460937499998
1.4203857421875
1.7362060546875
1.6161621093749998
1.2463623046874999
1.155322265625
1.0707275390625
1.1061767578125
1.1126220703125
1.06025390625
1.2157470703125
1.397021484375
1.59521484375
1.6508056640625
1.687060546875
1.74345703125
1.7571533203124998
1.748291015625
1.7507080078125
1.738623046875
1.716064453125
1.699951171875
1.6814208984374999
1.30517578125
1.474365234375
1.9279541015625
2.015771484375
2.070556640625
2.18173828125
2.0842529296875
2.321923828125
1.8361083984375
1.5082031249999999
1.4155517578124999
1.36962890625
1.3510986328124999
1.3462646484374998
1.3688232421875
1.3575439453125
1.3390136718749999
1.3599609375
1.3865478515624998
1.409912109375
1.4219970703125
1.4461669921875
1.8361083984375
1.2640869140625
1.174658203125
1.1206787109375
1.0578369140625
1.1061767578125
1.036083984375
1.1287353515625
1.377685546875
1.5396240234374998
1.622607421875
1.6822265625
1.7257324218749999
1.7611816406249998
1.7595703125
1.751513671875
1.7410400390624998
1.7120361328125
1.6951171875
1.6773925781249999
1.662890625
1.4058837890625
1.9150634765624999
1.9916015624999999
2.067333984375
2.144677734375
2.126953125
2.27197265625
1.9400390625
1.6185791015625
1.4711425781249998
1.3881591796875
1.3672119140624999
1.3656005859375
1.3591552734374999
1.3543212890624998
1.3591552734374999
1.348681640625
1.3849365234375
1.397021484375
1.4147460937499998
1.4268310546874998
1.85625
1.364794921875
1.1794921875
1.1190673828125
1.0997314453125
1.045751953125
0.9724365234375
1.1432373046875
1.3059814453124998
1.5283447265624999
1.6137451171875
1.6733642578124999
1.6910888671875
1.7531249999999998
1.754736328125
1.7507080078125
1.7619873046874999
1.7047851562499998
1.703173828125
1.6822265625
1.6717529296875
1.203662109375
1.7748779296875
1.9891845703125
2.0254394531249997
2.0568603515625
2.14306640625
2.2993652343749997
2.099560546875
1.6056884765625
1.4590576171874998
1.3881591796875
1.3591552734374999
1.3623779296874998
1.3430419921874999
1.3502929687499998
1.35673828125
1.3664062499999998
1.3825195312499998
1.405078125
1.4091064453125
1.4203857421875
1.7853515624999998
1.3962158203125
1.2028564453125
1.1480712890625
1.1053710937499999
1.110205078125
0.9490722656249999
1.0489746093749999
1.297119140625
1.4832275390624998
1.5968261718749999
1.6733642578124999
1.6943115234375
1.7603759765625
1.7507080078125
1.7426513671875
1.7611816406249998
1.7362060546875
1.7168701171874998
1.687060546875
1.67578125
1.1851318359375
1.72734375
1.9762939453125
2.018994140625
2.0616943359374997
1.9352050781249999
2.064111328125
2.17529296875
1.735400390625
1.513037109375
1.40185546875
1.353515625
1.3639892578125
1.3422363281249998
1.348681640625
1.3502929687499998
1.34384765625
1.3784912109374998
1.3905761718749998
1.40185546875
1.4300537109375
1.7619873046874999
1.60166015625
1.2044677734375
1.1464599609375
1.0820068359375
1.1190673828125
0.9418212890625
1.07958984375
1.22138671875
1.4550292968749998
1.585546875
1.6443603515624998
1.6862548828125
1.7555419921875
1.7555419921875
1.7595703125
1.7539306640624999
1.735400390625
1.714453125
1.69833984375
1.6830322265625
1.316455078125
1.4687255859375
1.972265625
2.0133544921874997
2.0818359374999997
1.9617919921875
2.0278564453125
2.3178955078125
1.791796875
1.5243164062499999
1.4236083984374999
1.380908203125
1.361572265625
1.340625
1.3607666015625
1.3478759765625
1.345458984375
1.3607666015625
1.3913818359374999
1.4010498046875
1.4147460937499998
1.448583984375
1.6322753906249998
1.24072265625
1.1561279296875
1.0707275390625
1.0530029296874999
1.09248046875
0.974853515625
1.213330078125
1.3905761718749998
1.5484863281249999
1.65966796875
1.69189453125
1.7257324218749999
1.7499023437499999
1.7579589843749999
1.7499023437499999
1.75634765625
1.7096191406249999
1.6886718749999998
1.6846435546874998
1.3688232421875
1.4219970703125
1.93359375
2.0214111328124997
2.0713623046875
2.160791015625
2.1205078125
2.3396484374999997
1.8731689453125
1.5895751953125
1.4187744140624998
1.368017578125
1.3494873046875
1.3341796874999998
1.3478759765625
1.3470703124999999
1.353515625
1.3704345703124998
1.38896484375
1.405078125
1.4195800781249999
1.432470703125
1.8570556640625
1.264892578125
1.1593505859375
1.1045654296875
1.0892578124999999
1.09248046875
0.9482666015625
1.1384033203125
1.3768798828125
1.5444580078124999
1.622607421875
1.6822265625
1.7281494140625
1.7603759765625
1.7579589843749999
1.7499023437499999
1.7660156249999999
1.732177734375
1.7007568359374998
1.6781982421875
1.667724609375
1.200439453125
1.9150634765624999
1.9956298828124999
2.0375244140624997
2.1342041015624997
2.1599853515625
2.241357421875
1.977099609375
1.619384765625
1.4622802734375
1.3865478515624998
1.351904296875
1.35673828125
1.3446533203125
1.3551269531249999
1.3583496093749998
1.3390136718749999
1.380908203125
1.3897705078125
1.4107177734374998
1.4276367187499999
1.8820312499999998
1.3857421875
1.18916015625
1.1303466796875
1.0916748046875
1.0739501953125
0.9603515625
1.1190673828125
1.297119140625
1.4791992187499998
1.6234130859375
1.6806152343749998
1.7072021484375
1.7724609375
1.75634765625
1.7539306640624999
1.74345703125
1.7200927734375
1.7176757812499999
1.7015624999999999
1.674169921875
1.187548828125
1.751513671875
1.9988525390624998
2.0334960937499997
2.0713623046875
1.9327880859375
2.244580078125
2.1889892578125
1.7249267578124998
1.4638916015624999
1.4034667968749999
1.3551269531249999
1.353515625
1.3365966796875
1.3470703124999999
1.3462646484374998
1.3462646484374998
1.3728515625
1.3962158203125
1.4074951171874999
1.4123291015625
1.764404296875
1.4123291015625
1.1996337890625
1.1666015625
1.0771728515624999
1.1448486328125
0.961962890625
1.0376953125
1.2906738281249999
1.4703369140625
1.5976318359375
1.6540283203125
1.6927001953124998
1.7587646484375
1.7531249999999998
1.7442626953125
1.7579589843749999
1.7378173828124999
1.7136474609374999
1.6935058593749999
1.670947265625
1.2769775390625
1.7184814453125
1.977099609375
2.02060546875
2.0713623046875
1.9424560546874998
2.0761962890625
2.1624023437499997
1.7088134765624998
1.5082031249999999
1.4171630859375
1.3664062499999998
1.35673828125
1.33740234375
1.3430419921874999
1.3543212890624998
1.3583496093749998
1.3849365234375
1.397021484375
1.4091064453125
1.4147460937499998
1.7249267578124998
1.6072998046875
1.2447509765625
1.1593505859375
1.0707275390625
1.0884521484375
0.9949951171875
1.03447265625
1.222998046875
1.4026611328124998
1.5919921874999998
1.66611328125
1.6886718749999998
1.7523193359375
1.7587646484375
1.7571533203124998
1.754736328125
1.73056640625
1.7208984374999998
1.7007568359374998
1.6798095703125
1.351904296875
1.4703369140625
1.96904296875
2.0149658203125
2.07216796875
2.1760986328125
2.023828125
2.312255859375
1.9053955078125
1.5355957031249998
1.4276367187499999
1.3825195312499998
1.3672119140624999
1.3502929687499998
1.353515625
1.34384765625
1.3422363281249998
1.351904296875
1.3881591796875
1.4010498046875
1.4147460937499998
1.442138671875
1.658056640625
1.24716796875
1.1545166015625
1.11826171875
1.039306640625
1.1013427734374999
1.0111083984375
1.18916015625
1.3817138671875
1.53720703125
1.6435546875
1.6830322265625
1.7249267578124998
1.7587646484375
1.751513671875
1.7595703125
1.7474853515625
1.7055908203124999
1.6967285156249998
1.6806152343749998
1.651611328125
1.4091064453125
1.9215087890625
2.0069091796875
2.0842529296875
2.1422607421874997
2.1406494140625
2.3001708984375
1.8989501953124999
1.5927978515624999
1.461474609375
1.3768798828125
1.3591552734374999
1.340625
1.3462646484374998
1.348681640625
1.3470703124999999
1.3639892578125
1.393798828125
1.3946044921874998
1.4042724609375
1.426025390625
1.851416015625
1.3575439453125
1.1690185546875
1.1279296875
1.100537109375
1.0481689453125
0.9555175781249999
1.1529052734375
1.3148437499999999
1.538818359375
1.6201904296874998
1.66611328125
1.7015624999999999
1.7668212890625
1.7611816406249998
1.7426513671875
1.7724609375
1.7233154296875
1.7080078125
1.6910888671875
1.6765869140624998
1.20849609375
1.7797119140625
1.9956298828124999
2.0262451171875
2.067333984375
2.15595703125
2.309033203125
2.07861328125
1.5976318359375
1.4558349609374999
1.393798828125
1.361572265625
1.348681640625
1.345458984375
1.34384765625
1.3494873046875
1.3494873046875
1.3768798828125
1.397021484375
1.413134765625
1.4219970703125
1.7909912109375
1.380908203125
1.1802978515625
1.1464599609375
1.1110107421875
1.11181640625
0.9313476562499999
1.1464599609375
1.300341796875
1.480810546875
1.59521484375
1.6798095703125
1.7007568359374998
1.7595703125
1.7603759765625
1.7587646484375
1.7523193359375
1.7176757812499999
1.7072021484375
1.6943115234375
1.6733642578124999
1.203662109375
1.754736328125
1.993212890625
2.0375244140624997
2.07861328125
1.9303710937499998
2.0584716796875
2.193017578125
1.735400390625
1.506591796875
1.3857421875
1.3527099609375
1.3543212890624998
1.345458984375
1.3430419921874999
1.35673828125
1.3462646484374998
1.3873535156249999
1.3873535156249999
1.397021484375
1.4147460937499998
1.7579589843749999
1.5960205078124998
1.18916015625
1.14404296875
1.0763671875
1.0997314453125
0.926513671875
1.0763671875
1.21171875
1.47275390625
1.5839355468749998
1.654833984375
1.6935058593749999
1.7571533203124998
1.7635986328125
1.7531249999999998
1.7619873046874999
1.7442626953125
1.714453125
1.69833984375
1.6781982421875
1.2995361328125
1.490478515625
1.9891845703125
2.0230224609375
2.0794189453125
1.960986328125
2.038330078125
2.3436767578124997
1.7289550781249998
1.509814453125
1.4074951171874999
1.3744628906249998
1.3672119140624999
1.33740234375
1.3559326171875
1.3398193359375
1.35673828125
1.364794921875
1.38896484375
1.3978271484375
1.4139404296875
1.4477783203124999
1.65
1.2479736328125
1.158544921875
1.0731445312499999
1.0481689453125
1.1150390625
1.0119140625
1.2109130859375
1.4026611328124998
1.5597656249999998
1.6556396484375
1.6910888671875
1.732177734375
1.7611816406249998
1.7426513671875
1.75634765625
1.7603759765625
1.7184814453125
1.6935058593749999
1.6765869140624998
1.3744628906249998
1.4300537109375
1.9392333984374999
2.028662109375
2.080224609375
2.1551513671875
2.131787109375
2.3267578125
1.8828369140624999
1.5831298828125
1.4276367187499999
1.3672119140624999
1.3551269531249999
1.3422363281249998
1.348681640625
1.3502929687499998
1.3543212890624998
1.3559326171875
1.3865478515624998
1.38896484375
1.400244140625
1.4139404296875
1.8522216796875
1.26328125
1.164990234375
1.1174560546874999
1.0892578124999999
1.106982421875
0.9949951171875
1.132763671875
1.36962890625
1.5323730468749999
1.6290527343749999
1.6765869140624998
1.719287109375
1.7668212890625
1.7523193359375
1.7539306640624999
1.7571533203124998
1.73056640625
1.722509765625
1.6967285156249998
1.6669189453125
1.200439453125
1.9062011718749998
2.0036865234375
2.0294677734374997
2.1140624999999997
2.1591796875
2.2373291015625
1.9811279296875
1.625830078125
1.4598632812499999
1.3962158203125
1.351904296875
1.3527099609375
1.3422363281249998
1.3414306640625
1.3478759765625
1.340625
1.3817138671875
1.397021484375
1.4091064453125
1.4171630859375
1.844970703125
1.3704345703124998
1.18916015625
1.1255126953124999
1.106982421875
1.087646484375
0.9402099609375
1.1480712890625
1.2995361328125
1.4888671875
1.6234130859375
1.667724609375
1.7015624999999999
1.770849609375
1.7619873046874999
1.7603759765625
1.7684326171875
1.7152587890625
1.7152587890625
1.706396484375
1.6765869140624998
1.19560546875
1.7507080078125
1.9996582031249999
2.028662109375
2.0713623046875
1.9311767578124999
2.3138671875
2.1261474609374997
1.6886718749999998
1.4630859374999998
1.3881591796875
1.348681640625
1.351904296875
1.3390136718749999
1.3470703124999999
1.351904296875
1.3672119140624999
1.38896484375
1.3986328124999998
1.40830078125
1.426025390625
1.7531249999999998
1.405078125
1.1899658203124999
1.1464599609375
1.0755615234375
1.148876953125
0.9772705078124999
1.039306640625
1.2914794921875
1.4767822265625
1.5984375
1.6564453124999998
1.7007568359374998
1.7531249999999998
1.7668212890625
1.754736328125
1.7595703125
1.7370117187499998
1.716064453125
1.6935058593749999
1.670947265625
1.2769775390625
1.7265380859375
1.989990234375
2.0488037109375
2.083447265625
1.9569580078125
2.07861328125
2.16884765625
1.7047851562499998
1.4977294921875
1.41796875
1.351904296875
1.361572265625
1.340625
1.3382080078124998
1.3510986328124999
1.34384765625
1.36962890625
1.3946044921874998
1.4042724609375
1.413134765625
1.7104248046875
1.6121337890624998
1.2302490234374999
1.1496826171874999
1.0731445312499999
1.0731445312499999
0.9635742187499999
1.100537109375
1.2181640624999999
1.38896484375
1.5887695312499999
1.6564453124999998
1.6822265625
1.7660156249999999
1.7748779296875
1.7652099609374998
1.7507080078125
1.7281494140625
1.7136474609374999
1.7072021484375
1.6798095703125
1.3559326171875
1.4469726562499998
1.9787109374999998
2.0246337890625
2.07861328125
2.17529296875
2.023828125
2.333203125
1.9182861328124998
1.5170654296875
1.4187744140624998
1.3672119140624999
1.348681640625
1.335791015625
1.3559326171875
1.3510986328124999
1.3390136718749999
1.3494873046875
1.3792968749999999
1.4058837890625
1.4187744140624998
1.4373046875
1.6588623046875
1.2334716796875
1.171435546875
1.1279296875
1.036083984375
1.0997314453125
0.97646484375
1.200439453125
1.3825195312499998
1.5533203125
1.6330810546874999
1.6886718749999998
1.72734375
1.7571533203124998
1.7499023437499999
1.7450683593749998
1.7732666015624998
1.7289550781249998
1.6991455078125
1.6854492187499999
1.66611328125
1.4091064453125
1.93681640625
2.0012695312499997
2.0665283203125
2.141455078125
2.1390380859375
2.3404541015625
1.8780029296874998
1.5758789062499998
1.4397216796874999
1.368017578125
1.3446533203125
1.348681640625
1.3494873046875
1.3599609375
1.3502929687499998
1.3672119140624999
1.3978271484375
1.3994384765624999
1.4139404296875
1.4316650390624999
1.8618896484374998
1.36962890625
1.1529052734375
1.103759765625
1.0803955078125
1.07958984375
0.9595458984374999
1.1577392578124999
1.3100097656249998
1.5355957031249998
1.6218017578125
1.6765869140624998
1.7378173828124999
1.7797119140625
1.7603759765625
1.751513671875
1.767626953125
1.7249267578124998
1.703173828125
1.6814208984374999
1.667724609375
1.2060791015624999
1.9102294921874998
1.993212890625
2.0294677734374997
2.0625
2.1599853515625
2.2590820312499997
2.1438720703125
1.6161621093749998
1.4735595703125
1.397021484375
1.351904296875
1.3462646484374998
1.3341796874999998
1.3341796874999998
1.3623779296874998
1.3462646484374998
1.377685546875
1.4066894531249998
1.4155517578124999
1.416357421875
1.8578613281249998
1.3792968749999999
1.1835205078125
1.142431640625
1.1029541015625
1.116650390625
0.91845703125
1.1206787109375
1.2818115234374998
1.46953125
1.5944091796875
1.6749755859375
1.6886718749999998
1.7732666015624998
1.7635986328125
1.7684326171875
1.7426513671875
1.722509765625
1.7120361328125
1.69833984375
1.6798095703125
1.1964111328125
1.7337890624999999
1.98515625
2.0310791015625
2.08505859375
1.93681640625
2.22041015625
2.1978515625
1.7297607421874999
1.5162597656249999
1.3946044921874998
1.3631835937499999
1.353515625
1.3390136718749999
1.345458984375
1.3502929687499998
1.3583496093749998
1.3792968749999999
1.3865478515624998
1.4042724609375
1.4147460937499998
1.7450683593749998
1.5895751953125
1.1802978515625
1.1384033203125
1.0828125
1.1754638671875
0.9772705078124999
1.06669921875
1.232666015625
1.4759765624999999
1.5984375
1.6532226562499999
1.699951171875
1.7652099609374998
1.76279296875
1.75634765625
1.7660156249999999
1.7426513671875
1.7208984374999998
1.6927001953124998
1.6725585937499998
1.2753662109375
1.7200927734375
1.9795166015624999
2.0214111328124997
2.08505859375
1.9601806640625
2.1148681640625
2.296142578125
1.6862548828125
1.4953124999999998
1.4147460937499998
1.3527099609375
1.3559326171875
1.3422363281249998
1.3639892578125
1.35673828125
1.3422363281249998
1.38896484375
1.3978271484375
1.40830078125
1.4139404296875
1.6927001953124998
1.63388671875
1.2423339843749999
1.1545166015625
1.0771728515624999
1.0513916015625
1.1021484375
1.0916748046875
1.1883544921875
1.3905761718749998
1.5404296874999999
1.654833984375
1.6910888671875
1.738623046875
1.7611816406249998
1.7611816406249998
1.76279296875
1.7410400390624998
1.72412109375
1.7080078125
1.6814208984374999
1.34384765625
1.4655029296875
1.9376220703125
2.0181884765625
2.07216796875
2.160791015625
2.0818359374999997
2.3178955078125
1.8361083984375
1.5573486328125
1.40830078125
1.36962890625
1.345458984375
1.3559326171875
1.3470703124999999
1.348681640625
1.348681640625
1.3414306640625
1.3897705078125
1.4034667968749999
1.4228027343749998
1.4348876953124998
1.8409423828125
1.2568359375
1.155322265625
1.1287353515625
1.01513671875
1.06025390625
1.0578369140625
1.1206787109375
1.3672119140624999
1.5347900390625
1.6250244140624999
1.6943115234375
1.7265380859375
1.7684326171875
1.7611816406249998
1.7716552734375
1.7619873046874999
1.7265380859375
1.7047851562499998
1.6846435546874998
1.658056640625
1.4115234374999999
1.9400390625
2.0302734375
2.0439697265625
2.12373046875
2.1470947265625
2.3525390625
1.8280517578125
1.5734619140625
1.4356933593749999
1.3712402343749999
1.351904296875
1.361572265625
1.3494873046875
1.353515625
1.3478759765625
1.3631835937499999
1.3921875
1.400244140625
1.416357421875
1.4268310546874998
1.8522216796875
1.3728515625
1.1947998046875
1.11181640625
1.1053710937499999
1.094091796875
1.0288330078124999
1.1384033203125
1.2955078125
1.4832275390624998
1.6185791015625
1.66611328125
1.6927001953124998
1.7595703125
1.7619873046874999
1.7539306640624999
1.7813232421874998
1.7233154296875
1.714453125
1.7023681640625
1.6773925781249999
1.22138671875
1.7764892578125
2.0036865234375
2.0214111328124997
2.0729736328125
2.1277587890625
2.3662353515625
2.006103515625
1.6435546875
1.4501953125
1.3873535156249999
1.3664062499999998
1.3704345703124998
1.335791015625
1.345458984375
1.3551269531249999
1.3543212890624998
1.377685546875
1.3873535156249999
1.3929931640625
1.4187744140624998
1.7539306640624999
1.42119140625
1.2238037109375
1.184326171875
1.1174560546874999
1.1480712890625
0.9474609374999999
1.0965087890625
1.26328125
1.4590576171874998
1.5895751953125
1.6733642578124999
1.6959228515625
1.7652099609374998
1.76279296875
1.7523193359375
1.7410400390624998
1.7208984374999998
1.7128417968749998
1.7015624999999999
1.6773925781249999
1.2060791015624999
1.7217041015624999
1.9746826171874998
2.0246337890625
2.07861328125
1.9569580078125
2.0415527343749997
2.2034912109375
1.7531249999999998
1.5275390624999998
1.4074951171874999
1.3672119140624999
1.364794921875
1.3478759765625
1.3430419921874999
1.3527099609375
1.3422363281249998
1.3768798828125
1.3913818359374999
1.4066894531249998
1.4171630859375
1.7047851562499998
1.611328125
1.2399169921875
1.148876953125
1.0812011718749999
1.0763671875
0.9837158203124999
1.0739501953125
1.21171875
1.3897705078125
1.577490234375
1.651611328125
1.683837890625
1.7539306640624999
1.7579589843749999
1.7539306640624999
1.7523193359375
1.7426513671875
1.714453125
1.7015624999999999
1.6798095703125
1.351904296875
1.4711425781249998
1.9706542968749998
2.015771484375
2.0681396484375
1.9988525390624998
2.0214111328124997
2.3138671875
1.8578613281249998
1.52109375
1.4187744140624998
1.3784912109374998
1.35673828125
1.345458984375
1.35673828125
1.3543212890624998
1.3559326171875
1.3688232421875
1.3946044921874998
1.40185546875
1.4252197265625
1.4356933593749999
1.66611328125
1.2560302734375
1.16015625
1.0763671875
1.023193359375
1.0997314453125
0.9603515625
1.2173583984375
1.3728515625
1.554931640625
1.6435546875
1.6846435546874998
1.7329833984374998
1.7603759765625
1.7458740234374999
1.7442626953125
1.7619873046874999
1.7233154296875
1.7047851562499998
1.6943115234375
1.4364990234375
1.4074951171874999
1.9263427734374998
1.9948242187499998
2.0568603515625
2.1148681640625
2.144677734375
2.3162841796875
1.9102294921874998
1.5984375
1.4276367187499999
1.36962890625
1.351904296875
1.3599609375
1.3502929687499998
1.3494873046875
1.3470703124999999
1.3510986328124999
1.3792968749999999
1.3986328124999998
1.413134765625
1.4228027343749998
1.8498046874999998
1.3470703124999999
1.1722412109375
1.1279296875
1.094091796875
1.0642822265625
0.9651855468749999
1.1351806640625
1.2995361328125
1.5299560546875
1.6234130859375
1.6773925781249999
1.7249267578124998
1.7660156249999999
1.7571533203124998
1.7595703125
1.7490966796874998
1.7184814453125
1.7080078125
1.6951171875
1.6781982421875
1.197216796875
1.9029785156249999
2.0036865234375
2.0375244140624997
2.083447265625
2.1551513671875
2.205908203125
2.1825439453124997
1.6435546875
1.4711425781249998
1.4034667968749999
1.3502929687499998
1.35673828125
1.345458984375
1.3543212890624998
1.348681640625
1.345458984375
1.3639892578125
1.3857421875
1.397021484375
1.42119140625
1.8626953124999999
1.397021484375
1.2028564453125
1.1287353515625
1.1021484375
1.1416259765624999
0.926513671875
1.1303466796875
1.2818115234374998
1.474365234375
1.6185791015625
1.6830322265625
1.6943115234375
1.7603759765625
1.751513671875
1.7531249999999998
1.7587646484375
1.719287109375
1.7152587890625
1.6910888671875
1.6862548828125
1.2060791015624999
1.7281494140625
1.9754882812499999
2.0294677734374997
2.0858642578124997
1.9464843749999998
2.2623046875
2.1406494140625
1.706396484375
1.482421875
1.40185546875
1.3543212890624998
1.3502929687499998
1.3502929687499998
1.3446533203125
1.348681640625
1.377685546875
1.3865478515624998
1.3954101562499999
1.4107177734374998
1.4195800781249999
1.7176757812499999
1.6072998046875
1.2093017578125
1.142431640625
1.068310546875
1.1819091796874999
0.9966064453125
1.02158203125
1.2205810546875
1.4630859374999998
1.5791015625
1.65
1.6991455078125
1.7579589843749999
1.7611816406249998
1.754736328125
1.7595703125
1.735400390625
1.7152587890625
1.6927001953124998
1.6765869140624998
1.351904296875
1.6781982421875
1.96904296875
2.0117431640625
2.080224609375
1.9762939453125
2.0415527343749997
2.3074218749999997
1.7611816406249998
1.5347900390625
1.4276367187499999
1.36962890625
1.3639892578125
1.3527099609375
1.3430419921874999
1.3494873046875
1.34384765625
1.3543212890624998
1.3897705078125
1.405078125
1.4219970703125
1.6685302734374998
1.6346923828125
1.255224609375
1.155322265625
1.090869140625
1.036083984375
1.100537109375
1.0691162109374999
1.200439453125
1.3825195312499998
1.5678222656249998
1.6508056640625
1.6862548828125
1.7265380859375
1.748291015625
1.7611816406249998
1.7531249999999998
1.7233154296875
1.7152587890625
1.7080078125
1.67578125
1.429248046875
1.4284423828125
1.9247314453125
2.0093261718749997
2.064111328125
2.126953125
2.0044921875
2.2921142578125
1.9585693359374998
1.558154296875
1.442138671875
1.3921875
1.35673828125
1.3462646484374998
1.3398193359375
1.3510986328124999
1.351904296875
1.3494873046875
1.38896484375
1.4139404296875
1.4171630859375
1.4316650390624999
1.832080078125
1.264892578125
1.1706298828125
1.1271240234375
1.013525390625
1.0868408203125
0.9788818359375
1.15693359375
1.3728515625
1.5412353515625
1.61455078125
1.6733642578124999
1.7072021484375
1.7474853515625
1.74345703125
1.7442626953125
1.7700439453124999
1.7176757812499999
1.699951171875
1.683837890625
1.6717529296875
1.3792968749999999
1.9062011718749998
2.0004638671875
2.0471923828125
2.083447265625
2.1229248046875
2.2743896484375
1.9134521484375
1.6185791015625
1.4574462890625
1.3784912109374998
1.3543212890624998
1.3631835937499999
1.3656005859375
1.3664062499999998
1.351904296875
1.3744628906249998
1.3897705078125
1.4074951171874999
1.4244140625
1.4308593749999998
1.8377197265624998
1.3905761718749998
1.1859374999999999
1.1408203125
1.11181640625
1.106982421875
0.9651855468749999
1.1351806640625
1.2930908203125
1.5154541015624998
1.6089111328124999
1.6564453124999998
1.7047851562499998
1.7579589843749999
1.7458740234374999
1.7329833984374998
1.7635986328125
1.716064453125
1.7152587890625
1.6854492187499999
1.6725585937499998
1.2189697265625
1.7200927734375
1.9827392578124998
2.0149658203125
2.0568603515625
2.11728515625
2.183349609375
2.167236328125
1.66611328125
1.49853515625
1.4236083984374999
1.3688232421875
1.3664062499999998
1.348681640625
1.3502929687499998
1.3559326171875
1.345458984375
1.3688232421875
1.3929931640625
1.4123291015625
1.4236083984374999
1.738623046875
1.4244140625
1.2020507812499999
1.1657958984374999
1.0965087890625
1.17626953125
0.95390625
1.0997314453125
1.2826171874999999
1.4574462890625
1.5799072265624998
1.662890625
1.6814208984374999
1.7418457031249999
1.7611816406249998
1.7555419921875
1.7450683593749998
1.72412109375
1.7072021484375
1.6806152343749998
1.6798095703125
1.2318603515625
1.6822265625
1.9593749999999999
2.002880859375
2.0600830078125
1.957763671875
2.018994140625
2.2147705078124997
1.7700439453124999
1.546875
1.4155517578124999
1.37607421875
1.3672119140624999
1.3494873046875
1.3551269531249999
1.3551269531249999
1.351904296875
1.3817138671875
1.397021484375
1.40830078125
1.4228027343749998
1.6814208984374999
1.6322753906249998
1.20849609375
1.15048828125
1.0981201171875
1.069921875
1.0207763671874999
1.0239990234375
1.2221923828124999
1.4679199218749999
1.590380859375
1.6540283203125
1.683837890625
1.7499023437499999
1.7442626953125
1.7345947265625
1.7523193359375
1.7233154296875
1.7096191406249999
1.6967285156249998
1.6854492187499999
1.3978271484375
1.432470703125
1.9384277343749998
1.9996582031249999
2.0471923828125
2.0004638671875
2.01416015625
2.3074218749999997
1.7595703125
1.542041015625
1.4373046875
1.380908203125
1.36962890625
1.353515625
1.364794921875
1.3639892578125
1.3639892578125
1.3664062499999998
1.3897705078125
1.40830078125
1.42119140625
1.432470703125
1.667724609375
1.268115234375
1.1786865234375
1.0997314453125
1.026416015625
1.1077880859375
1.0336669921875
1.2020507812499999
1.3623779296874998
1.52109375
1.6379150390625
1.6822265625
1.7208984374999998
1.7466796875
1.7539306640624999
1.7466796875
1.748291015625
1.71123046875
1.703173828125
1.67900390625
1.4719482421874999
1.3978271484375
1.8868652343749999
2.0004638671875
2.0439697265625
2.102783203125
2.1301757812499997
2.260693359375
1.9779052734375
1.6395263671875
1.4518066406249999
1.3921875
1.3688232421875
1.361572265625
1.3599609375
1.35673828125
1.3664062499999998
1.34384765625
1.3897705078125
1.3954101562499999
1.4123291015625
1.4203857421875
1.8304687499999999
1.2802001953125
1.1786865234375
1.132763671875
1.11181640625
1.0707275390625
0.978076171875
1.1448486328125
1.3575439453125
1.51787109375
1.62744140625
1.6685302734374998
1.7088134765624998
1.7450683593749998
1.75634765625
1.7555419921875
1.7539306640624999
1.7136474609374999
1.6967285156249998
1.6822265625
1.6693359374999999
1.2270263671875
1.8731689453125
1.98515625
2.0149658203125
2.0576660156249997
2.1205078125
2.2349121093749997
1.9754882812499999
1.6346923828125
1.4751708984374998
1.40830078125
1.3631835937499999
1.361572265625
1.353515625
1.353515625
1.3623779296874998
1.3688232421875
1.393798828125
1.397021484375
1.4123291015625
1.4276367187499999
1.8369140625
1.4066894531249998
1.2076904296875
1.1496826171874999
1.1126220703125
1.1593505859375
0.9716308593749999
1.1279296875
1.2987304687499999
1.4687255859375
1.609716796875
1.6612792968749999
1.6854492187499999
1.754736328125
1.7490966796874998
1.7426513671875
1.7531249999999998
1.7168701171874998
1.7104248046875
1.6959228515625
1.6725585937499998
1.213330078125
1.7080078125
1.9843505859375
2.0093261718749997
2.060888671875
1.9343994140624998
2.22041015625
2.1664306640624997
1.7249267578124998
1.4816162109375
1.4066894531249998
1.36962890625
1.3656005859375
1.353515625
1.3559326171875
1.3551269531249999
1.3559326171875
1.3752685546874999
1.3986328124999998
1.4171630859375
1.4252197265625
1.699951171875
1.4461669921875
1.216552734375
1.1641845703125
1.0868408203125
1.20849609375
0.9966064453125
1.08603515625
1.2737548828124998
1.4542236328125
1.5702392578125
1.6459716796875
1.6886718749999998
1.7458740234374999
1.7531249999999998
1.7466796875
1.7450683593749998
1.72412109375
1.7088134765624998
1.6910888671875
1.6830322265625
1.3921875
1.6693359374999999
1.95615234375
1.9940185546875
2.05927734375
1.9891845703125
2.0149658203125
2.231689453125
1.7958251953125
1.5541259765625
1.448583984375
1.3768798828125
1.3672119140624999
1.345458984375
1.361572265625
1.3639892578125
1.345458984375
1.3728515625
1.3954101562499999
1.4074951171874999
1.42119140625
1.6491943359374999
1.64677734375
1.2673095703125
1.16337890625
1.0965087890625
1.0505859375
1.039306640625
1.0489746093749999
