1.316455078125
0.7017333984374999
0.5768554687499999
0.58974609375
1.029638671875
1.3180664062499998
1.4679199218749999
1.5509033203125
1.7015624999999999
1.7176757812499999
1.7539306640624999
1.7990478515625
1.7652099609374998
1.76279296875
1.732177734375
1.7120361328125
0.8789794921874999
0.6574218749999999
1.76279296875
1.948095703125
2.2115478515625
2.23330078125
2.3396484374999997
3.0494384765625
2.2365234375
1.8417480468749998
1.587158203125
1.4590576171874998
1.4091064453125
1.3857421875
1.3591552734374999
1.3575439453125
1.2955078125
1.287451171875
1.3510986328124999
1.3704345703124998
1.384130859375
1.3865478515624998
2.470166015625
1.5009521484375
1.213330078125
0.984521484375
0.5937744140625
0.720263671875
0.6114990234375
0.543017578125
0.8749511718749999
1.2020507812499999
1.4735595703125
1.5573486328125
1.6290527343749999
1.7418457031249999
1.783740234375
1.8361083984375
1.8651123046875
1.7821289062499999
1.7692382812499998
1.74345703125
0.952294921875
0.597802734375
1.6886718749999998
1.96904296875
2.2365234375
2.40732421875
2.6965576171874996
3.0510498046874996
2.4556640625
1.9263427734374998
1.603271484375
1.4719482421874999
1.4115234374999999
1.40185546875
1.3736572265625
1.3583496093749998
1.361572265625
1.2721435546875
1.345458984375
1.3575439453125
1.380908203125
1.377685546875
2.856884765625
1.525927734375
1.2415283203124998
1.0973144531249999
1.04736328125
0.62841796875
0.436669921875
0.50595703125
0.862060546875
1.2060791015624999
1.4155517578124999
1.5557373046874998
1.651611328125
1.7684326171875
1.7700439453124999
1.7845458984375
1.8715576171875
1.770849609375
1.7442626953125
1.7362060546875
1.7055908203124999
0.15791015625
1.6322753906249998
1.915869140625
2.0923095703125
2.296142578125
2.6143798828125
3.05185546875
2.95517578125
2.022216796875
1.683837890625
1.5114257812499998
1.4123291015625
1.4107177734374998
1.3494873046875
1.345458984375
1.3317626953125
1.3317626953125
1.3494873046875
1.37607421875
1.36962890625
1.3720458984375
2.8431884765624997
1.8014648437499998
1.3261230468749998
1.1351806640625
1.0256103515625
1.1021484375
0.39316406249999997
0.5091796875
0.75732421875
1.0812011718749999
1.4123291015625
1.5557373046874998
1.5847412109374999
1.7595703125
1.7652099609374998
1.7660156249999999
1.82080078125
1.770849609375
1.7611816406249998
1.7458740234374999
1.7047851562499998
0.15629882812499998
1.297119140625
1.8240234375
2.0665283203125
2.27841796875
1.8739746093749998
3.05185546875
3.003515625
2.1938232421875
1.714453125
1.5355957031249998
1.4397216796874999
1.4268310546874998
1.3825195312499998
1.340625
1.3551269531249999
1.2947021484374999
1.3212890625
1.3414306640625
1.361572265625
1.3825195312499998
2.3517333984374997
2.2260498046875
1.3253173828125
1.1641845703125
0.9482666015625
1.2455566406249998
0.33515625
0.533349609375
0.6171386718749999
1.0497802734375
1.3285400390625
1.4896728515625
1.5686279296874999
1.74345703125
1.764404296875
1.8095214843749998
1.7877685546875
1.75634765625
1.7611816406249998
1.7370117187499998
1.7047851562499998
0.5873291015625
1.2479736328125
1.799853515625
1.9795166015624999
2.2921142578125
1.941650390625
2.2880859375
3.050244140625
2.3082275390625
1.8377197265624998
1.5911865234375
1.445361328125
1.432470703125
1.3720458984375
1.3414306640625
1.3333740234375
1.2995361328125
1.3309570312499999
1.3462646484374998
1.364794921875
1.380908203125
2.2236328125
2.2824462890625
1.4558349609374999
1.1802978515625
0.9450439453124999
0.7959960937499999
0.8830078124999999
0.5212646484375
0.594580078125
0.926513671875
1.340625
1.4920898437499999
1.5686279296874999
1.683837890625
1.7458740234374999
1.7724609375
1.791796875
1.7901855468749999
1.7660156249999999
1.7490966796874998
1.7088134765624998
0.671923828125
0.77666015625
1.6951171875
2.0085205078125
2.2760009765625
2.640966796875
2.32998046875
3.050244140625
2.4443847656249997
1.8336914062499998
1.5960205078124998
1.4501953125
1.3962158203125
1.3543212890624998
1.3712402343749999
1.3398193359375
1.345458984375
1.3462646484374998
1.3656005859375
1.3688232421875
1.3857421875
1.3946044921874998
2.792431640625
1.477587890625
1.2141357421874999
1.0803955078125
0.71220703125
0.887841796875
0.3053466796875
0.51884765625
0.889453125
1.2455566406249998
1.4308593749999998
1.56943359375
1.6878662109375
1.7531249999999998
1.7652099609374998
1.7700439453124999
1.8304687499999999
1.7740722656249999
1.751513671875
1.73056640625
1.6910888671875
0.67998046875
1.6878662109375
1.9078125
2.11083984375
2.5902099609375
2.647412109375
3.050244140625
2.5845703125
1.989990234375
1.6830322265625
1.4840332031249999
1.41796875
1.4139404296875
1.368017578125
1.348681640625
1.3470703124999999
1.29228515625
1.340625
1.3527099609375
1.3752685546874999
1.3881591796875
2.8319091796875
1.6806152343749998
1.2995361328125
1.0763671875
0.9958007812499999
0.6767578125
0.4318359375
0.5019287109375
0.75732421875
1.1045654296875
1.4276367187499999
1.5517089843749998
1.577490234375
1.7692382812499998
1.7740722656249999
1.7990478515625
1.8280517578125
1.76279296875
1.7555419921875
1.7450683593749998
1.706396484375
0.18691406249999998
1.4356933593749999
1.8925048828125
2.1084228515625
2.2421630859375
2.6748046875
3.0486328124999997
2.94873046875
2.1648193359375
1.6798095703125
1.5243164062499999
1.432470703125
1.4155517578124999
1.3801025390625
1.351904296875
1.3631835937499999
1.3108154296874999
1.3494873046875
1.353515625
1.3704345703124998
1.3817138671875
2.6296874999999997
1.7297607421874999
1.3100097656249998
1.1641845703125
1.0248046874999999
0.8129150390625
0.19094238281249998
0.5260986328125
0.768603515625
1.1093994140624999
1.3639892578125
1.5412353515625
1.5702392578125
1.7619873046874999
1.7982421874999999
1.7724609375
1.8393310546875
1.7926025390625
1.7724609375
1.7418457031249999
1.7023681640625
0.1780517578125
1.4187744140624998
1.8747802734374999
2.04638671875
2.2582763671875
1.85947265625
3.0470214843749996
2.7585937499999997
2.086669921875
1.735400390625
1.4953124999999998
1.4348876953124998
1.4252197265625
1.3333740234375
1.3414306640625
1.3156494140625
1.327734375
1.353515625
1.3656005859375
1.3768798828125
1.3825195312499998
2.53623046875
2.1293701171875
1.416357421875
1.1706298828125
0.9418212890625
1.1722412109375
0.275537109375
0.5502685546875
0.6372802734374999
0.95390625
1.353515625
1.5033691406249998
1.5444580078124999
1.7571533203124998
1.799853515625
1.786962890625
1.812744140625
1.7724609375
1.7587646484375
1.735400390625
1.7080078125
0.3182373046875
0.992578125
1.8369140625
2.0133544921874997
2.3082275390625
1.869140625
2.5450927734374997
3.0486328124999997
2.3968505859375
1.791796875
1.5782958984375
1.4606689453125
1.4252197265625
1.3688232421875
1.405078125
1.3462646484374998
1.3043701171875
1.340625
1.3470703124999999
1.3736572265625
1.384130859375
1.60166015625
2.165625
1.4332763671875
1.2052734375
0.9410156249999999
1.044140625
0.8040527343749999
0.5736328125
0.620361328125
0.95068359375
1.2689208984375
1.4888671875
1.5589599609375
1.6951171875
1.7603759765625
1.7595703125
1.8111328125
1.7611816406249998
1.7507080078125
1.738623046875
1.7152587890625
0.44553222656249997
0.9192626953124999
1.74345703125
1.9352050781249999
2.3009765625
2.6490234375
2.341259765625
3.0526611328124997
2.4363281249999997
1.9392333984374999
1.5807128906249999
1.4461669921875
1.409912109375
1.3978271484375
1.4123291015625
1.3502929687499998
1.3059814453124998
1.3623779296874998
1.353515625
1.3792968749999999
1.3954101562499999
1.490478515625
2.69091796875
1.5992431640625
1.2076904296875
1.0417236328125
0.8032470703125
0.9402099609375
0.35690917968749997
0.5526855468749999
0.8209716796875
1.281005859375
1.4389160156249998
1.5597656249999998
1.6862548828125
1.754736328125
1.7652099609374998
1.7684326171875
1.812744140625
1.783740234375
1.7692382812499998
1.7208984374999998
1.5243164062499999
0.32468261718749997
1.716064453125
1.9142578124999998
2.15595703125
2.2099365234375
2.43310546875
3.0510498046874996
2.67158203125
1.928759765625
1.6508056640625
1.4945068359375
1.4139404296875
1.413134765625
1.3631835937499999
1.3591552734374999
1.31162109375
1.313232421875
1.36962890625
1.3639892578125
1.3833251953124999
1.384130859375
2.7336181640625
1.6121337890624998
1.2834228515625
1.1480712890625
0.9095947265625
0.51884765625
0.18288574218749998
0.5180419921875
0.8040527343749999
1.14404296875
1.3873535156249999
1.5517089843749998
1.611328125
1.7587646484375
1.7732666015624998
1.8071044921875
1.791796875
1.7660156249999999
1.754736328125
1.7217041015624999
1.703173828125
0.27634277343749997
1.5122314453124999
1.8755859375
2.11083984375
2.2163818359375
2.1793212890625
3.0510498046874996
2.8673583984374997
2.135009765625
1.7507080078125
1.5122314453124999
1.4244140625
1.4389160156249998
1.3736572265625
1.3543212890624998
1.3551269531249999
1.284228515625
1.3623779296874998
1.3607666015625
1.3664062499999998
1.3752685546874999
2.7255615234375
1.9658203125
1.2930908203125
1.147265625
0.9877441406249999
0.5768554687499999
0.18449707031249998
0.5124023437499999
0.684814453125
1.14404296875
1.3833251953124999
1.5251220703125
1.5992431640625
1.7595703125
1.7740722656249999
1.767626953125
1.8119384765625
1.7635986328125
1.7571533203124998
1.7345947265625
1.7128417968749998
0.1699951171875
1.477587890625
1.880419921875
2.05927734375
2.30419921875
2.0278564453125
2.9970703125
3.05185546875
2.1116455078125
1.7442626953125
1.5573486328125
1.4091064453125
1.4373046875
1.361572265625
1.3688232421875
1.3237060546875
1.3269287109374999
1.3591552734374999
1.364794921875
1.3792968749999999
1.3865478515624998
2.69091796875
2.0173828124999997
1.3728515625
1.19560546875
0.9990234375
1.3237060546875
0.7798828124999999
0.515625
0.6598388671875
1.0062744140625
1.3309570312499999
1.513037109375
1.5589599609375
1.706396484375
1.7861572265624999
1.7740722656249999
1.812744140625
1.780517578125
1.764404296875
1.7426513671875
1.7184814453125
0.201416015625
1.094091796875
1.7531249999999998
2.0343017578125
2.3259521484375
2.29775390625
2.921337890625
3.0462158203125
2.2921142578125
1.8602783203125
1.5637939453124998
1.448583984375
1.4276367187499999
1.3688232421875
1.3857421875
1.3639892578125
1.3043701171875
1.3502929687499998
1.348681640625
1.35673828125
1.3825195312499998
1.861083984375
2.4725830078124997
1.3913818359374999
1.1851318359375
0.9933837890624999
1.2665039062499999
0.7355712890624999
0.5857177734375
0.5470458984375
0.9740478515625
1.284228515625
1.4550292968749998
1.5509033203125
1.703173828125
1.7442626953125
1.7740722656249999
1.78857421875
1.7370117187499998
1.7571533203124998
1.7490966796874998
1.7208984374999998
1.0409179687499999
0.562353515625
1.7595703125
1.948095703125
2.209130859375
2.4355224609375
2.21396484375
3.0542724609375
2.3517333984374997
1.893310546875
1.6322753906249998
1.4864501953125
1.40830078125
1.4010498046875
1.3768798828125
1.364794921875
1.3100097656249998
1.26328125
1.3494873046875
1.37607421875
1.3825195312499998
1.3865478515624998
2.5483154296875
1.5525146484374999
1.2318603515625
1.0094970703125
0.61552734375
0.6187499999999999
0.5969970703124999
0.5285156249999999
0.8588378906249999
1.200439453125
1.4558349609374999
1.5573486328125
1.6209960937499999
1.74345703125
1.764404296875
1.76279296875
1.883642578125
1.780517578125
1.7619873046874999
1.74345703125
1.1738525390624999
0.472119140625
1.6306640625
1.9400390625
2.183349609375
2.3098388671875
2.6119628906249996
3.0462158203125
2.5313964843749996
1.9996582031249999
1.6024658203125
1.4735595703125
1.413134765625
1.3752685546874999
1.36962890625
1.364794921875
1.3398193359375
1.30517578125
1.3639892578125
1.3631835937499999
1.3929931640625
1.3865478515624998
2.8593017578124997
1.574267578125
1.26005859375
1.1303466796875
1.03447265625
0.5631591796875
0.2280029296875
0.55107421875
0.829833984375
1.203662109375
1.4074951171874999
1.5331787109375
1.6435546875
1.748291015625
1.7603759765625
1.7507080078125
1.8651123046875
1.7716552734375
1.7571533203124998
1.7281494140625
1.6967285156249998
0.130517578125
1.6242187499999998
1.90458984375
2.0689453125
2.2268554687499997
2.51044921875
3.0470214843749996
2.9785400390624996
2.0439697265625
1.7136474609374999
1.5275390624999998
1.426025390625
1.4332763671875
1.3728515625
1.35673828125
1.3631835937499999
1.287451171875
1.3269287109374999
1.3599609375
1.3752685546874999
1.3897705078125
2.8480224609375
1.8651123046875
1.3398193359375
1.142431640625
1.01513671875
1.2544189453124999
0.33273925781249997
0.4962890625
0.7226806640625
1.0409179687499999
1.3792968749999999
1.5235107421874998
1.5428466796875
1.72412109375
1.7724609375
1.812744140625
1.7853515624999998
1.75634765625
1.7539306640624999
1.7370117187499998
1.7104248046875
0.11037597656249999
1.281005859375
1.8046875
2.0890869140625
2.296142578125
1.925537109375
3.0558837890625
3.02607421875
2.199462890625
1.71123046875
1.533984375
1.4469726562499998
1.4219970703125
1.3865478515624998
1.3551269531249999
1.35673828125
1.3100097656249998
1.3309570312499999
1.35673828125
1.368017578125
1.3752685546874999
2.2437744140625
2.2880859375
1.3543212890624998
1.181103515625
0.9514892578124999
1.3043701171875
0.459228515625
0.533349609375
0.594580078125
1.039306640625
1.340625
1.4953124999999998
1.5702392578125
1.7233154296875
1.7394287109375
1.76279296875
1.8248291015625
1.7877685546875
1.7619873046874999
1.7531249999999998
1.7168701171874998
0.5551025390625
1.2455566406249998
1.7926025390625
1.998046875
2.2486083984375
1.996435546875
2.5241455078125
3.0494384765625
2.1906005859374997
1.7893798828124998
1.5815185546875
1.4316650390624999
1.4195800781249999
1.3704345703124998
1.3978271484375
1.32451171875
1.3365966796875
1.348681640625
1.3631835937499999
1.3728515625
1.3921875
2.11728515625
2.3654296875
1.4993408203124998
1.229443359375
0.9732421874999999
0.7242919921875
0.90556640625
0.5551025390625
0.5679931640625
0.8854248046875
1.2383056640624999
1.4687255859375
1.55009765625
1.6814208984374999
1.7313720703125
1.7595703125
1.7740722656249999
1.835302734375
1.7772949218749998
1.748291015625
1.7313720703125
0.7114013671874999
0.7323486328125
1.69189453125
1.9714599609374999
2.2469970703124997
2.602294921875
2.631298828125
3.050244140625
2.4443847656249997
1.9408447265625
1.6121337890624998
1.4848388671875
1.4252197265625
1.3986328124999998
1.3784912109374998
1.3599609375
1.3494873046875
1.2777832031249998
1.3365966796875
1.3575439453125
1.3825195312499998
1.3857421875
2.8141845703125
1.5114257812499998
1.2286376953125
1.0763671875
1.0014404296875
0.6985107421875
0.604248046875
0.48662109374999996
0.8701171875
1.206884765625
1.4187744140624998
1.538818359375
1.6443603515624998
1.751513671875
1.7587646484375
1.8224121093749999
1.85947265625
1.7893798828124998
1.7507080078125
1.7217041015624999
1.65
0.21511230468749998
1.7168701171874998
1.9343994140624998
2.1245361328125
2.4903076171875
2.695751953125
3.053466796875
2.321923828125
1.8973388671875
1.6185791015625
1.4767822265625
1.4042724609375
1.4155517578124999
1.377685546875
1.3792968749999999
1.3575439453125
1.3382080078124998
1.353515625
1.364794921875
1.393798828125
1.3833251953124999
2.8552734374999997
1.7168701171874998
1.3237060546875
1.1013427734374999
1.055419921875
0.8225830078124999
0.578466796875
0.4890380859375
0.7541015624999999
1.1061767578125
1.4300537109375
1.5331787109375
1.5662109375
1.7531249999999998
1.764404296875
1.7579589843749999
1.835302734375
1.7982421874999999
1.7764892578125
1.7362060546875
1.687060546875
0.17644042968749998
1.432470703125
1.899755859375
2.0778076171874997
2.23974609375
1.8538330078124998
3.0526611328124997
2.6159912109374996
2.0407470703125
1.6379150390625
1.4912841796874998
1.4115234374999999
1.4228027343749998
1.3752685546874999
1.3607666015625
1.3390136718749999
1.3398193359375
1.351904296875
1.3672119140624999
1.3881591796875
1.3857421875
2.56845703125
1.7668212890625
1.33740234375
1.1867431640625
0.9716308593749999
0.992578125
0.3029296875
0.533349609375
0.717041015625
1.0803955078125
1.35673828125
1.4912841796874998
1.5364013671874999
1.7233154296875
1.7829345703125
1.7652099609374998
1.8224121093749999
1.786962890625
1.791796875
1.7861572265624999
1.7394287109375
0.1796630859375
1.416357421875
1.79501953125
2.0093261718749997
2.2711669921874997
1.864306640625
3.050244140625
2.3879882812499997
1.9166748046875
1.6693359374999999
1.5299560546875
1.4300537109375
1.4252197265625
1.3978271484375
1.3527099609375
1.3736572265625
1.3172607421875
1.3704345703124998
1.3704345703124998
1.3857421875
1.405078125
2.5313964843749996
2.17529296875
1.4445556640625
1.18916015625
0.9643798828125
1.003857421875
0.791162109375
0.4189453125
0.60263671875
0.9353759765624999
1.3430419921874999
1.5267333984375
1.5444580078124999
1.67900390625
1.7587646484375
1.799853515625
1.8635009765625
1.783740234375
1.8054931640624998
1.77890625
1.7668212890625
0.27392578125
0.9974121093749999
1.8683349609375
2.038330078125
2.3162841796875
2.6860839843749997
3.0510498046874996
2.3936279296875
1.8602783203125
1.5919921874999998
1.4719482421874999
1.4066894531249998
1.4300537109375
1.3664062499999998
1.4397216796874999
1.397021484375
1.3502929687499998
1.3954101562499999
1.3801025390625
1.3792968749999999
1.4252197265625
1.5355957031249998
2.2518310546875
1.4840332031249999
1.2350830078125
1.0570312499999999
0.9732421874999999
0.833056640625
0.6590332031249999
0.5873291015625
0.91201171875
1.29228515625
1.461474609375
1.5460693359375
1.6508056640625
1.7555419921875
1.7619873046874999
1.786962890625
1.8441650390625
1.8038818359375
1.7652099609374998
1.7233154296875
1.458251953125
0.8628662109374999
1.7168701171874998
1.928759765625
2.270361328125
2.65546875
2.425048828125
3.0478271484375
2.302587890625
1.8884765625
1.6242187499999998
1.4630859374999998
1.4228027343749998
1.4155517578124999
1.41796875
1.3599609375
1.3124267578125
1.3341796874999998
1.3575439453125
1.3817138671875
1.3825195312499998
1.4542236328125
2.7529541015624996
1.609716796875
1.2101074218749999
1.055419921875
0.887841796875
0.9273193359374999
0.51884765625
0.5124023437499999
0.8145263671874999
1.239111328125
1.4236083984374999
1.5404296874999999
1.690283203125
1.7660156249999999
1.7684326171875
1.8006591796875
1.7732666015624998
1.7539306640624999
1.7458740234374999
1.7249267578124998
1.6185791015625
0.26828613281249997
1.493701171875
1.9078125
2.1382324218749997
2.196240234375
2.51044921875
3.0494384765625
2.874609375
1.9827392578124998
1.6830322265625
1.5267333984375
1.44052734375
1.4244140625
1.3833251953124999
1.364794921875
1.3414306640625
1.2890625
1.361572265625
1.3599609375
1.3825195312499998
1.3768798828125
2.7884033203125
1.6556396484375
1.2882568359375
1.1432373046875
0.9579345703125
0.5687988281249999
0.1619384765625
0.5083740234374999
0.8032470703125
1.1464599609375
1.384130859375
1.5509033203125
1.6121337890624998
1.7579589843749999
1.780517578125
1.7571533203124998
1.8135498046874998
1.7499023437499999
1.7362060546875
1.7217041015624999
1.7096191406249999
0.223974609375
1.464697265625
1.8659179687499998
2.1068115234375
2.21396484375
2.03994140625
3.053466796875
2.7577880859375
2.093115234375
1.73056640625
1.4920898437499999
1.426025390625
1.416357421875
1.380908203125
1.353515625
1.3261230468749998
1.351904296875
1.380908203125
1.37607421875
1.3833251953124999
1.3817138671875
2.70703125
2.031884765625
1.3188720703124999
1.1706298828125
0.9958007812499999
1.3309570312499999
0.23686523437499998
0.4922607421875
0.6711181640624999
1.1529052734375
1.3631835937499999
1.509814453125
1.56298828125
1.748291015625
1.7740722656249999
1.767626953125
1.835302734375
1.7692382812499998
1.7619873046874999
1.7337890624999999
1.7055908203124999
0.1538818359375
1.116650390625
1.8385253906249999
2.0343017578125
2.3033935546874997
1.93681640625
2.9495361328125
3.0494384765625
2.1164794921875
1.7499023437499999
1.5597656249999998
1.4445556640625
1.445361328125
1.3865478515624998
1.4010498046875
1.3728515625
1.2987304687499999
1.3583496093749998
1.36962890625
1.377685546875
1.3833251953124999
1.8908935546874999
2.0600830078125
1.3978271484375
1.1931884765625
0.9756591796874999
1.2938964843749998
0.7283203125
0.539794921875
0.6654785156249999
0.9796874999999999
1.27939453125
1.50498046875
1.5283447265624999
1.6959228515625
1.78857421875
1.7926025390625
1.7764892578125
1.73056640625
1.7531249999999998
1.7531249999999998
1.7152587890625
0.2553955078125
1.0248046874999999
1.72412109375
2.022216796875
2.296142578125
2.39443359375
2.1720703125
3.0550781249999996
2.40087890625
1.9198974609375
1.571044921875
1.46630859375
1.43408203125
1.3792968749999999
1.4147460937499998
1.3639892578125
1.3180664062499998
1.3551269531249999
1.348681640625
1.3688232421875
1.377685546875
1.7313720703125
2.553955078125
1.4123291015625
1.200439453125
1.0030517578125
0.6050537109374999
0.8427246093749999
0.5164306640624999
0.554296875
0.9740478515625
1.2850341796875
1.477587890625
1.5645996093749999
1.6854492187499999
1.7370117187499998
1.764404296875
1.815966796875
1.76279296875
1.770849609375
1.7370117187499998
1.7096191406249999
1.2673095703125
0.45761718749999997
1.7168701171874998
1.9384277343749998
2.1825439453124997
2.528173828125
2.2324951171875
3.0478271484375
2.5869873046875
1.88525390625
1.61455078125
1.4703369140625
1.4034667968749999
1.4026611328124998
1.3801025390625
1.335791015625
1.3551269531249999
1.319677734375
1.3817138671875
1.377685546875
1.3873535156249999
1.3865478515624998
2.6119628906249996
1.5686279296874999
1.27294921875
1.01513671875
0.6977050781249999
0.58974609375
0.2215576171875
0.55107421875
0.8370849609375
1.1980224609374999
1.38896484375
1.5355957031249998
1.6532226562499999
1.7507080078125
1.7692382812499998
1.7531249999999998
1.85625
1.77890625
1.7531249999999998
1.7345947265625
1.722509765625
0.40283203125
1.571044921875
1.8876708984375
2.1583740234374997
2.21396484375
2.5257568359375
3.0526611328124997
2.7271728515625
2.0842529296875
1.719287109375
1.5194824218749998
1.41796875
1.4356933593749999
1.3728515625
1.3591552734374999
1.36962890625
1.276171875
1.3430419921874999
1.353515625
1.3744628906249998
1.3704345703124998
2.8617187499999996
1.8626953124999999
1.2834228515625
1.1512939453125
1.045751953125
0.514013671875
0.2876220703125
0.502734375
0.720263671875
1.1480712890625
1.3905761718749998
1.5267333984375
1.61455078125
1.7499023437499999
1.7732666015624998
1.7990478515625
1.7853515624999998
1.7410400390624998
1.751513671875
1.7370117187499998
1.7007568359374998
0.12890625
1.5364013671874999
1.877197265625
2.0625
2.2494140625
2.3638183593749997
2.9261718749999996
3.050244140625
2.147900390625
1.7732666015624998
1.5621826171875
1.4203857421875
1.40830078125
1.3631835937499999
1.3390136718749999
1.368017578125
1.3253173828125
1.3365966796875
1.3631835937499999
1.37607421875
1.3881591796875
2.8319091796875
1.9086181640625
1.3704345703124998
1.1706298828125
1.0078857421875
1.300341796875
0.5534912109375
0.533349609375
0.7162353515625
1.05380859375
1.319677734375
1.513037109375
1.5662109375
1.714453125
1.7668212890625
1.7571533203124998
1.819189453125
1.7692382812499998
1.7595703125
1.7370117187499998
1.7136474609374999
0.1329345703125
1.2101074218749999
1.764404296875
2.0504150390625
2.2953369140624997
1.9956298828124999
3.0510498046874996
3.02607421875
2.2171875
1.8062988281249999
1.538818359375
1.4437499999999999
1.426025390625
1.3768798828125
1.3583496093749998
1.3309570312499999
1.345458984375
1.3768798828125
1.3817138671875
1.3825195312499998
1.380908203125
2.1076171875
2.3501220703125
1.3873535156249999
1.1819091796874999
0.9611572265624999
0.733154296875
0.684814453125
0.4833984375
0.588134765625
1.0086914062499999
1.2979248046874998
1.4687255859375
1.56298828125
1.738623046875
1.7337890624999999
1.7603759765625
1.8054931640624998
1.7652099609374998
1.7579589843749999
1.7426513671875
1.7184814453125
0.7855224609375
0.6993164062499999
1.76279296875
1.9795166015624999
2.2228271484374997
2.1261474609374997
2.2212158203125
3.0486328124999997
2.3315917968749997
1.88525390625
1.6282470703124998
1.4735595703125
1.4252197265625
1.405078125
1.3954101562499999
1.368017578125
1.3108154296874999
1.2890625
1.3510986328124999
1.3607666015625
1.3849365234375
1.364794921875
2.4121582031249997
1.5154541015624998
1.2310546875
0.9796874999999999
0.630029296875
0.8354736328125
0.4487548828125
0.5679931640625
0.8910644531249999
1.2157470703125
1.47275390625
1.5517089843749998
1.6379150390625
1.6967285156249998
1.74345703125
1.8071044921875
1.835302734375
1.7595703125
1.748291015625
1.7249267578124998
0.9982177734375
0.5865234375
1.6588623046875
1.9062011718749998
2.1946289062499997
2.4629150390625
2.6876953125
3.0526611328124997
2.6127685546875
2.0278564453125
1.638720703125
1.4783935546875
1.4284423828125
1.4074951171874999
1.3792968749999999
1.3607666015625
1.3148437499999999
1.2898681640624998
1.351904296875
1.37607421875
1.4026611328124998
1.3873535156249999
2.8689697265625
1.7410400390624998
1.2399169921875
1.0787841796875
1.018359375
0.720263671875
0.270703125
0.54140625
0.75732421875
1.2157470703125
1.4203857421875
1.546875
1.6330810546874999
1.75634765625
1.7724609375
1.7692382812499998
1.8868652343749999
1.7829345703125
1.754736328125
1.7176757812499999
1.7055908203124999
0.15791015625
1.6395263671875
1.8900878906249998
2.0761962890625
2.18818359375
2.6619140624999997
3.05185546875
2.85205078125
2.0036865234375
1.6725585937499998
1.5202880859374999
1.409912109375
1.4276367187499999
1.3736572265625
1.2938964843749998
1.3398193359375
1.3365966796875
1.3551269531249999
1.3744628906249998
1.3849365234375
1.3905761718749998
2.8810546875
1.7764892578125
1.329345703125
1.1770751953125
1.0562255859375
1.0465576171875
0.240087890625
0.523681640625
0.7226806640625
1.055419921875
1.3212890625
1.5275390624999998
1.5654052734375
1.7531249999999998
1.754736328125
1.77568359375
1.796630859375
1.7619873046874999
1.7539306640624999
1.7418457031249999
1.7208984374999998
0.11843261718749999
1.3172607421875
1.7990478515625
2.0520263671875
2.2437744140625
1.832080078125
2.9898193359375
3.04541015625
2.2631103515624997
1.8264404296874999
1.5525146484374999
1.448583984375
1.4469726562499998
1.3946044921874998
1.3631835937499999
1.3583496093749998
1.27294921875
1.3156494140625
1.3527099609375
1.3720458984375
1.3801025390625
2.44921875
2.20751953125
1.3333740234375
1.1923828125
0.9555175781249999
1.187548828125
0.26828613281249997
0.530126953125
0.6098876953125
1.0626708984375
1.3148437499999999
1.4880615234374999
1.5799072265624998
1.7474853515625
1.7619873046874999
1.7595703125
1.791796875
1.7490966796874998
1.7410400390624998
1.7474853515625
1.7233154296875
0.4326416015625
1.2826171874999999
1.803076171875
1.9907958984374998
2.2727783203125
1.8506103515624999
2.408935546875
3.05185546875
2.2260498046875
1.8183837890624999
1.5879638671874998
1.4252197265625
1.4284423828125
1.3462646484374998
1.3994384765624999
1.3422363281249998
1.3583496093749998
1.3946044921874998
1.3639892578125
1.3712402343749999
1.3873535156249999
2.3420654296875
2.2671386718749997
1.4679199218749999
1.2238037109375
0.968408203125
0.9321533203125
0.9547119140625
0.4068603515625
0.6131103515624999
0.9144287109375
1.268115234375
1.4864501953125
1.554931640625
1.670947265625
1.754736328125
1.7523193359375
1.7909912109375
1.7772949218749998
1.7571533203124998
1.7474853515625
1.7200927734375
0.5712158203125
0.8096923828125
1.6910888671875
1.980322265625
2.2590820312499997
2.6627197265625
2.3404541015625
3.0510498046874996
2.4468017578125
1.94970703125
1.60166015625
1.4912841796874998
1.426025390625
1.3656005859375
1.3897705078125
1.35673828125
1.303564453125
1.348681640625
1.353515625
1.3672119140624999
1.3801025390625
1.426025390625
2.779541015625
1.4920898437499999
1.203662109375
1.071533203125
0.9095947265625
0.9249023437499999
0.443115234375
0.5244873046874999
0.9031494140624999
1.2270263671875
1.4284423828125
1.5444580078124999
1.6717529296875
1.7208984374999998
1.735400390625
1.7990478515625
1.7982421874999999
1.77568359375
1.738623046875
1.7184814453125
1.658056640625
0.2384765625
1.6886718749999998
1.8812255859375
2.1084228515625
2.618408203125
2.5418701171875
3.0550781249999996
2.642578125
2.0471923828125
1.7088134765624998
1.533984375
1.4074951171874999
1.4147460937499998
1.380908203125
1.3631835937499999
1.3527099609375
1.3140380859374998
1.3462646484374998
1.3527099609375
1.3656005859375
1.3720458984375
2.8206298828125
1.674169921875
1.3011474609375
1.0803955078125
0.9974121093749999
0.580078125
0.38671875
0.51884765625
0.7855224609375
1.119873046875
1.41796875
1.533984375
1.6008544921874999
1.748291015625
1.764404296875
1.76279296875
1.7974365234374998
1.7458740234374999
1.7450683593749998
1.7507080078125
1.6975341796874999
0.1957763671875
1.4389160156249998
1.8900878906249998
2.102783203125
2.1889892578125
1.9835449218749999
3.0470214843749996
2.8673583984374997
2.1333984375
1.6935058593749999
1.4977294921875
1.4308593749999998
1.40830078125
1.36962890625
1.3478759765625
1.327734375
1.353515625
1.3849365234375
1.3712402343749999
1.3833251953124999
1.3881591796875
2.6925292968749996
1.7055908203124999
1.3180664062499998
1.18271484375
0.9949951171875
0.7146240234375
0.2255859375
0.5115966796875
0.768603515625
1.123095703125
1.3527099609375
1.5090087890625
1.5911865234375
1.7579589843749999
1.7732666015624998
1.7490966796874998
1.8143554687499999
1.7660156249999999
1.7499023437499999
1.7345947265625
1.7047851562499998
0.17080078124999998
1.4171630859375
1.8409423828125
2.012548828125
2.2051025390625
1.8820312499999998
3.0075439453125
2.8391601562499997
2.115673828125
1.7668212890625
1.5605712890624999
1.4066894531249998
1.409912109375
1.3728515625
1.3712402343749999
1.380908203125
1.32451171875
1.3688232421875
1.3623779296874998
1.3704345703124998
1.3817138671875
2.6361328124999996
2.0810302734375
1.4187744140624998
1.1899658203124999
0.9885498046875
1.2890625
0.201416015625
0.5365722656249999
0.6292236328124999
0.9579345703125
1.3341796874999998
1.4872558593749998
1.5323730468749999
1.754736328125
1.7821289062499999
1.80791015625
1.7764892578125
1.7370117187499998
1.7474853515625
1.7313720703125
1.7007568359374998
0.2715087890625
1.0288330078124999
1.832080078125
2.0294677734374997
2.289697265625
2.4532470703125
2.5467041015625
3.05185546875
2.4242431640624997
1.8151611328125
1.5887695312499999
1.4477783203124999
1.4332763671875
1.3962158203125
1.4348876953124998
1.3768798828125
1.3043701171875
1.3599609375
1.3462646484374998
1.3801025390625
1.3825195312499998
1.67900390625
2.1591796875
1.4429443359374998
1.206884765625
1.00224609375
1.1666015625
0.8902587890625
0.5051513671875
0.62197265625
0.945849609375
1.276171875
1.4598632812499999
1.56298828125
1.6927001953124998
1.72734375
1.7555419921875
1.8095214843749998
1.7732666015624998
1.7724609375
1.7458740234374999
1.7233154296875
1.2616699218749998
0.952294921875
1.714453125
1.920703125
2.2985595703125
2.5450927734374997
2.2776123046875
3.0478271484375
2.3211181640625
1.867529296875
1.6000488281249998
1.4800048828124999
1.416357421875
1.400244140625
1.413134765625
1.33740234375
1.3446533203125
1.4042724609375
1.3833251953124999
1.3897705078125
1.393798828125
1.5734619140625
2.6723876953124996
1.5968261718749999
1.2310546875
1.044140625
0.7226806640625
0.94423828125
0.404443359375
0.5663818359375
0.8193603515625
1.2616699218749998
1.442138671875
1.5565429687499999
1.6894775390624999
1.7378173828124999
1.7426513671875
1.7507080078125
1.77890625
1.7797119140625
1.75634765625
1.7176757812499999
1.4066894531249998
0.3633544921875
1.7039794921875
1.9279541015625
2.1543457031249997
2.204296875
2.3646240234375
3.050244140625
2.7368408203124996
1.9456787109375
1.6620849609375
1.4993408203124998
1.4268310546874998
1.413134765625
1.3792968749999999
1.368017578125
1.361572265625
1.2955078125
1.3559326171875
1.3720458984375
1.3865478515624998
1.393798828125
2.731201171875
1.6121337890624998
1.284228515625
1.1456542968749999
0.80888671875
0.4962890625
0.3158203125
0.514013671875
0.8201660156249999
1.1706298828125
1.3881591796875
1.5476806640624998
1.5807128906249999
1.7474853515625
1.7531249999999998
1.7958251953125
1.7732666015624998
1.748291015625
1.7499023437499999
1.7345947265625
1.7184814453125
0.3037353515625
1.5138427734375
1.8626953124999999
2.1342041015624997
2.17529296875
2.247802734375
3.05185546875
2.8166015625
2.1293701171875
1.7450683593749998
1.5122314453124999
1.4356933593749999
1.429248046875
1.37607421875
1.353515625
1.3792968749999999
1.3349853515624999
1.3768798828125
1.3583496093749998
1.3752685546874999
1.380908203125
2.8166015625
1.95615234375
1.3148437499999999
1.158544921875
1.03447265625
0.5228759765625
0.1554931640625
0.5486572265624999
0.6872314453124999
1.148876953125
1.3768798828125
1.5186767578125
1.5944091796875
1.7337890624999999
1.7595703125
1.7531249999999998
1.82080078125
1.7611816406249998
1.7539306640624999
1.72734375
1.6967285156249998
0.11359863281249999
1.4751708984374998
1.8739746093749998
2.0455810546874997
2.2824462890625
2.093115234375
3.0510498046874996
3.0309082031249996
2.0737792968749997
1.7176757812499999
1.5251220703125
1.4187744140624998
1.43408203125
1.38896484375
1.3978271484375
1.3551269531249999
1.34384765625
1.3720458984375
1.3712402343749999
1.3849365234375
1.3913818359374999
2.7747070312499997
2.0044921875
1.3873535156249999
1.197216796875
1.0159423828125
1.3583496093749998
0.6815917968749999
0.5583251953125
0.6550048828124999
0.992578125
1.3019531249999998
1.4832275390624998
1.542041015625
1.7047851562499998
1.7740722656249999
1.7539306640624999
1.8046875
1.7587646484375
1.7555419921875
1.72734375
1.7080078125
0.13212890624999998
1.11826171875
1.732177734375
2.03671875
2.302587890625
2.1849609375
2.8560791015625
3.0566894531249997
2.325146484375
1.8659179687499998
1.5637939453124998
1.4518066406249999
1.42119140625
1.384130859375
1.397021484375
1.3494873046875
1.2963134765625
1.3631835937499999
1.3623779296874998
1.36962890625
1.3801025390625
1.9472900390624999
2.473388671875
1.409912109375
1.2173583984375
0.9877441406249999
0.6082763671875
0.7194580078124999
0.549462890625
0.559130859375
0.9917724609374999
1.300341796875
1.4526123046875
1.5541259765625
1.67900390625
1.7088134765624998
1.7595703125
1.8071044921875
1.751513671875
1.76279296875
1.7378173828124999
1.72412109375
0.9772705078124999
0.5293212890625
1.7337890624999999
1.948095703125
2.2179931640625
2.3323974609375
2.1454833984375
3.050244140625
2.3307861328125
1.8900878906249998
1.6314697265625
1.5025634765625
1.4276367187499999
1.3881591796875
1.3994384765624999
1.3656005859375
1.3229003906249999
1.2906738281249999
1.348681640625
1.3744628906249998
1.393798828125
1.3946044921874998
2.5475097656249996
1.5654052734375
1.2673095703125
1.01513671875
0.6171386718749999
0.7178466796874999
0.3923583984375
0.575244140625
0.8523925781249999
1.2205810546875
1.4655029296875
1.558154296875
1.6435546875
1.7265380859375
1.7579589843749999
1.7539306640624999
1.864306640625
1.7595703125
1.7345947265625
1.72412109375
1.1351806640625
0.485009765625
1.6040771484374998
1.928759765625
2.17529296875
2.3259521484375
2.6337158203124997
3.0542724609375
2.5789306640625
2.0254394531249997
1.6322753906249998
1.4912841796874998
1.4356933593749999
1.4147460937499998
1.380908203125
1.3704345703124998
1.3559326171875
1.2818115234374998
1.368017578125
1.368017578125
1.3792968749999999
1.3784912109374998
2.9011962890625
1.5847412109374999
1.2665039062499999
1.132763671875
1.052197265625
0.620361328125
0.28681640625
0.5019287109375
0.8370849609375
1.1770751953125
1.3929931640625
1.5122314453124999
1.6161621093749998
1.7426513671875
1.7611816406249998
1.8006591796875
1.8224121093749999
1.7442626953125
1.74345703125
1.7217041015624999
1.6894775390624999
0.111181640625
1.5718505859374998
1.8739746093749998
2.0504150390625
2.2405517578125
2.5732910156249997
2.96484375
3.0550781249999996
2.101171875
1.74345703125
1.5541259765625
1.429248046875
1.4244140625
1.4115234374999999
1.3736572265625
1.3752685546874999
1.303564453125
1.3390136718749999
1.351904296875
1.3575439453125
1.36962890625
2.9076416015624997
1.8651123046875
1.3688232421875
1.1537109374999999
1.0505859375
1.190771484375
0.2698974609375
0.5446289062499999
0.734765625
1.071533203125
1.3801025390625
1.5170654296875
1.5509033203125
1.7281494140625
1.7523193359375
1.7539306640624999
1.8119384765625
1.7555419921875
1.7490966796874998
1.7217041015624999
1.690283203125
0.08701171875
1.2262207031249999
1.770849609375
2.0488037109375
2.244580078125
1.8385253906249999
3.0494384765625
3.0397705078125
2.254248046875
1.8006591796875
1.5275390624999998
1.4364990234375
1.413134765625
1.3768798828125
1.3656005859375
1.3559326171875
1.3494873046875
1.3623779296874998
1.3639892578125
1.2955078125
1.397021484375
2.3396484374999997
2.2937255859375
1.3623779296874998
1.1980224609374999
0.9490722656249999
1.2826171874999999
0.5228759765625
0.404443359375
0.623583984375
1.06669921875
1.3204833984375
1.4719482421874999
1.5621826171875
1.7128417968749998
1.7458740234374999
1.754736328125
1.8183837890624999
1.7748779296875
1.7579589843749999
1.7378173828124999
1.703173828125
0.5526855468749999
1.1939941406249999
1.7378173828124999
1.972265625
2.24619140625
1.9182861328124998
2.3557617187499997
3.050244140625
2.2590820312499997
1.843359375
1.6024658203125
1.4598632812499999
1.4348876953124998
1.3849365234375
1.4187744140624998
1.37607421875
1.3059814453124998
1.335791015625
1.3607666015625
1.3712402343749999
1.3921875
2.222021484375
2.3404541015625
1.5041748046874999
1.2399169921875
0.9869384765625
0.8024414062499999
0.9410156249999999
0.5341552734375
0.5937744140625
0.8838134765625
1.2286376953125
1.4526123046875
1.53720703125
1.66611328125
1.7337890624999999
1.7716552734375
1.780517578125
1.7394287109375
1.751513671875
1.748291015625
1.7257324218749999
0.7299316406249999
0.708984375
1.6693359374999999
1.9585693359374998
2.2083251953125
2.578125
2.5201171875
3.0470214843749996
2.6353271484375
2.047998046875
1.638720703125
1.5041748046874999
1.4332763671875
1.3913818359374999
1.397021484375
1.3639892578125
1.348681640625
1.3269287109374999
1.3301513671874998
1.3551269531249999
1.393798828125
1.3881591796875
2.83271484375
1.5323730468749999
1.232666015625
1.0932861328124999
1.00224609375
0.8564208984374999
0.3746337890625
0.52529296875
0.8967041015624999
1.2366943359375
1.4219970703125
1.525927734375
1.6379150390625
1.7418457031249999
1.7474853515625
1.767626953125
1.8417480468749998
1.7700439453124999
1.7410400390624998
1.7200927734375
1.6822265625
0.19013671875
1.654833984375
1.869140625
2.0713623046875
2.5563720703125
2.616796875
3.0494384765625
2.8423828125
1.98515625
1.6765869140624998
1.52109375
1.4139404296875
1.4034667968749999
1.384130859375
1.3656005859375
1.3494873046875
1.3623779296874998
1.3801025390625
1.3672119140624999
1.3825195312499998
1.393798828125
2.8697753906249996
1.7257324218749999
1.3390136718749999
1.1021484375
1.042529296875
0.7234863281249999
0.23203125
0.543017578125
0.765380859375
1.11826171875
1.3929931640625
1.51787109375
1.611328125
1.7571533203124998
1.75634765625
1.751513671875
1.8046875
1.7700439453124999
1.74345703125
1.7418457031249999
1.6927001953124998
0.1506591796875
1.3849365234375
1.8038818359375
2.064111328125
2.19140625
1.899755859375
3.050244140625
2.921337890625
2.157568359375
1.6943115234375
1.5355957031249998
1.448583984375
1.4590576171874998
1.3825195312499998
1.361572265625
1.3664062499999998
1.3067871093749999
1.3510986328124999
1.3736572265625
1.3712402343749999
1.384130859375
2.6691650390625
2.1019775390624997
1.3212890625
1.1899658203124999
0.9974121093749999
0.91845703125
0.2263916015625
0.530126953125
0.6380859375
1.0828125
1.3494873046875
1.49853515625
1.5573486328125
1.7418457031249999
1.7579589843749999
1.7781005859374999
1.7700439453124999
1.7426513671875
1.7378173828124999
1.72412109375
1.6951171875
0.23525390624999998
1.3728515625
1.7990478515625
2.006103515625
2.2236328125
1.828857421875
2.6216308593749997
3.0558837890625
2.204296875
1.8135498046874998
1.5750732421875
1.4364990234375
1.4518066406249999
1.3833251953124999
1.3712402343749999
1.37607421875
1.3075927734375
1.3656005859375
1.3688232421875
1.3744628906249998
1.38896484375
2.5652343749999997
2.157568359375
1.4501953125
1.198828125
0.9974121093749999
1.224609375
0.8838134765625
0.5309326171875
0.6050537109374999
0.9498779296875
1.3688232421875
1.5146484375
1.5621826171875
1.6798095703125
1.7700439453124999
1.7426513671875
1.7958251953125
1.7716552734375
1.7587646484375
1.7281494140625
1.6910888671875
0.233642578125
0.97001953125
1.7168701171874998
2.0109375
2.2792236328124997
2.5144775390625
2.81982421875
3.05185546875
2.3001708984375
1.7700439453124999
1.5718505859374998
1.4759765624999999
1.426025390625
1.3656005859375
1.4155517578124999
1.3510986328124999
1.3543212890624998
1.4034667968749999
1.3784912109374998
1.393798828125
1.4026611328124998
1.6209960937499999
2.6546630859375
1.4711425781249998
1.2302490234374999
1.0489746093749999
1.123095703125
0.9651855468749999
0.5035400390625
0.5478515625
0.9434326171874999
1.26328125
1.4373046875
1.5444580078124999
1.687060546875
1.7378173828124999
1.7466796875
1.7861572265624999
1.74345703125
1.74345703125
1.7370117187499998
1.716064453125
1.3921875
0.871728515625
1.690283203125
1.8957275390625
2.144677734375
2.5974609374999997
2.305810546875
3.0615234375
2.4677490234375
1.93681640625
1.6685302734374998
1.4816162109375
1.448583984375
1.4228027343749998
1.3913818359374999
1.377685546875
1.35673828125
1.2737548828124998
1.3478759765625
1.36962890625
1.3817138671875
1.37607421875
2.70703125
1.6024658203125
1.2802001953125
1.0578369140625
0.7879394531249999
0.5486572265624999
0.56396484375
0.533349609375
0.8225830078124999
1.1657958984374999
1.4228027343749998
1.53720703125
1.5984375
1.7410400390624998
1.7474853515625
1.7909912109375
1.799853515625
1.7555419921875
1.7410400390624998
1.7200927734375
1.5138427734375
0.29648437499999997
1.506591796875
1.8715576171875
2.11083984375
2.17529296875
2.3742919921875
3.053466796875
2.808544921875
2.1068115234375
1.6588623046875
1.5202880859374999
1.4389160156249998
1.4107177734374998
1.3768798828125
1.36962890625
1.3801025390625
1.335791015625
1.3736572265625
1.3720458984375
1.3962158203125
1.3881591796875
2.856884765625
1.6435546875
1.3204833984375
1.1657958984374999
1.05380859375
0.5099853515625
0.201416015625
0.53173828125
0.8113037109375
1.158544921875
1.384130859375
1.525927734375
1.5968261718749999
1.7249267578124998
1.748291015625
1.7450683593749998
1.8151611328125
1.75634765625
1.748291015625
1.7168701171874998
1.687060546875
0.1039306640625
1.4928955078125
1.8361083984375
2.028662109375
2.167236328125
2.14306640625
3.05185546875
2.73603515625
2.0890869140625
1.7410400390624998
1.5565429687499999
1.4437499999999999
1.4590576171874998
1.3873535156249999
1.37607421875
1.3543212890624998
1.329345703125
1.3905761718749998
1.3801025390625
1.3962158203125
1.3978271484375
2.8166015625
1.989990234375
1.400244140625
1.17626953125
1.045751953125
1.3825195312499998
0.16838378906249998
0.526904296875
0.6759521484375
1.0191650390625
1.3607666015625
1.4977294921875
1.558154296875
1.7490966796874998
1.751513671875
1.7450683593749998
1.7797119140625
1.72734375
1.7410400390624998
1.7329833984374998
1.690283203125
0.13615722656249998
1.1077880859375
1.8336914062499998
2.0149658203125
2.270361328125
2.0600830078125
2.8037109375
3.0494384765625
2.3694580078125
1.780517578125
1.5839355468749998
1.4840332031249999
1.464697265625
1.37607421875
1.3849365234375
1.3672119140624999
1.2963134765625
1.3510986328124999
1.3527099609375
1.3833251953124999
1.3897705078125
2.028662109375
2.0302734375
1.3962158203125
1.2270263671875
1.00224609375
1.4010498046875
0.6582275390625
0.554296875
0.6735351562499999
1.0014404296875
1.3019531249999998
1.4429443359374998
1.5396240234374998
1.69833984375
1.72412109375
1.7611816406249998
1.8022705078124999
1.7329833984374998
1.7426513671875
1.7257324218749999
1.6927001953124998
0.9031494140624999
1.0731445312499999
1.722509765625
1.9311767578124999
2.2776123046875
2.2026855468749997
2.141455078125
3.053466796875
2.3227294921875
1.8602783203125
1.6056884765625
1.464697265625
1.4268310546874998
1.3921875
1.40830078125
1.3688232421875
1.33740234375
1.3825195312499998
1.3744628906249998
1.400244140625
1.3946044921874998
1.87236328125
2.5265625
1.5565429687499999
1.22783203125
1.0127197265624999
0.636474609375
0.8548095703124999
0.388330078125
0.59619140625
0.8805908203124999
1.303564453125
1.4598632812499999
1.554931640625
1.6854492187499999
1.7176757812499999
1.7378173828124999
1.7490966796874998
1.7587646484375
1.7579589843749999
1.7249267578124998
1.6910888671875
1.0449462890624999
0.4962890625
1.6846435546874998
1.9086181640625
2.1599853515625
2.3565673828125
2.1648193359375
3.05185546875
2.5499267578125
1.8780029296874998
1.622607421875
1.4872558593749998
1.4308593749999998
1.4228027343749998
1.3929931640625
1.380908203125
1.319677734375
1.2858398437499998
1.3736572265625
1.3921875
1.4034667968749999
1.4010498046875
2.5885986328125
1.5718505859374998
1.2802001953125
1.1537109374999999
0.6533935546874999
0.7097900390624999
0.3150146484375
0.559130859375
0.8677001953125
1.2125244140625
1.416357421875
1.5476806640624998
1.6306640625
1.735400390625
1.735400390625
1.7724609375
1.8183837890624999
1.7281494140625
1.7257324218749999
1.7104248046875
1.683837890625
0.42216796874999996
1.5927978515624999
1.8570556640625
2.1277587890625
2.25263671875
2.6296874999999997
3.0494384765625
2.70380859375
2.04638671875
1.72734375
1.5090087890625
1.4437499999999999
1.4429443359374998
1.3986328124999998
1.3784912109374998
1.3857421875
1.284228515625
1.3631835937499999
1.3688232421875
1.3978271484375
1.393798828125
2.931005859375
1.8473876953125
1.3011474609375
1.174658203125
1.1029541015625
0.6147216796875
0.3714111328125
0.5099853515625
0.75087890625
1.1786865234375
1.3921875
1.509814453125
1.6056884765625
1.719287109375
1.7370117187499998
1.7297607421874999
1.8385253906249999
1.7313720703125
1.7281494140625
1.7096191406249999
1.6862548828125
0.06606445312499999
1.5355957031249998
1.832080078125
2.018994140625
2.20107421875
2.495947265625
3.050244140625
3.0059326171875
2.0560546875
1.722509765625
1.5380126953125
1.44052734375
1.4630859374999998
1.40830078125
1.3688232421875
1.35673828125
1.3607666015625
1.3744628906249998
1.393798828125
1.393798828125
1.3873535156249999
2.9044189453125
1.915869140625
1.4066894531249998
1.2374999999999998
1.0852294921874999
1.2890625
0.4922607421875
0.533349609375
0.7001220703125
1.0578369140625
1.3333740234375
1.5082031249999999
1.554931640625
1.706396484375
1.7466796875
1.7362060546875
1.7813232421874998
1.7378173828124999
1.740234375
1.714453125
1.6822265625
0.057202148437499996
1.1980224609374999
1.7370117187499998
1.9988525390624998
2.1970458984375
1.8256347656249998
3.0486328124999997
3.0397705078125
2.24619140625
1.8248291015625
1.5525146484374999
1.4630859374999998
1.4598632812499999
1.4147460937499998
1.3784912109374998
1.384130859375
1.3059814453124998
1.3583496093749998
1.37607421875
1.4107177734374998
1.3962158203125
2.3291748046875
2.3638183593749997
1.413134765625
1.2374999999999998
1.0014404296875
1.3849365234375
0.46164550781249997
0.5148193359375
0.6429199218749999
1.0191650390625
1.3148437499999999
1.4638916015624999
1.542041015625
1.7007568359374998
1.7136474609374999
1.764404296875
1.7474853515625
1.7313720703125
1.7394287109375
1.7265380859375
1.703173828125
0.623583984375
1.0973144531249999
1.7128417968749998
1.915869140625
2.193017578125
1.91748046875
2.1777099609375
3.0526611328124997
2.3307861328125
1.877197265625
1.6379150390625
1.4622802734375
1.4389160156249998
1.4203857421875
1.4252197265625
1.3962158203125
1.3599609375
1.3575439453125
1.380908203125
1.397021484375
1.4034667968749999
1.3897705078125
2.4484130859374997
1.5863525390625
1.29228515625
1.0248046874999999
0.78310546875
0.9418212890625
0.49951171875
0.58974609375
0.91201171875
1.2584472656249999
1.46630859375
1.533984375
1.6298583984375
1.6951171875
1.72734375
1.7418457031249999
1.8111328125
1.738623046875
1.7217041015624999
1.6975341796874999
0.6670898437499999
0.5905517578125
1.5927978515624999
1.883642578125
2.144677734375
2.5007812499999997
2.5305908203125
3.0550781249999996
2.46533203125
1.96904296875
1.5976318359375
1.4977294921875
1.4437499999999999
1.405078125
1.413134765625
1.3929931640625
1.377685546875
1.3664062499999998
1.405078125
1.4058837890625
1.413134765625
1.4074951171874999
2.9583984374999996
1.6218017578125
1.3382080078124998
1.1859374999999999
1.1408203125
0.9329589843749999
0.310986328125
0.5647705078124999
0.8789794921874999
1.2189697265625
1.4139404296875
1.5073974609374998
1.63388671875
1.716064453125
1.7176757812499999
1.7313720703125
1.8095214843749998
1.7362060546875
1.714453125
1.69189453125
1.66611328125
0.07009277343749999
1.5218994140625
1.7603759765625
1.9569580078125
2.3565673828125
2.60712890625
3.050244140625
2.6385498046875
2.04638671875
1.7249267578124998
1.5726562499999999
1.4816162109375
1.4920898437499999
1.4356933593749999
1.409912109375
1.4171630859375
1.3478759765625
1.3962158203125
1.4026611328124998
1.409912109375
1.4115234374999999
3.0188232421874996
1.8369140625
1.4252197265625
1.219775390625
1.1794921875
0.9716308593749999
0.404443359375
0.52529296875
0.7613525390625
1.0916748046875
1.37607421875
1.4896728515625
1.5194824218749998
1.7015624999999999
1.699951171875
1.7297607421874999
1.722509765625
1.7055908203124999
1.7007568359374998
1.6894775390624999
1.662890625
0.0475341796875
1.1915771484375
1.716064453125
1.9263427734374998
2.0568603515625
1.6508056640625
2.905224609375
3.0429931640624996
2.280029296875
1.75634765625
1.5927978515624999
1.5017578125
1.4832275390624998
1.4332763671875
1.4228027343749998
1.4268310546874998
1.3736572265625
1.3873535156249999
1.4034667968749999
1.4139404296875
1.4203857421875
2.6723876953124996
1.9279541015625
1.47275390625
1.3180664062499998
1.1021484375
1.1512939453125
0.37060546875
0.517236328125
0.7460449218749999
1.0675048828125
1.316455078125
1.4445556640625
1.51787109375
1.6806152343749998
1.7072021484375
1.6765869140624998
1.75634765625
1.7313720703125
1.7047851562499998
1.6959228515625
1.6564453124999998
0.1716064453125
1.168212890625
1.6524169921874998
1.8336914062499998
2.0649169921875
1.6185791015625
2.5168945312499997
2.9664550781249996
2.2067138671874997
1.82080078125
1.60166015625
1.4896728515625
1.4993408203124998
1.4107177734374998
1.4155517578124999
1.4034667968749999
1.3929931640625
1.4236083984374999
1.413134765625
1.4316650390624999
1.4268310546874998
2.5716796874999996
2.3638183593749997
1.5968261718749999
1.3462646484374998
1.1029541015625
1.2060791015624999
0.485009765625
0.49870605468749996
0.6574218749999999
0.93779296875
1.3083984375
1.4389160156249998
1.4735595703125
1.6830322265625
1.69833984375
1.6927001953124998
1.7426513671875
1.7184814453125
1.71123046875
1.6894775390624999
1.65966796875
0.3182373046875
0.71220703125
1.6153564453125
1.8361083984375
2.118896484375
2.5015869140625
2.2429687499999997
3.050244140625
2.553955078125
1.8659179687499998
1.6459716796875
1.53076171875
1.5041748046874999
1.4308593749999998
1.490478515625
1.432470703125
1.3543212890624998
1.393798828125
1.3905761718749998
1.4139404296875
1.416357421875
1.55009765625
2.4177978515625
1.6169677734374999
1.3502929687499998
1.1786865234375
1.0634765625
1.061865234375
0.5583251953125
0.6195556640625
0.9224853515625
1.2173583984375
1.3865478515624998
1.4945068359375
1.6185791015625
1.6814208984374999
1.6773925781249999
1.7362060546875
1.703173828125
1.7015624999999999
1.6910888671875
1.667724609375
1.5243164062499999
0.6276123046875
1.5275390624999998
1.7289550781249998
2.1060058593749997
2.5410644531249997
2.3066162109375
3.0470214843749996
2.528173828125
2.00771484375
1.7023681640625
1.5243164062499999
1.4719482421874999
1.4767822265625
1.4759765624999999
1.442138671875
1.38896484375
1.40830078125
1.409912109375
1.4155517578124999
1.42119140625
1.4711425781249998
2.9366455078125
1.77568359375
1.361572265625
1.2044677734375
1.068310546875
1.03447265625
0.37705078124999997
0.5937744140625
0.8000244140624999
1.248779296875
1.413134765625
1.5017578125
1.6081054687499998
1.6806152343749998
1.69189453125
1.683837890625
1.764404296875
1.714453125
1.6927001953124998
1.6725585937499998
1.5839355468749998
0.0990966796875
1.5025634765625
1.7015624999999999
1.9231201171874999
2.006103515625
2.37509765625
3.05185546875
2.7892089843749996
1.973876953125
1.6910888671875
1.5799072265624998
1.513037109375
1.5033691406249998
1.4711425781249998
1.4477783203124999
1.40185546875
1.3978271484375
1.4397216796874999
1.4300537109375
1.4364990234375
1.4332763671875
3.0067382812499996
1.8361083984375
1.480810546875
1.368017578125
1.1738525390624999
0.7387939453125
0.26425781249999997
0.580078125
0.7758544921874999
1.0916748046875
1.3059814453124998
1.474365234375
1.53720703125
1.6854492187499999
1.674169921875
1.706396484375
1.703173828125
1.6798095703125
1.6669189453125
1.6604736328124998
1.6475830078125
0.046728515624999994
1.2503906249999999
1.641943359375
1.8683349609375
1.9787109374999998
1.7555419921875
2.6103515625
2.9986816406249996
2.2389404296874997
1.8264404296874999
1.590380859375
1.5218994140625
1.5218994140625
1.4800048828124999
1.4381103515625
1.4461669921875
1.3664062499999998
1.42119140625
1.4115234374999999
1.4316650390624999
1.4300537109375
2.8713867187499997
2.2163818359375
1.4888671875
1.3551269531249999
1.173046875
1.533984375
0.2425048828125
0.5857177734375
0.6888427734375
1.0884521484375
1.30517578125
1.4550292968749998
1.4767822265625
1.670947265625
1.69189453125
1.674169921875
1.7184814453125
1.6717529296875
1.6806152343749998
1.66611328125
1.6491943359374999
0.058813476562499994
0.8322509765624999
1.6266357421875
1.8111328125
2.1003662109375
1.6169677734374999
2.5612060546874997
3.050244140625
2.3485107421875
1.8143554687499999
1.6177734375
1.5146484375
1.5033691406249998
1.4300537109375
1.4920898437499999
1.4171630859375
1.4147460937499998
1.4526123046875
1.4228027343749998
1.432470703125
1.4356933593749999
1.85625
2.286474609375
1.585546875
1.3913818359374999
1.1641845703125
1.458251953125
1.0546142578125
0.42216796874999996
0.6840087890625
0.9555175781249999
1.268115234375
1.4558349609374999
1.477587890625
1.6169677734374999
1.6427490234375
1.6733642578124999
1.72412109375
1.6894775390624999
1.69189453125
1.67578125
1.6572509765624999
0.0829833984375
0.8064697265624999
1.533984375
1.7208984374999998
2.086669921875
2.29775390625
2.028662109375
3.0494384765625
2.3646240234375
1.9295654296875
1.6314697265625
1.53076171875
1.4977294921875
1.4735595703125
1.5025634765625
1.4630859374999998
1.3833251953124999
1.4373046875
1.4139404296875
1.4308593749999998
1.4316650390624999
1.74345703125
2.7964599609375
1.7313720703125
1.3881591796875
1.2076904296875
0.8000244140624999
1.095703125
0.5986083984375
0.5937744140625
0.8443359374999999
1.2366943359375
1.3929931640625
1.4783935546875
1.611328125
1.6564453124999998
1.6765869140624998
1.7104248046875
1.654833984375
1.6854492187499999
1.6830322265625
1.6636962890625
1.3462646484374998
0.19497070312499998
1.5106201171875
1.67900390625
1.9730712890625
2.028662109375
2.0874755859375
3.0494384765625
2.82626953125
1.9956298828124999
1.7096191406249999
1.5734619140625
1.496923828125
1.4783935546875
1.4590576171874998
1.43408203125
1.4066894531249998
1.3736572265625
1.432470703125
1.4284423828125
1.4364990234375
1.4252197265625
2.8738037109374996
1.75634765625
1.4477783203124999
1.3229003906249999
0.9079833984375
0.6614501953124999
0.2747314453125
0.58330078125
0.8354736328125
1.1496826171874999
1.3430419921874999
1.4928955078125
1.5533203125
1.67578125
1.6685302734374998
1.66611328125
1.7490966796874998
1.6959228515625
1.6781982421875
1.6636962890625
1.6105224609375
0.1329345703125
1.400244140625
1.6636962890625
1.920703125
2.002880859375
2.1970458984375
3.0510498046874996
2.719921875
2.093115234375
1.7531249999999998
1.542041015625
1.480810546875
1.496923828125
1.456640625
1.4429443359374998
1.4187744140624998
1.4244140625
1.4671142578124998
1.44052734375
1.4445556640625
1.44052734375
3.0389648437499996
2.0737792968749997
1.4711425781249998
1.329345703125
1.2125244140625
0.6187499999999999
0.32468261718749997
0.549462890625
0.7307373046875
1.1617675781249999
1.3551269531249999
1.4671142578124998
1.574267578125
1.6781982421875
1.6830322265625
1.6717529296875
1.740234375
1.6765869140624998
1.6798095703125
1.66611328125
1.6411376953124999
0.046728515624999994
1.3188720703124999
1.662890625
1.8224121093749999
2.0906982421875
2.0302734375
2.8302978515625
3.0486328124999997
2.12373046875
1.7748779296875
1.6040771484374998
1.5001464843749999
1.5186767578125
1.458251953125
1.4542236328125
1.456640625
1.3591552734374999
1.4042724609375
1.4300537109375
1.4373046875
1.4373046875
3.01318359375
2.1374267578125
1.5364013671874999
1.3672119140624999
1.18271484375
1.5621826171875
0.6775634765624999
0.575244140625
0.7138183593749999
1.00546875
1.2777832031249998
1.4671142578124998
1.4816162109375
1.6451660156249999
1.6814208984374999
1.73056640625
1.6951171875
1.6540283203125
1.6830322265625
1.670947265625
1.6475830078125
0.0459228515625
0.9063720703125
1.5355957031249998
1.8054931640624998
2.096337890625
1.8981445312499998
2.6482177734374996
3.050244140625
2.4274658203125
1.9247314453125
1.6201904296874998
1.5275390624999998
1.4993408203124998
1.4711425781249998
1.4598632812499999
1.445361328125
1.3656005859375
1.4147460937499998
1.4123291015625
1.4332763671875
1.4373046875
2.08505859375
2.6304931640625
1.5509033203125
1.3688232421875
1.155322265625
0.7782714843749999
0.9031494140624999
0.4809814453125
0.6163330078125
0.9933837890624999
1.281005859375
1.4171630859375
1.496923828125
1.6290527343749999
1.6403320312499998
1.6685302734374998
1.735400390625
1.699951171875
1.6991455078125
1.6822265625
1.6564453124999998
0.8362792968749999
0.36899414062499997
1.55009765625
1.735400390625
2.0012695312499997
2.083447265625
2.0310791015625
3.0510498046874996
2.2921142578125
1.8618896484374998
1.641943359375
1.53720703125
1.496923828125
1.46953125
1.456640625
1.3994384765624999
1.400244140625
1.377685546875
1.4389160156249998
1.4364990234375
1.4445556640625
1.4429443359374998
2.7481201171875
1.7080078125
1.4332763671875
1.1786865234375
0.7404052734375
0.8564208984374999
0.4439208984375
0.62197265625
0.863671875
1.2044677734375
1.400244140625
1.4848388671875
1.593603515625
1.6475830078125
1.65966796875
1.667724609375
1.7942138671874999
1.6959228515625
1.6822265625
1.670947265625
1.0948974609375
0.26828613281249997
1.4477783203124999
1.7257324218749999
1.9779052734375
2.1221191406249997
2.5370361328124997
3.0550781249999996
2.7263671874999997
2.0745849609375
1.6822265625
1.56298828125
1.496923828125
1.49853515625
1.4638916015624999
1.4518066406249999
1.458251953125
1.32451171875
1.426025390625
1.41796875
1.445361328125
1.4364990234375
3.04541015625
1.732177734375
1.42119140625
1.2987304687499999
1.224609375
0.7226806640625
0.375439453125
0.549462890625
0.8628662109374999
1.171435546875
1.3833251953124999
1.48564453125
1.5637939453124998
1.674169921875
1.67578125
1.7072021484375
1.7362060546875
1.6781982421875
1.690283203125
1.66611328125
1.6491943359374999
0.0443115234375
1.3962158203125
1.6773925781249999
1.8457763671874998
2.0326904296875
2.3912109375
2.882666015625
2.7884033203125
2.1100341796874997
1.748291015625
1.5815185546875
1.4945068359375
1.4848388671875
1.4437499999999999
1.44052734375
1.445361328125
1.3978271484375
1.4381103515625
1.4244140625
1.4389160156249998
1.448583984375
3.0446044921874997
2.0197998046875
1.5194824218749998
1.31162109375
1.2399169921875
1.4139404296875
0.26103515625
0.5841064453125
0.733154296875
1.0755615234375
1.3551269531249999
1.46953125
1.48564453125
1.6693359374999999
1.683837890625
1.6749755859375
1.7611816406249998
1.6910888671875
1.6943115234375
1.67900390625
1.6483886718749998
0.04833984375
1.08603515625
1.6927001953124998
1.828857421875
2.0407470703125
1.64677734375
3.0550781249999996
3.0010986328125
2.2051025390625
1.7458740234374999
1.587158203125
1.49853515625
1.52109375
1.456640625
1.4284423828125
1.4469726562499998
1.3962158203125
1.4228027343749998
1.426025390625
1.4477783203124999
1.4268310546874998
2.4234375
2.0842529296875
1.5154541015624998
1.3825195312499998
1.1335693359374999
1.5162597656249999
0.5728271484374999
0.6227783203124999
0.71220703125
1.0046630859374999
1.2689208984375
1.429248046875
1.474365234375
1.6508056640625
1.6725585937499998
1.687060546875
1.7184814453125
1.6733642578124999
1.683837890625
1.6701416015625
1.6540283203125
0.46245117187499996
1.0272216796875
1.5702392578125
1.7668212890625
2.09150390625
1.7426513671875
2.0568603515625
3.0510498046874996
2.31064453125
1.8747802734374999
1.662890625
1.5106201171875
1.5082031249999999
1.4751708984374998
1.4477783203124999
1.4445556640625
1.3873535156249999
1.413134765625
1.4074951171874999
1.42119140625
1.432470703125
2.2727783203125
2.5636230468749996
1.667724609375
1.3768798828125
1.1408203125
0.87333984375
0.6114990234375
0.6292236328124999
0.6090820312499999
0.894287109375
1.27939453125
1.4244140625
1.4928955078125
1.6379150390625
1.6403320312499998
1.6773925781249999
1.7394287109375
1.6765869140624998
1.687060546875
1.67900390625
1.6379150390625
0.6123046875
0.45439453124999996
1.5750732421875
1.7531249999999998
2.0181884765625
2.4065185546875
2.0165771484375
3.0478271484375
2.4822509765625
1.8635009765625
1.6379150390625
1.546875
1.5057861328125
1.458251953125
1.46953125
1.45341796875
1.3929931640625
1.3962158203125
1.413134765625
1.4364990234375
1.4381103515625
1.4389160156249998
2.6603027343749996
1.6951171875
1.4091064453125
1.2560302734375
0.7839111328124999
0.978076171875
0.34885253906249997
0.6227783203124999
0.863671875
1.21171875
1.380908203125
1.5001464843749999
1.5799072265624998
1.67578125
1.67578125
1.6806152343749998
1.7893798828124998
1.6910888671875
1.6846435546874998
1.6620849609375
1.6371093749999999
0.3762451171875
1.4783935546875
1.6935058593749999
2.00771484375
2.27197265625
2.5048095703124997
3.0462158203125
2.5241455078125
1.998046875
1.716064453125
1.5541259765625
1.5073974609374998
1.5033691406249998
1.464697265625
1.4381103515625
1.4123291015625
1.33740234375
1.42119140625
1.4195800781249999
1.4413330078125
1.42119140625
3.05185546875
1.9013671875
1.41796875
1.3019531249999998
1.232666015625
0.8612548828125
0.37785644531249996
0.5663818359375
0.7645751953125
1.1690185546875
1.3672119140624999
1.474365234375
1.5887695312499999
1.67900390625
1.6798095703125
1.71123046875
1.76279296875
1.6862548828125
1.6806152343749998
1.6556396484375
1.6346923828125
0.054785156249999994
1.4364990234375
1.6725585937499998
1.8626953124999999
2.0302734375
2.5265625
2.8754150390624997
3.0429931640624996
2.0906982421875
1.7595703125
1.5911865234375
1.4848388671875
1.5138427734375
1.4687255859375
1.4429443359374998
1.448583984375
1.3607666015625
1.3994384765624999
1.4228027343749998
1.4373046875
1.4316650390624999
3.0510498046874996
1.9537353515625
1.4920898437499999
1.3551269531249999
1.2415283203124998
1.2673095703125
0.28681640625
0.555908203125
0.760546875
1.0723388671875
1.303564453125
1.4735595703125
1.4912841796874998
1.6733642578124999
1.66611328125
1.654833984375
1.7418457031249999
1.69833984375
1.703173828125
1.6765869140624998
1.6459716796875
0.043505859375
1.1384033203125
1.6234130859375
1.8489990234375
2.0496093749999997
1.5919921874999998
3.05185546875
2.9801513671874997
2.18818359375
1.8119384765625
1.574267578125
1.46953125
1.52109375
1.4461669921875
1.44052734375
1.4034667968749999
1.4074951171874999
1.4348876953124998
1.43408203125
1.448583984375
1.4389160156249998
2.534619140625
2.4427734375
1.5218994140625
1.3583496093749998
1.1239013671875
1.426025390625
0.5607421874999999
0.4954833984375
0.6501708984375
1.058642578125
1.3156494140625
1.4429443359374998
1.4928955078125
1.667724609375
1.6725585937499998
1.667724609375
1.7378173828124999
1.6943115234375
1.690283203125
1.674169921875
1.6588623046875
0.32871093749999997
1.061865234375
1.590380859375
1.7668212890625
2.0665283203125
1.654833984375
2.20751953125
3.0526611328124997
2.2171875
1.8264404296874999
1.63388671875
1.5082031249999999
1.5001464843749999
1.4550292968749998
1.5073974609374998
1.4413330078125
1.3664062499999998
1.3978271484375
1.4284423828125
1.4252197265625
1.4348876953124998
1.4590576171874998
2.4830566406249996
1.6443603515624998
1.3849365234375
1.13115234375
1.03447265625
1.0981201171875
0.6147216796875
0.639697265625
0.9257080078125
1.2302490234374999
1.4147460937499998
1.474365234375
1.6056884765625
1.6491943359374999
1.6935058593749999
1.699951171875
1.6967285156249998
1.67578125
1.6798095703125
1.662890625
0.543017578125
0.530126953125
1.506591796875
1.75634765625
2.0504150390625
2.47177734375
2.3340087890625
3.0510498046874996
2.599072265625
2.0117431640625
1.6564453124999998
1.5404296874999999
1.5009521484375
1.4622802734375
1.4816162109375
1.448583984375
1.4244140625
1.3639892578125
1.4107177734374998
1.4252197265625
1.4332763671875
1.4493896484375
3.0107666015624996
1.66611328125
1.3929931640625
1.2697265624999998
1.1416259765624999
1.052197265625
0.45439453124999996
0.5776611328125
0.9071777343749999
1.2374999999999998
1.3833251953124999
1.4888671875
1.58232421875
1.6725585937499998
1.6701416015625
1.6854492187499999
1.7764892578125
1.7055908203124999
1.683837890625
1.6604736328124998
1.5895751953125
0.0459228515625
1.5073974609374998
1.6830322265625
1.8707519531249999
2.4121582031249997
2.4274658203125
3.0494384765625
2.4339111328125
1.9666259765624998
1.6814208984374999
1.545263671875
1.474365234375
1.4848388671875
1.4413330078125
1.4526123046875
1.4091064453125
1.4219970703125
1.4300537109375
1.4364990234375
1.4518066406249999
1.4389160156249998
3.04541015625
1.8570556640625
1.4928955078125
1.2834228515625
1.203662109375
0.8193603515625
0.33515625
0.5792724609375
0.7943847656249999
1.123095703125
1.3801025390625
1.4791992187499998
1.529150390625
1.6725585937499998
1.67900390625
1.6717529296875
1.7378173828124999
1.703173828125
1.6822265625
1.658056640625
1.62744140625
0.0459228515625
1.239111328125
1.6781982421875
1.8820312499999998
2.0036865234375
1.6814208984374999
3.053466796875
2.9116699218749997
2.15595703125
1.7047851562499998
1.585546875
1.506591796875
1.5122314453124999
1.4622802734375
1.4413330078125
1.3728515625
1.3728515625
1.426025390625
1.429248046875
1.4413330078125
1.4316650390624999
2.8214355468749996
1.8900878906249998
1.48564453125
1.3446533203125
1.148876953125
1.052197265625
0.2771484375
0.6066650390625
0.784716796875
1.0900634765625
1.32451171875
1.4461669921875
1.490478515625
1.6830322265625
1.7023681640625
1.7039794921875
1.6894775390624999
1.6636962890625
1.687060546875
1.683837890625
1.6508056640625
0.0684814453125
1.1980224609374999
1.641943359375
1.8006591796875
2.0069091796875
1.606494140625
2.3984619140625
3.0139892578125
2.2163818359375
1.8248291015625
1.6298583984375
1.4977294921875
1.509814453125
1.4413330078125
1.44052734375
1.4389160156249998
1.3881591796875
1.4147460937499998
1.4308593749999998
1.4356933593749999
1.4276367187499999
2.7013916015625
2.328369140625
1.5919921874999998
1.3631835937499999
1.1432373046875
1.3575439453125
0.307763671875
0.6123046875
0.6662841796875
0.968408203125
1.33740234375
