1.7200927734375
1.7611816406249998
1.8014648437499998
1.7571533203124998
1.754736328125
1.722509765625
1.7023681640625
0.8145263671874999
1.084423828125
1.7208984374999998
1.98193359375
2.2832519531249997
2.2921142578125
2.254248046875
3.0478271484375
2.270361328125
1.851416015625
1.5968261718749999
1.4550292968749998
1.4236083984374999
1.3994384765624999
1.3929931640625
1.364794921875
1.3027587890624999
1.3607666015625
1.3470703124999999
1.3752685546874999
1.3833251953124999
1.8296630859374998
2.512060546875
1.5428466796875
1.18916015625
1.010302734375
0.5994140625
0.7951904296875
0.517236328125
0.5389892578125
0.8370849609375
1.271337890625
1.4550292968749998
1.5525146484374999
1.7128417968749998
1.7370117187499998
1.7724609375
1.786962890625
1.7378173828124999
1.7732666015624998
1.740234375
1.7200927734375
1.26005859375
0.4390869140625
1.722509765625
1.948095703125
2.1978515625
2.3388427734375
2.2308837890624997
3.0494384765625
2.7908203124999997
1.944873046875
1.6612792968749999
1.4961181640624999
1.4268310546874998
1.4058837890625
1.3752685546874999
1.3607666015625
1.3237060546875
1.2455566406249998
1.3494873046875
1.3575439453125
1.3712402343749999
1.3720458984375
2.6127685546875
1.5654052734375
1.2568359375
1.11181640625
0.6260009765625
0.5824951171875
0.3037353515625
0.510791015625
0.833056640625
1.1802978515625
1.40185546875
1.5645996093749999
1.6209960937499999
1.7571533203124998
1.7740722656249999
1.7611816406249998
1.8707519531249999
1.77890625
1.7571533203124998
1.7289550781249998
1.7015624999999999
0.36577148437499996
1.558154296875
1.8707519531249999
2.165625
2.228466796875
2.5201171875
3.0494384765625
2.666748046875
2.0568603515625
1.7249267578124998
1.4711425781249998
1.41796875
1.4316650390624999
1.3704345703124998
1.351904296875
1.3156494140625
1.3188720703124999
1.3664062499999998
1.361572265625
1.3752685546874999
1.37607421875
2.8593017578124997
1.896533203125
1.2906738281249999
1.1416259765624999
1.0376953125
0.5115966796875
0.20947265625
0.4954833984375
0.6968994140625
1.1609619140625
1.3792968749999999
1.5235107421874998
1.6403320312499998
1.767626953125
1.7772949218749998
1.7579589843749999
1.8240234375
1.764404296875
1.7603759765625
1.735400390625
1.699951171875
0.11037597656249999
1.5218994140625
1.880419921875
2.0552490234375
2.28486328125
2.3195068359374997
3.0164062499999997
3.050244140625
2.1060058593749997
1.740234375
1.545263671875
1.4348876953124998
1.4445556640625
1.3728515625
1.3502929687499998
1.3720458984375
1.2802001953125
1.3237060546875
1.353515625
1.3784912109374998
1.3921875
2.81982421875
1.9295654296875
1.3672119140624999
1.1923828125
0.992578125
1.32451171875
0.451171875
0.49306640625
0.6791748046874999
1.0014404296875
1.3108154296874999
1.5194824218749998
1.5428466796875
1.716064453125
1.77890625
1.8103271484374999
1.791796875
1.7499023437499999
1.7587646484375
1.7329833984374998
1.71123046875
0.167578125
1.1158447265625
1.74345703125
2.05927734375
2.29453125
2.0761962890625
2.8351318359374997
3.0486328124999997
2.367041015625
1.912646484375
1.554931640625
1.4469726562499998
1.4219970703125
1.364794921875
1.351904296875
1.3559326171875
1.3059814453124998
1.340625
1.35673828125
1.3688232421875
1.3784912109374998
2.0439697265625
2.39443359375
1.3792968749999999
1.2020507812499999
0.9643798828125
0.6276123046875
0.684814453125
0.40122070312499997
0.5969970703124999
0.9998291015624999
1.3100097656249998
1.4800048828124999
1.558154296875
1.7007568359374998
1.732177734375
1.764404296875
1.815966796875
1.764404296875
1.7748779296875
1.74345703125
1.714453125
0.9232910156249999
0.6010253906249999
1.732177734375
1.980322265625
2.2171875
2.23330078125
2.2341064453125
3.0470214843749996
2.3082275390625
1.8578613281249998
1.603271484375
1.48564453125
1.4155517578124999
1.384130859375
1.3672119140624999
1.3543212890624998
1.3301513671874998
1.3140380859374998
1.3599609375
1.3752685546874999
1.3897705078125
1.3897705078125
2.473388671875
1.542041015625
1.2286376953125
1.00546875
0.5937744140625
0.7710205078125
0.269091796875
0.555908203125
0.8668945312499999
1.1835205078125
1.4501953125
1.5533203125
1.670947265625
1.7370117187499998
1.764404296875
1.7990478515625
1.843359375
1.770849609375
1.7571533203124998
1.7329833984374998
1.13115234375
0.510791015625
1.6306640625
1.899755859375
2.199462890625
2.3920166015624997
2.689306640625
3.0526611328124997
2.7191162109375
2.067333984375
1.6475830078125
1.4912841796874998
1.40185546875
1.4171630859375
1.3744628906249998
1.3559326171875
1.3575439453125
1.2447509765625
1.34384765625
1.3607666015625
1.3784912109374998
1.3784912109374998
2.8689697265625
1.7619873046874999
1.24716796875
1.1190673828125
1.029638671875
0.6509765624999999
0.2956787109375
0.4962890625
0.7387939453125
1.1964111328125
1.400244140625
1.5444580078124999
1.641943359375
1.7668212890625
1.7571533203124998
1.80791015625
1.851416015625
1.7555419921875
1.7571533203124998
1.7184814453125
1.6991455078125
0.130517578125
1.5944091796875
1.8900878906249998
2.0761962890625
2.289697265625
2.6280761718749996
3.0494384765625
3.0389648437499996
2.0842529296875
1.7152587890625
1.5194824218749998
1.409912109375
1.3986328124999998
1.3607666015625
1.3639892578125
1.33740234375
1.332568359375
1.348681640625
1.3720458984375
1.3736572265625
1.3825195312499998
2.8617187499999996
1.8361083984375
1.3365966796875
1.1303466796875
1.0288330078124999
1.1061767578125
0.38349609375
0.502734375
0.7218749999999999
1.07958984375
1.4010498046875
1.5283447265624999
1.5831298828125
1.7531249999999998
1.76279296875
1.7531249999999998
1.8280517578125
1.7571533203124998
1.7660156249999999
1.74345703125
1.7047851562499998
0.12890625
1.255224609375
1.7853515624999998
2.0689453125
2.255859375
1.8731689453125
3.050244140625
3.0220458984375
2.2276611328125
1.7200927734375
1.5380126953125
1.4542236328125
1.4397216796874999
1.3656005859375
1.3349853515624999
1.3398193359375
1.3108154296874999
1.345458984375
1.3656005859375
1.2906738281249999
1.3817138671875
2.34609375
2.255859375
1.3382080078124998
1.1851318359375
0.9490722656249999
1.2270263671875
0.42216796874999996
0.507568359375
0.605859375
1.0328613281249999
1.3269287109374999
1.4928955078125
1.5573486328125
1.7458740234374999
1.75634765625
1.7579589843749999
1.7821289062499999
1.7531249999999998
1.751513671875
1.7329833984374998
1.714453125
0.6832031249999999
1.184326171875
1.7772949218749998
1.9891845703125
2.2494140625
1.944873046875
2.305810546875
3.0494384765625
2.3783203125
1.8828369140624999
1.6266357421875
1.4437499999999999
1.4284423828125
1.3639892578125
1.397021484375
1.3494873046875
1.2866455078124999
1.3043701171875
1.3382080078124998
1.361572265625
1.3704345703124998
1.3792968749999999
2.3162841796875
1.5009521484375
1.222998046875
0.9514892578124999
0.7613525390625
0.9071777343749999
0.49387207031249997
0.5905517578125
0.9007324218749999
1.232666015625
1.4711425781249998
1.5557373046874998
1.66611328125
1.740234375
1.7571533203124998
1.8135498046874998
1.8183837890624999
1.7668212890625
1.7531249999999998
1.7281494140625
0.734765625
0.7025390625
1.674169921875
1.9827392578124998
2.2469970703124997
2.6449951171875
2.5676513671874996
3.0462158203125
2.4766113281249997
1.9843505859375
1.6105224609375
1.480810546875
1.3946044921874998
1.3833251953124999
1.3801025390625
1.364794921875
1.319677734375
1.319677734375
1.3575439453125
1.3631835937499999
1.3825195312499998
1.3905761718749998
2.82626953125
1.5170654296875
1.232666015625
1.0803955078125
0.990966796875
0.8483642578124999
0.2876220703125
0.5180419921875
0.8789794921874999
1.248779296875
1.4123291015625
1.5380126953125
1.6733642578124999
1.7611816406249998
1.7660156249999999
1.7748779296875
1.843359375
1.77890625
1.7531249999999998
1.7281494140625
1.6943115234375
0.1780517578125
1.6532226562499999
1.9078125
2.1148681640625
2.4685546874999997
2.6804443359374996
3.050244140625
2.908447265625
1.993212890625
1.6951171875
1.5267333984375
1.4195800781249999
1.41796875
1.3720458984375
1.3639892578125
1.35673828125
1.300341796875
1.3422363281249998
1.3559326171875
1.3704345703124998
1.380908203125
2.8593017578124997
1.73056640625
1.3156494140625
1.106982421875
1.0288330078124999
0.8121093749999999
0.17885742187499998
0.4874267578125
0.7420166015624999
1.09248046875
1.4107177734374998
1.5484863281249999
1.5750732421875
1.7660156249999999
1.7668212890625
1.796630859375
1.7797119140625
1.75634765625
1.7603759765625
1.7450683593749998
1.6943115234375
0.1377685546875
1.33740234375
1.8248291015625
2.080224609375
2.238134765625
1.861083984375
2.9825683593749996
3.0349365234374996
2.2631103515624997
1.7217041015624999
1.529150390625
1.4493896484375
1.44052734375
1.3792968749999999
1.345458984375
1.3510986328124999
1.2955078125
1.3382080078124998
1.3382080078124998
1.3639892578125
1.3672119140624999
2.544287109375
2.126953125
1.3220947265624998
1.181103515625
0.9563232421875
0.9998291015624999
0.20061035156249998
0.5325439453124999
0.7259033203124999
1.08603515625
1.3285400390625
1.4993408203124998
1.577490234375
1.754736328125
1.7829345703125
1.7579589843749999
1.8111328125
1.7619873046874999
1.7595703125
1.738623046875
1.7007568359374998
0.41572265625
1.2858398437499998
1.8183837890624999
2.0181884765625
2.2349121093749997
1.8417480468749998
2.4886962890624997
3.04541015625
2.2292724609375
1.8062988281249999
1.5919921874999998
1.4284423828125
1.4219970703125
1.3390136718749999
1.335791015625
1.327734375
1.3365966796875
1.3688232421875
1.3591552734374999
1.3712402343749999
1.3897705078125
2.3952392578125
2.2212158203125
1.46630859375
1.1802978515625
0.9369873046874999
1.0159423828125
0.9353759765624999
0.4318359375
0.607470703125
0.9329589843749999
1.3398193359375
1.490478515625
1.554931640625
1.6991455078125
1.7781005859374999
1.7652099609374998
1.7901855468749999
1.77568359375
1.764404296875
1.7555419921875
1.7047851562499998
0.5470458984375
0.837890625
1.6967285156249998
2.0069091796875
2.27197265625
2.6659423828124997
2.3597900390624997
3.0486328124999997
2.4854736328125
1.8393310546875
1.6081054687499998
1.4711425781249998
1.4316650390624999
1.368017578125
1.405078125
1.353515625
1.2890625
1.3309570312499999
1.3422363281249998
1.36962890625
1.3817138671875
1.464697265625
2.7030029296875
1.46953125
1.21171875
1.052197265625
0.88623046875
0.9313476562499999
0.485009765625
0.5091796875
0.9015380859375
1.2302490234374999
1.429248046875
1.5589599609375
1.690283203125
1.7619873046874999
1.767626953125
1.780517578125
1.7611816406249998
1.770849609375
1.7490966796874998
1.719287109375
1.6081054687499998
0.7468505859375
1.699951171875
1.92392578125
2.112451171875
2.6691650390625
2.4951416015624996
3.0526611328124997
2.5821533203125
1.998046875
1.6846435546874998
1.4840332031249999
1.416357421875
1.400244140625
1.3728515625
1.3639892578125
1.348681640625
1.2947021484374999
1.3341796874999998
1.3470703124999999
1.3639892578125
1.3954101562499999
2.7747070312499997
1.65
1.2930908203125
1.0763671875
0.9047607421874999
0.5132080078125
0.33273925781249997
0.530126953125
0.8040527343749999
1.158544921875
1.432470703125
1.545263671875
1.6000488281249998
1.7660156249999999
1.7724609375
1.75634765625
1.8216064453124998
1.7692382812499998
1.748291015625
1.7362060546875
1.6604736328124998
0.233642578125
1.4751708984374998
1.9150634765624999
2.1293701171875
2.228466796875
2.0431640625
3.050244140625
2.792431640625
2.1052001953125
1.6491943359374999
1.4920898437499999
1.4155517578124999
1.3986328124999998
1.3728515625
1.3607666015625
1.33740234375
1.345458984375
1.384130859375
1.3631835937499999
1.3921875
1.3849365234375
2.7086425781249996
1.6798095703125
1.2963134765625
1.187548828125
0.9893554687499999
0.6082763671875
0.2457275390625
0.47050781249999996
0.7629638671875
1.1271240234375
1.3631835937499999
1.49853515625
1.6209960937499999
1.7797119140625
1.8062988281249999
1.767626953125
1.8119384765625
1.7587646484375
1.764404296875
1.7313720703125
1.7096191406249999
0.2360595703125
1.3978271484375
1.85302734375
2.0431640625
2.2171875
1.9585693359374998
2.7287841796874996
2.9672607421875
2.2018798828125
1.7934082031249998
1.5911865234375
1.4364990234375
1.44052734375
1.3631835937499999
1.34384765625
1.3502929687499998
1.2785888671874999
1.348681640625
1.3422363281249998
1.3656005859375
1.377685546875
2.6514404296875
2.064111328125
1.384130859375
1.158544921875
0.9514892578124999
1.29228515625
0.201416015625
0.510791015625
0.636474609375
0.9877441406249999
1.3462646484374998
1.509814453125
1.5380126953125
1.7579589843749999
1.7668212890625
1.7934082031249998
1.7877685546875
1.7595703125
1.7652099609374998
1.7442626953125
1.7088134765624998
0.2876220703125
1.00546875
1.8393310546875
2.0302734375
2.29775390625
2.4177978515625
2.6377441406249997
3.050244140625
2.389599609375
1.8103271484374999
1.5702392578125
1.445361328125
1.4308593749999998
1.3502929687499998
1.3921875
1.3599609375
1.3100097656249998
1.3599609375
1.35673828125
1.3720458984375
1.3784912109374998
1.7184814453125
2.1140624999999997
1.4066894531249998
1.2093017578125
1.0111083984375
1.1899658203124999
0.8693115234375
0.40122070312499997
0.6485595703125
0.9724365234375
1.2890625
1.458251953125
1.554931640625
1.7047851562499998
1.7362060546875
1.7595703125
1.7990478515625
1.780517578125
1.770849609375
1.748291015625
1.7217041015624999
1.3341796874999998
0.9305419921875
1.72734375
1.94970703125
2.2921142578125
2.5555664062499996
2.2711669921874997
3.0510498046874996
2.3823486328125
1.9110351562499999
1.6234130859375
1.4759765624999999
1.4155517578124999
1.3994384765624999
1.40830078125
1.3583496093749998
1.3059814453124998
1.3712402343749999
1.3382080078124998
1.368017578125
1.37607421875
1.5976318359375
2.6304931640625
1.5750732421875
1.2020507812499999
1.03447265625
0.6590332031249999
0.9353759765624999
0.38994140624999996
0.5196533203125
0.8282226562499999
1.27294921875
1.4622802734375
1.5557373046874998
1.7128417968749998
1.7466796875
1.7635986328125
1.7942138671874999
1.7474853515625
1.7635986328125
1.74345703125
1.7184814453125
1.4759765624999999
0.34885253906249997
1.7168701171874998
1.9134521484375
2.1599853515625
2.2107421874999997
2.3630126953125
3.04541015625
2.81982421875
1.973876953125
1.6733642578124999
1.5146484375
1.41796875
1.4139404296875
1.37607421875
1.364794921875
1.3422363281249998
1.2673095703125
1.345458984375
1.3591552734374999
1.368017578125
1.36962890625
2.6965576171874996
1.5807128906249999
1.281005859375
1.134375
0.7621582031249999
0.5091796875
0.1998046875
0.5148193359375
0.8177490234375
1.1698242187499999
1.3752685546874999
1.554931640625
1.6234130859375
1.7660156249999999
1.764404296875
1.7990478515625
1.8151611328125
1.7660156249999999
1.7499023437499999
1.7378173828124999
1.6886718749999998
0.2827880859375
1.5122314453124999
1.8780029296874998
2.151123046875
2.2083251953125
2.29453125
3.0486328124999997
2.8431884765624997
2.1245361328125
1.7426513671875
1.5082031249999999
1.4219970703125
1.400244140625
1.3599609375
1.3559326171875
1.3333740234375
1.3285400390625
1.361572265625
1.3599609375
1.3801025390625
1.384130859375
2.7827636718749997
1.9464843749999998
1.3019531249999998
1.1561279296875
0.992578125
0.5035400390625
0.24814453125
0.48017578125
0.6807861328125
1.1577392578124999
1.3825195312499998
1.5267333984375
1.6137451171875
1.7595703125
1.7716552734375
1.7603759765625
1.8240234375
1.770849609375
1.7619873046874999
1.73056640625
1.6991455078125
0.1877197265625
1.464697265625
1.869140625
2.044775390625
2.2872802734374997
2.07861328125
2.9575927734375
3.0486328124999997
2.1180908203124997
1.7539306640624999
1.55009765625
1.43408203125
1.426025390625
1.3688232421875
1.3720458984375
1.3607666015625
1.3027587890624999
1.3422363281249998
1.351904296875
1.377685546875
1.3801025390625
2.7158935546875
1.9956298828124999
1.3873535156249999
1.1947998046875
0.9861328125
1.31162109375
0.6904541015625
0.5091796875
0.671923828125
0.9998291015624999
1.3092041015625
1.5138427734375
1.538818359375
1.7208984374999998
1.7724609375
1.7934082031249998
1.796630859375
1.74345703125
1.75634765625
1.7450683593749998
1.7088134765624998
0.2618408203125
1.0530029296874999
1.7297607421874999
2.0294677734374997
2.27841796875
2.2598876953125
2.7320068359375
3.0462158203125
2.4661376953125
1.93681640625
1.6000488281249998
1.4574462890625
1.4195800781249999
1.3688232421875
1.3825195312499998
1.3510986328124999
1.2914794921875
1.3317626953125
1.3333740234375
1.3575439453125
1.380908203125
1.8489990234375
2.4685546874999997
1.4042724609375
1.1923828125
0.97646484375
1.276171875
0.7968017578125
0.47373046874999997
0.555908203125
0.9812988281249999
1.2963134765625
1.4630859374999998
1.554931640625
1.7015624999999999
1.735400390625
1.754736328125
1.8119384765625
1.7555419921875
1.7635986328125
1.7329833984374998
1.7176757812499999
1.213330078125
0.990966796875
1.73056640625
1.9432617187499999
2.1841552734375
2.4274658203125
2.215576171875
3.0478271484375
2.386376953125
1.920703125
1.6218017578125
1.4413330078125
1.41796875
1.384130859375
1.3720458984375
1.340625
1.3188720703124999
1.284228515625
1.3551269531249999
1.36962890625
1.3825195312499998
1.6967285156249998
2.5555664062499996
1.5670166015625
1.2665039062499999
1.0191650390625
0.6147216796875
0.6292236328124999
0.34885253906249997
0.5744384765625
0.8338623046875
1.20849609375
1.45341796875
1.5645996093749999
1.6483886718749998
1.740234375
1.7700439453124999
1.7603759765625
1.7571533203124998
1.7716552734375
1.7474853515625
1.73056640625
1.3664062499999998
0.4084716796875
1.5863525390625
1.9400390625
2.165625
2.2679443359375
2.28486328125
3.043798828125
2.689306640625
2.0737792968749997
1.6564453124999998
1.5170654296875
1.42119140625
1.3913818359374999
1.3712402343749999
1.3551269531249999
1.3188720703124999
1.264892578125
1.3510986328124999
1.3583496093749998
1.3792968749999999
1.3720458984375
2.8367431640625
1.58232421875
1.2673095703125
1.10859375
0.708984375
0.554296875
0.230419921875
0.491455078125
0.833056640625
1.1625732421875
1.384130859375
1.5573486328125
1.6290527343749999
1.7571533203124998
1.7635986328125
1.7893798828124998
1.8175781249999998
1.7474853515625
1.7499023437499999
1.7378173828124999
1.706396484375
0.33193359375
1.5323730468749999
1.8820312499999998
2.0576660156249997
2.2107421874999997
2.410546875
2.9036132812499997
2.8818603515624996
2.167236328125
1.7603759765625
1.5170654296875
1.4308593749999998
1.416357421875
1.3768798828125
1.3704345703124998
1.3768798828125
1.29228515625
1.3422363281249998
1.3494873046875
1.3656005859375
1.3712402343749999
2.8012939453124996
1.8957275390625
1.3446533203125
1.1529052734375
1.00546875
1.281005859375
0.1740234375
0.501123046875
0.7017333984374999
1.0376953125
1.3865478515624998
1.5218994140625
1.5605712890624999
1.7531249999999998
1.7635986328125
1.76279296875
1.82724609375
1.7595703125
1.7603759765625
1.7394287109375
1.699951171875
0.16274414062499998
1.1625732421875
1.8739746093749998
2.0568603515625
2.27197265625
2.152734375
3.0470214843749996
3.04541015625
2.2727783203125
1.7442626953125
1.5525146484374999
1.4332763671875
1.4066894531249998
1.3510986328124999
1.3543212890624998
1.3229003906249999
1.3341796874999998
1.348681640625
1.3583496093749998
1.3768798828125
1.37607421875
2.086669921875
1.977099609375
1.3744628906249998
1.1923828125
0.9949951171875
1.3261230468749998
0.6912597656249999
0.37302246093749997
0.684814453125
1.0167480468749999
1.3156494140625
1.5090087890625
1.5589599609375
1.72412109375
1.7410400390624998
1.75634765625
1.8054931640624998
1.7619873046874999
1.7619873046874999
1.7442626953125
1.714453125
0.1998046875
1.1279296875
1.7668212890625
1.9674316406249999
2.27841796875
2.1970458984375
2.2405517578125
3.05185546875
2.3396484374999997
1.883642578125
1.5766845703124999
1.4558349609374999
1.42119140625
1.3865478515624998
1.3801025390625
1.3551269531249999
1.2995361328125
1.332568359375
1.3543212890624998
1.36962890625
1.3736572265625
1.9440673828125
2.4234375
1.522705078125
1.200439453125
0.984521484375
0.6010253906249999
0.69609375
0.5115966796875
0.5647705078124999
0.87333984375
1.287451171875
1.4671142578124998
1.5517089843749998
1.7152587890625
1.7289550781249998
1.7724609375
1.7764892578125
1.7410400390624998
1.75634765625
1.748291015625
1.714453125
1.1883544921875
0.5277099609375
1.735400390625
1.941650390625
2.1978515625
2.4274658203125
2.1865722656249997
3.0486328124999997
2.747314453125
1.9376220703125
1.662890625
1.4920898437499999
1.4147460937499998
1.3873535156249999
1.3664062499999998
1.3591552734374999
1.3188720703124999
1.2673095703125
1.3390136718749999
1.3728515625
1.3728515625
1.3768798828125
2.50400390625
1.53720703125
1.2536132812499998
1.126318359375
0.5824951171875
0.6654785156249999
0.25620117187499997
0.5687988281249999
0.8548095703124999
1.222998046875
1.4123291015625
1.5533203125
1.638720703125
1.754736328125
1.7635986328125
1.7595703125
1.8731689453125
1.780517578125
1.7539306640624999
1.72412109375
1.6967285156249998
0.47050781249999996
1.5984375
1.9005615234375
2.17529296875
2.3243408203125
2.624853515625
3.050244140625
2.5998779296874996
2.023828125
1.6967285156249998
1.4759765624999999
1.405078125
1.416357421875
1.3720458984375
1.3656005859375
1.3253173828125
1.2898681640624998
1.361572265625
1.3664062499999998
1.3857421875
1.3817138671875
2.8464111328125
1.796630859375
1.2584472656249999
1.1335693359374999
1.0094970703125
0.6123046875
0.2731201171875
0.507568359375
0.733154296875
1.1770751953125
1.3921875
1.525927734375
1.6475830078125
1.7635986328125
1.7692382812499998
1.764404296875
1.843359375
1.7595703125
1.7499023437499999
1.72412109375
1.7080078125
0.15629882812499998
1.5984375
1.912646484375
2.0898925781249997
2.247802734375
2.5555664062499996
3.011572265625
3.0381591796875
2.0818359374999997
1.7329833984374998
1.5436523437499998
1.4187744140624998
1.4268310546874998
1.3752685546874999
1.3494873046875
1.3599609375
1.2866455078124999
1.3237060546875
1.353515625
1.3631835937499999
1.3607666015625
2.8294921874999996
1.8498046874999998
1.3365966796875
1.190771484375
1.0248046874999999
1.235888671875
0.35126953125
0.4962890625
0.7234863281249999
1.0497802734375
1.316455078125
1.5396240234374998
1.5557373046874998
1.7337890624999999
1.7603759765625
1.7893798828124998
1.7958251953125
1.7523193359375
1.754736328125
1.735400390625
1.7047851562499998
0.1554931640625
1.2342773437499999
1.78857421875
2.070556640625
2.2832519531249997
1.9134521484375
2.9664550781249996
3.0510498046874996
2.286474609375
1.8425537109374999
1.5355957031249998
1.4332763671875
1.4252197265625
1.3736572265625
1.3551269531249999
1.3623779296874998
1.3253173828125
1.348681640625
1.35673828125
1.3672119140624999
1.3792968749999999
2.2228271484374997
2.2872802734374997
1.3502929687499998
1.1786865234375
0.9547119140625
1.2834228515625
0.543017578125
0.39396972656249996
0.6002197265625
1.0328613281249999
1.3382080078124998
1.4896728515625
1.5807128906249999
1.7410400390624998
1.76279296875
1.7740722656249999
1.8199951171875
1.7772949218749998
1.764404296875
1.7410400390624998
1.7096191406249999
0.7436279296874999
0.7299316406249999
1.7619873046874999
1.9787109374999998
2.2365234375
2.0391357421875
2.27841796875
3.053466796875
2.2671386718749997
1.8393310546875
1.6121337890624998
1.4703369140625
1.4268310546874998
1.3704345703124998
1.3849365234375
1.3543212890624998
1.3083984375
1.3269287109374999
1.3502929687499998
1.3744628906249998
1.3792968749999999
1.3857421875
2.3468994140625
1.4912841796874998
1.2181640624999999
0.9651855468749999
0.6936767578124999
0.8822021484375
0.39316406249999997
0.5857177734375
0.894287109375
1.232666015625
1.4751708984374998
1.554931640625
1.6725585937499998
1.7329833984374998
1.7619873046874999
1.79501953125
1.8054931640624998
1.7595703125
1.748291015625
1.72412109375
0.9974121093749999
0.6211669921874999
1.6653076171874999
1.896533203125
2.2107421874999997
2.5467041015625
2.6594970703125
3.0478271484375
2.6723876953124996
2.0334960937499997
1.6435546875
1.496923828125
1.4244140625
1.4139404296875
1.3825195312499998
1.3583496093749998
1.3430419921874999
1.2608642578125
1.3382080078124998
1.3510986328124999
1.3712402343749999
1.38896484375
2.8222412109375
1.6935058593749999
1.2495849609374998
1.100537109375
1.0006347656249999
0.7661865234374999
0.36496582031249997
0.5003173828124999
0.7798828124999999
1.213330078125
1.4155517578124999
1.5364013671874999
1.65
1.74345703125
1.7764892578125
1.8175781249999998
1.8659179687499998
1.77568359375
1.7603759765625
1.7208984374999998
1.6814208984374999
0.16677246093749998
1.6443603515624998
1.9021728515624998
2.1100341796874997
2.434716796875
2.6933349609375
3.0486328124999997
2.905224609375
2.0052978515624997
1.6717529296875
1.5202880859374999
1.4123291015625
1.4187744140624998
1.3639892578125
1.3478759765625
1.3204833984375
1.327734375
1.3639892578125
1.3631835937499999
1.37607421875
1.3784912109374998
2.8464111328125
1.7748779296875
1.3333740234375
1.1142333984375
1.03125
0.8701171875
0.30937499999999996
0.514013671875
0.7516845703124999
1.110205078125
1.40830078125
1.5380126953125
1.5807128906249999
1.75634765625
1.7764892578125
1.764404296875
1.8377197265624998
1.7845458984375
1.76279296875
1.7410400390624998
1.6959228515625
0.1635498046875
1.332568359375
1.8224121093749999
2.0794189453125
2.228466796875
1.8256347656249998
3.0566894531249997
2.9608154296875
2.18818359375
1.7088134765624998
1.5364013671874999
1.4550292968749998
1.4510009765624998
1.3857421875
1.3559326171875
1.3551269531249999
1.2947021484374999
1.332568359375
1.3510986328124999
1.3792968749999999
1.3833251953124999
2.462109375
2.1599853515625
1.3341796874999998
1.181103515625
0.9531005859374999
1.11826171875
0.2795654296875
0.5309326171875
0.6179443359375
1.0481689453125
1.3229003906249999
1.4848388671875
1.5702392578125
1.7603759765625
1.780517578125
1.7909912109375
1.7748779296875
1.7555419921875
1.7571533203124998
1.7410400390624998
1.7047851562499998
0.47856445312499996
1.2592529296875
1.786962890625
2.0173828124999997
2.2502197265625
1.8546386718749999
2.4097412109375
3.0510498046874996
2.3307861328125
1.867529296875
1.6072998046875
1.4429443359374998
1.4228027343749998
1.368017578125
1.4187744140624998
1.3422363281249998
1.300341796875
1.33740234375
1.351904296875
1.3712402343749999
1.3720458984375
2.34931640625
2.2308837890624997
1.46630859375
1.2052734375
0.9611572265624999
0.9353759765624999
0.8999267578125
0.5260986328125
0.5849121093749999
0.9224853515625
1.2576416015624998
1.4703369140625
1.5541259765625
1.6781982421875
1.754736328125
1.7595703125
1.8046875
1.7668212890625
1.7668212890625
1.7426513671875
1.719287109375
0.6227783203124999
0.7855224609375
1.6822265625
1.9916015624999999
2.263916015625
2.65546875
2.31708984375
3.0429931640624996
2.47177734375
1.9674316406249999
1.6000488281249998
1.4655029296875
1.4268310546874998
1.3446533203125
1.38896484375
1.335791015625
1.3317626953125
1.3631835937499999
1.3623779296874998
1.3744628906249998
1.3768798828125
1.4123291015625
2.7569824218749996
1.4920898437499999
1.2286376953125
1.0731445312499999
0.7822998046874999
0.9232910156249999
0.31340332031249996
0.53818359375
0.9257080078125
1.26005859375
1.4356933593749999
1.5637939453124998
1.6862548828125
1.7499023437499999
1.7692382812499998
1.77890625
1.8183837890624999
1.7692382812499998
1.7281494140625
1.7015624999999999
1.6435546875
0.720263671875
1.7096191406249999
1.9263427734374998
2.1132568359375
2.6361328124999996
2.5708740234375
3.0494384765625
2.5547607421875
1.9996582031249999
1.7015624999999999
1.4840332031249999
1.4348876953124998
1.4171630859375
1.37607421875
1.3502929687499998
1.3591552734374999
1.3019531249999998
1.3204833984375
1.351904296875
1.37607421875
1.36962890625
2.7892089843749996
1.674169921875
1.3301513671874998
1.0900634765625
0.9514892578124999
0.5824951171875
0.5422119140625
0.48017578125
0.7629638671875
1.1158447265625
1.4171630859375
1.5428466796875
1.5968261718749999
1.74345703125
1.7668212890625
1.770849609375
1.7797119140625
1.7595703125
1.7539306640624999
1.7490966796874998
1.7023681640625
0.1877197265625
1.4356933593749999
1.89169921875
2.1333984375
2.2212158203125
2.657080078125
3.05185546875
2.9398681640624997
2.167236328125
1.687060546875
1.513037109375
1.4316650390624999
1.4115234374999999
1.3913818359374999
1.361572265625
1.3527099609375
1.3100097656249998
1.34384765625
1.3478759765625
1.3744628906249998
1.3897705078125
2.6691650390625
1.7168701171874998
1.313232421875
1.174658203125
1.0191650390625
0.7097900390624999
0.15227050781249998
0.5212646484375
0.749267578125
1.1150390625
1.3575439453125
1.5347900390625
1.5686279296874999
1.7426513671875
1.7813232421874998
1.767626953125
1.828857421875
1.7813232421874998
1.7700439453124999
1.7499023437499999
1.7104248046875
0.146630859375
1.4244140625
1.8498046874999998
2.0439697265625
2.2236328125
1.8602783203125
3.0510498046874996
2.779541015625
2.112451171875
1.7450683593749998
1.5484863281249999
1.4195800781249999
1.41796875
1.3446533203125
1.3591552734374999
1.327734375
1.3317626953125
1.3833251953124999
1.3865478515624998
1.38896484375
1.3792968749999999
2.5805419921875
2.109228515625
1.4228027343749998
1.1964111328125
0.9547119140625
1.206884765625
0.18046874999999998
0.52529296875
0.6276123046875
0.9635742187499999
1.3462646484374998
1.482421875
1.545263671875
1.76279296875
1.7942138671874999
1.7635986328125
1.8071044921875
1.7692382812499998
1.7579589843749999
1.7345947265625
1.7281494140625
0.33837890625
0.98291015625
1.8280517578125
2.0085205078125
2.27841796875
2.51044921875
2.6256591796874997
3.053466796875
2.3839599609374997
1.8038818359375
1.5960205078124998
1.4800048828124999
1.4437499999999999
1.3712402343749999
1.4010498046875
1.35673828125
1.29228515625
1.340625
1.3478759765625
1.3752685546874999
1.3784912109374998
1.6371093749999999
2.165625
1.42119140625
1.200439453125
1.0248046874999999
1.11181640625
0.7114013671874999
0.588134765625
0.6163330078125
0.9385986328125
1.2608642578125
1.4373046875
1.5476806640624998
1.67578125
1.7378173828124999
1.7982421874999999
1.8103271484374999
1.7466796875
1.7692382812499998
1.754736328125
1.73056640625
1.3817138671875
0.8918701171875
1.722509765625
1.9247314453125
2.2880859375
2.6135742187499997
2.302587890625
3.05185546875
2.410546875
1.9352050781249999
1.6781982421875
1.4888671875
1.41796875
1.409912109375
1.4115234374999999
1.3656005859375
1.3212890625
1.2930908203125
1.3551269531249999
1.36962890625
1.3752685546874999
1.490478515625
2.695751953125
1.603271484375
1.224609375
1.0513916015625
0.7597412109374999
0.49306640625
0.45036621093749996
0.5132080078125
0.7935791015625
1.281005859375
1.4348876953124998
1.5533203125
1.619384765625
1.7603759765625
1.7748779296875
1.764404296875
1.7909912109375
1.7660156249999999
1.7426513671875
1.7265380859375
1.5460693359375
0.30051269531249997
1.513037109375
1.9352050781249999
2.164013671875
2.2107421874999997
2.4693603515625
3.0478271484375
2.70380859375
1.9424560546874998
1.6564453124999998
1.5154541015624998
1.4364990234375
1.4066894531249998
1.3768798828125
1.3599609375
1.3124267578125
1.3172607421875
1.364794921875
1.3768798828125
1.384130859375
1.3946044921874998
2.7988769531249997
1.6540283203125
1.3059814453124998
1.164990234375
0.8830078124999999
0.5132080078125
0.16838378906249998
0.47775878906249997
0.7661865234374999
1.1545166015625
1.3825195312499998
1.5589599609375
1.625830078125
1.7555419921875
1.7684326171875
1.7499023437499999
1.791796875
1.7474853515625
1.7442626953125
1.7297607421874999
1.722509765625
0.2441162109375
1.47275390625
1.8635009765625
2.0488037109375
2.2171875
2.1301757812499997
2.8625244140625
2.9092529296875
2.1632080078125
1.7934082031249998
1.5243164062499999
1.4228027343749998
1.4115234374999999
1.3583496093749998
1.3583496093749998
1.377685546875
1.3229003906249999
1.3599609375
1.3470703124999999
1.3672119140624999
1.37607421875
2.7424804687499997
1.996435546875
1.3817138671875
1.184326171875
0.9821044921875
1.329345703125
0.153076171875
0.49387207031249997
0.65419921875
0.97646484375
1.3607666015625
1.51787109375
1.5476806640624998
1.7579589843749999
1.767626953125
1.7700439453124999
1.7901855468749999
1.754736328125
1.7539306640624999
1.738623046875
1.71123046875
0.20463867187499998
1.0723388671875
1.8651123046875
2.0504150390625
2.3050048828125
1.9408447265625
2.8174072265624996
3.0510498046874996
2.3388427734375
1.7942138671874999
1.574267578125
1.458251953125
1.4139404296875
1.3599609375
1.3833251953124999
1.3551269531249999
1.327734375
1.351904296875
1.3470703124999999
1.3728515625
1.3825195312499998
1.8473876953125
2.0858642578124997
1.413134765625
1.2189697265625
0.9772705078124999
1.2673095703125
0.8024414062499999
0.2989013671875
0.6308349609374999
0.992578125
1.3301513671874998
1.513037109375
1.5645996093749999
1.706396484375
1.73056640625
1.7700439453124999
1.8111328125
1.7724609375
1.7668212890625
1.7442626953125
1.7184814453125
1.11181640625
1.019970703125
1.7378173828124999
1.944873046875
2.280029296875
2.4210205078125
2.23974609375
3.05185546875
2.3420654296875
1.90458984375
1.6411376953124999
1.464697265625
1.4268310546874998
1.3873535156249999
1.3986328124999998
1.384130859375
1.3148437499999999
1.3704345703124998
1.3639892578125
1.36962890625
1.3639892578125
1.6806152343749998
2.5467041015625
1.5807128906249999
1.2342773437499999
1.01513671875
0.6114990234375
0.87333984375
0.49064941406249996
0.5196533203125
0.8161376953124999
1.2745605468749999
1.43408203125
1.5492919921875
1.703173828125
1.7531249999999998
1.7732666015624998
1.8006591796875
1.73056640625
1.7579589843749999
1.7507080078125
1.7176757812499999
1.405078125
0.39638671875
1.7096191406249999
1.9327880859375
2.16884765625
2.2856689453125
2.2872802734374997
3.050244140625
2.8286865234375
1.9891845703125
1.6886718749999998
1.5235107421874998
1.4252197265625
1.4034667968749999
1.351904296875
1.3301513671874998
1.3140380859374998
1.2447509765625
1.3639892578125
1.3744628906249998
1.3768798828125
1.3817138671875
2.63935546875
1.574267578125
1.271337890625
1.139208984375
0.6735351562499999
0.54140625
0.23203125
0.5051513671875
0.8201660156249999
1.1657958984374999
1.3744628906249998
1.5492919921875
1.6218017578125
1.740234375
1.7587646484375
1.7821289062499999
1.8578613281249998
1.7764892578125
1.7499023437499999
1.73056640625
1.7039794921875
0.32065429687499997
1.5299560546875
1.8884765625
2.1535400390625
2.2341064453125
2.4177978515625
3.0510498046874996
2.7513427734375
2.1076171875
1.7378173828124999
1.5146484375
1.4300537109375
1.4348876953124998
1.37607421875
1.3639892578125
1.3333740234375
1.3285400390625
1.3744628906249998
1.3639892578125
1.368017578125
1.3712402343749999
2.8109619140624997
1.909423828125
1.2987304687499999
1.1641845703125
1.0046630859374999
0.4761474609375
0.1941650390625
0.47373046874999997
0.7033447265624999
1.18916015625
1.3994384765624999
1.5122314453124999
1.6040771484374998
1.7579589843749999
1.7635986328125
1.7595703125
1.8280517578125
1.7635986328125
1.7684326171875
1.735400390625
1.706396484375
0.1071533203125
1.1931884765625
1.8957275390625
2.0431640625
2.26875
2.2276611328125
3.05185546875
3.0470214843749996
2.0810302734375
1.735400390625
1.5605712890624999
1.4356933593749999
1.432470703125
1.3833251953124999
1.3744628906249998
1.36962890625
1.2914794921875
1.332568359375
1.35673828125
1.3704345703124998
1.3817138671875
2.141455078125
1.9795166015624999
1.3825195312499998
1.203662109375
0.9885498046875
1.32451171875
0.5615478515625
0.5180419921875
0.6533935546874999
0.9933837890624999
1.2890625
1.4848388671875
1.5412353515625
1.7265380859375
1.7700439453124999
1.799853515625
1.77890625
1.75634765625
1.7603759765625
1.7458740234374999
1.7249267578124998
0.214306640625
1.0594482421875
1.7120361328125
2.0423583984375
2.321923828125
2.16884765625
2.238134765625
3.0462158203125
2.43955078125
1.9198974609375
1.5887695312499999
1.4751708984374998
1.4300537109375
1.3583496093749998
1.3656005859375
1.3656005859375
1.3108154296874999
1.340625
1.3583496093749998
1.3527099609375
1.3543212890624998
1.9456787109375
2.418603515625
1.3986328124999998
1.2310546875
1.0030517578125
0.5905517578125
0.7178466796874999
0.4471435546875
0.5518798828125
0.8749511718749999
1.3092041015625
1.4526123046875
1.538818359375
1.7039794921875
1.716064453125
1.7474853515625
1.82724609375
1.7781005859374999
1.7684326171875
1.748291015625
1.716064453125
1.0650878906249999
0.5502685546875
1.716064453125
1.9521240234375
2.1793212890625
2.3340087890625
2.2187988281249997
3.050244140625
2.5869873046875
1.8892822265625
1.651611328125
1.4953124999999998
1.4091064453125
1.3736572265625
1.3639892578125
1.3317626953125
1.3212890625
1.2963134765625
1.35673828125
1.3994384765624999
1.3962158203125
1.3817138671875
2.5305908203125
1.55009765625
1.271337890625
0.9917724609374999
0.594580078125
0.708984375
0.2376708984375
0.5518798828125
0.845947265625
1.2044677734375
1.3720458984375
1.5605712890624999
1.6701416015625
1.7507080078125
1.7579589843749999
1.7611816406249998
1.861083984375
1.7732666015624998
1.7692382812499998
1.7394287109375
1.7055908203124999
0.4874267578125
1.6177734375
1.8973388671875
2.1591796875
2.3203125
2.6611083984375
3.050244140625
2.6788330078125
2.0625
1.72734375
1.50498046875
1.4284423828125
1.4348876953124998
1.3921875
1.3583496093749998
1.36962890625
1.2447509765625
1.3430419921874999
1.3510986328124999
1.3664062499999998
1.3792968749999999
2.8609130859375
1.7982421874999999
1.2697265624999998
1.139208984375
1.0191650390625
0.575244140625
0.2972900390625
0.488232421875
0.726708984375
1.1754638671875
1.3929931640625
1.5106201171875
1.619384765625
1.7466796875
1.7660156249999999
1.8087158203125
1.8385253906249999
1.7587646484375
1.7531249999999998
1.7370117187499998
1.7096191406249999
0.14421386718749998
1.2173583984375
1.8828369140624999
2.0657226562499997
2.238134765625
2.5144775390625
2.921337890625
3.0542724609375
2.164013671875
1.767626953125
1.561376953125
1.4461669921875
1.413134765625
1.3921875
1.364794921875
1.3784912109374998
1.3011474609375
1.3229003906249999
1.345458984375
1.3494873046875
1.3583496093749998
2.341259765625
1.88525390625
1.3607666015625
1.198828125
1.0086914062499999
1.2101074218749999
0.4568115234375
0.49306640625
0.7114013671874999
1.0481689453125
1.316455078125
1.5146484375
1.5645996093749999
1.72734375
1.7418457031249999
1.7458740234374999
1.8280517578125
1.7829345703125
1.7748779296875
1.7539306640624999
1.7152587890625
0.1329345703125
1.2109130859375
1.7829345703125
2.0173828124999997
2.2389404296874997
1.92392578125
2.4443847656249997
3.0357421875
2.2518310546875
1.8312744140625
1.5460693359375
1.4590576171874998
1.4139404296875
1.3688232421875
1.3551269531249999
1.3188720703124999
1.3333740234375
1.351904296875
1.368017578125
1.3704345703124998
1.3792968749999999
2.20751953125
2.3098388671875
1.3784912109374998
1.1996337890625
0.9635742187499999
0.8056640625
0.6018310546875
0.3826904296875
0.5808837890624999
1.0248046874999999
1.3148437499999999
1.482421875
1.5484863281249999
1.7168701171874998
1.7297607421874999
1.7579589843749999
1.8175781249999998
1.7700439453124999
1.7700439453124999
1.7426513671875
1.714453125
0.7476562499999999
0.6977050781249999
1.764404296875
1.98837890625
2.231689453125
2.0923095703125
2.26552734375
3.0550781249999996
2.6232421875
1.883642578125
1.61455078125
1.4711425781249998
1.4461669921875
1.4203857421875
1.3921875
1.3527099609375
1.3019531249999998
1.300341796875
1.335791015625
1.364794921875
1.3736572265625
1.3857421875
2.386376953125
1.5073974609374998
1.239111328125
0.9732421874999999
0.6678955078125
0.84755859375
0.407666015625
0.5736328125
0.8773681640625
1.203662109375
1.4622802734375
1.53720703125
1.6572509765624999
1.7490966796874998
1.7635986328125
1.8038818359375
1.799853515625
1.7555419921875
1.74345703125
1.7362060546875
1.0328613281249999
0.5849121093749999
1.6290527343749999
1.8755859375
2.2107421874999997
2.5112548828124996
2.6514404296875
3.050244140625
2.6981689453124997
2.0689453125
1.62744140625
1.4848388671875
1.4139404296875
1.397021484375
1.377685546875
1.3704345703124998
1.351904296875
1.3027587890624999
1.3575439453125
1.3656005859375
1.393798828125
1.3873535156249999
2.8431884765624997
1.7104248046875
1.2350830078125
1.1021484375
1.0272216796875
0.7283203125
0.25217285156249997
0.515625
0.7516845703124999
1.2310546875
1.40830078125
1.53720703125
1.6427490234375
1.7474853515625
1.7692382812499998
1.7579589843749999
1.8788085937499999
1.7692382812499998
1.7555419921875
1.72412109375
1.7015624999999999
0.16032714843749998
1.6242187499999998
1.88525390625
2.075390625
2.40087890625
2.6748046875
3.053466796875
2.9447021484375
2.054443359375
1.7096191406249999
1.5146484375
1.4284423828125
1.4228027343749998
1.377685546875
1.36962890625
1.3156494140625
1.316455078125
1.3390136718749999
1.3599609375
1.3849365234375
1.3825195312499998
2.8657470703124996
1.7764892578125
1.33740234375
1.139208984375
1.0223876953125
0.961962890625
0.301318359375
0.49790039062499997
0.7299316406249999
1.0892578124999999
1.3921875
1.53720703125
1.590380859375
1.7362060546875
1.7595703125
1.7579589843749999
1.79501953125
1.7531249999999998
1.7571533203124998
1.7313720703125
1.7015624999999999
0.1345458984375
1.2689208984375
1.7926025390625
2.0649169921875
2.26552734375
1.851416015625
2.9261718749999996
3.0478271484375
2.3420654296875
1.7692382812499998
1.5645996093749999
1.4397216796874999
1.4348876953124998
1.3897705078125
1.3470703124999999
1.3414306640625
1.2777832031249998
1.3204833984375
1.3470703124999999
1.364794921875
1.3712402343749999
2.4161865234374997
2.1946289062499997
1.3341796874999998
1.1939941406249999
0.94423828125
1.1617675781249999
0.285205078125
0.5043457031249999
0.604248046875
1.0513916015625
1.3148437499999999
1.4759765624999999
1.5541259765625
1.7507080078125
1.7619873046874999
1.7660156249999999
1.8119384765625
1.7668212890625
1.7579589843749999
1.74345703125
1.7120361328125
0.5196533203125
1.239111328125
1.791796875
1.9956298828124999
2.2663330078125
1.9037841796875
2.357373046875
3.050244140625
2.2679443359375
1.8336914062499998
1.5992431640625
1.5202880859374999
1.4356933593749999
1.3631835937499999
1.405078125
1.3470703124999999
1.33740234375
1.361572265625
1.3631835937499999
1.37607421875
1.3833251953124999
1.4622802734375
2.2760009765625
1.474365234375
1.219775390625
0.9353759765624999
0.8612548828125
0.9345703125
0.35771484374999996
0.6131103515624999
0.9160400390625
1.2576416015624998
1.4783935546875
1.5428466796875
1.6927001953124998
1.767626953125
1.767626953125
1.7748779296875
1.8046875
1.7603759765625
1.716064453125
1.6846435546874998
0.6533935546874999
0.78310546875
1.7055908203124999
2.0085205078125
2.2228271484374997
2.6748046875
2.5064208984375
3.0486328124999997
2.487890625
1.98515625
1.6089111328124999
1.47275390625
1.4219970703125
1.3954101562499999
1.3913818359374999
1.3631835937499999
1.3229003906249999
1.34384765625
1.3422363281249998
1.364794921875
1.3720458984375
1.3897705078125
2.7811523437499996
1.5033691406249998
1.2270263671875
1.0675048828125
0.9418212890625
0.8918701171875
0.36979980468749996
0.50595703125
0.8846191406249999
1.2350830078125
1.4348876953124998
1.5355957031249998
1.67578125
1.7490966796874998
1.7611816406249998
1.7845458984375
1.7853515624999998
1.7692382812499998
1.7474853515625
1.7217041015624999
1.6991455078125
0.20705566406249998
1.65
1.9134521484375
2.1035888671875
2.5676513671874996
2.62646484375
3.0204345703124997
3.0429931640624996
2.0745849609375
1.73056640625
1.546875
1.42119140625
1.4187744140624998
1.3817138671875
1.3575439453125
1.3462646484374998
1.2987304687499999
1.3478759765625
1.3502929687499998
1.3752685546874999
1.3712402343749999
2.824658203125
1.6862548828125
1.3140380859374998
1.0868408203125
0.9998291015624999
0.6775634765624999
0.1377685546875
0.49064941406249996
0.765380859375
1.1126220703125
1.40830078125
1.5444580078124999
1.5968261718749999
1.7555419921875
1.7668212890625
1.754736328125
1.8062988281249999
1.77890625
1.76279296875
1.7337890624999999
1.69833984375
0.1780517578125
1.3929931640625
1.843359375
2.070556640625
2.225244140625
1.8981445312499998
3.0526611328124997
2.9503417968749996
2.196240234375
1.69189453125
1.5194824218749998
1.4244140625
1.432470703125
1.3688232421875
1.3462646484374998
1.3059814453124998
1.3261230468749998
1.37607421875
1.3656005859375
1.380908203125
1.3881591796875
2.5894042968749997
2.1164794921875
1.3422363281249998
1.18916015625
0.9490722656249999
0.8693115234375
0.3021240234375
0.4229736328125
0.6356689453125
1.103759765625
1.3341796874999998
1.4912841796874998
1.587158203125
1.7458740234374999
1.77568359375
1.75634765625
1.8183837890624999
1.7603759765625
1.7635986328125
1.7313720703125
1.7072021484375
0.3665771484375
1.3156494140625
1.8022705078124999
2.012548828125
2.231689453125
1.8328857421875
2.5845703125
3.050244140625
2.2349121093749997
1.8312744140625
1.5911865234375
1.4510009765624998
1.4501953125
1.36962890625
1.348681640625
1.35673828125
1.2898681640624998
1.3309570312499999
1.348681640625
1.3688232421875
1.37607421875
2.4822509765625
2.1632080078125
1.4397216796874999
1.1939941406249999
0.9611572265624999
1.106982421875
0.8926757812499999
0.51884765625
0.6171386718749999
0.9402099609375
1.3140380859374998
1.464697265625
1.53720703125
1.6991455078125
1.770849609375
1.791796875
1.7958251953125
1.76279296875
1.7603759765625
1.7499023437499999
1.7200927734375
0.5406005859374999
0.84755859375
1.6806152343749998
1.9867675781249998
2.2832519531249997
2.6280761718749996
2.36865234375
3.0462158203125
2.599072265625
1.8820312499999998
1.6322753906249998
1.474365234375
1.426025390625
1.3720458984375
1.4203857421875
1.3575439453125
1.3011474609375
1.34384765625
1.3462646484374998
1.3639892578125
1.3664062499999998
1.4767822265625
2.698974609375
1.461474609375
1.21494140625
1.0634765625
0.90556640625
0.8958984375
0.346435546875
0.517236328125
0.9031494140624999
1.252001953125
1.4244140625
1.5476806640624998
1.6733642578124999
1.7531249999999998
1.7764892578125
1.8022705078124999
1.783740234375
1.7692382812499998
1.7442626953125
1.7136474609374999
1.5799072265624998
0.2900390625
1.703173828125
1.928759765625
2.1084228515625
2.6562744140624996
2.4749999999999996
3.050244140625
2.4749999999999996
1.9634033203124999
1.658056640625
1.5041748046874999
1.4171630859375
1.41796875
1.368017578125
1.3527099609375
1.329345703125
1.3365966796875
1.3639892578125
1.3664062499999998
1.3792968749999999
1.3768798828125
2.7835693359375
1.65
1.303564453125
1.0763671875
0.9216796875
0.533349609375
0.2972900390625
0.533349609375
0.7774658203125
1.1512939453125
1.4219970703125
1.546875
1.6306640625
1.764404296875
1.7764892578125
1.7579589843749999
1.812744140625
1.770849609375
1.7394287109375
1.719287109375
1.6798095703125
0.20061035156249998
1.4389160156249998
1.88525390625
2.0923095703125
2.205908203125
2.047998046875
3.0462158203125
2.9261718749999996
2.1889892578125
1.7120361328125
1.5364013671874999
1.4276367187499999
1.4284423828125
1.3768798828125
1.3623779296874998
1.3607666015625
1.2914794921875
1.35673828125
1.3478759765625
1.368017578125
1.3792968749999999
2.7183105468749997
1.6846435546874998
1.3100097656249998
1.2157470703125
0.992578125
0.6413085937499999
0.1699951171875
0.4890380859375
0.7476562499999999
1.0836181640625
1.3583496093749998
1.5090087890625
1.5815185546875
1.7523193359375
1.76279296875
1.7845458984375
1.7668212890625
1.7394287109375
1.7531249999999998
1.7450683593749998
1.7047851562499998
0.23928222656249998
1.4010498046875
1.8715576171875
2.028662109375
2.2244384765625
1.91748046875
2.6772216796875
3.0027099609374996
2.2163818359375
1.803076171875
1.5791015625
1.4501953125
1.4284423828125
1.3599609375
1.3543212890624998
1.3639892578125
1.3027587890624999
1.3502929687499998
1.3446533203125
1.36962890625
1.3688232421875
2.5958496093749996
2.101171875
1.4195800781249999
1.18271484375
0.978076171875
1.252001953125
0.2771484375
0.456005859375
0.6380859375
0.958740234375
1.340625
1.5041748046874999
1.561376953125
1.7740722656249999
1.796630859375
1.770849609375
1.8119384765625
1.7652099609374998
1.7635986328125
1.7345947265625
1.6854492187499999
0.298095703125
0.97646484375
1.8183837890624999
2.022216796875
2.281640625
2.4870849609374996
2.6917236328125
3.0494384765625
2.3678466796874997
1.8095214843749998
1.5815185546875
1.4598632812499999
1.4364990234375
1.3599609375
1.4244140625
1.3631835937499999
1.3365966796875
1.3672119140624999
1.3527099609375
1.3817138671875
1.3664062499999998
1.6451660156249999
2.176904296875
1.4606689453125
1.229443359375
1.0433349609375
1.12470703125
0.9112060546874999
0.40122070312499997
0.6034423828125
0.9192626953124999
1.2544189453124999
1.4348876953124998
1.5444580078124999
1.7128417968749998
1.7531249999999998
1.7531249999999998
1.7893798828124998
1.74345703125
1.7603759765625
1.7418457031249999
1.7426513671875
1.44052734375
0.8668945312499999
1.67900390625
1.9078125
2.3009765625
2.6337158203124997
2.341259765625
3.0446044921874997
2.5458984375
1.9891845703125
1.6886718749999998
1.4767822265625
1.4171630859375
1.41796875
1.4115234374999999
1.364794921875
1.3365966796875
1.335791015625
1.3309570312499999
1.340625
1.3430419921874999
1.5243164062499999
2.7094482421875
1.625830078125
1.219775390625
1.0578369140625
0.7420166015624999
0.8983154296875
0.4874267578125
0.47453613281249996
0.791162109375
1.2286376953125
1.4364990234375
1.5565429687499999
1.6773925781249999
1.764404296875
1.7523193359375
1.8038818359375
1.7611816406249998
1.7660156249999999
1.7523193359375
1.722509765625
1.5557373046874998
0.2570068359375
1.480810546875
1.88525390625
2.1301757812499997
2.2365234375
2.4371337890625
3.0478271484375
2.850439453125
2.0093261718749997
1.683837890625
1.5146484375
1.432470703125
1.40185546875
1.36962890625
1.351904296875
1.3148437499999999
1.31162109375
1.3664062499999998
1.3817138671875
1.384130859375
1.3752685546874999
2.827880859375
1.6532226562499999
1.2955078125
1.173046875
0.863671875
0.4729248046875
0.20947265625
0.5148193359375
0.781494140625
1.15693359375
1.38896484375
1.5299560546875
1.5976318359375
1.7531249999999998
1.7797119140625
1.7813232421874998
1.8409423828125
1.7684326171875
1.7660156249999999
1.7450683593749998
1.7055908203124999
0.1941650390625
1.456640625
1.8683349609375
2.09150390625
2.2034912109375
2.147900390625
3.0405761718749997
2.827880859375
2.1438720703125
1.7853515624999998
1.5275390624999998
1.4187744140624998
1.4332763671875
1.3897705078125
1.3744628906249998
1.353515625
1.3180664062499998
1.3704345703124998
1.3575439453125
1.3857421875
1.3865478515624998
2.7884033203125
2.0246337890625
1.3124267578125
1.1835205078125
0.9958007812499999
1.335791015625
0.13857421875
0.48581542968749997
0.6340576171875
1.1174560546874999
1.353515625
1.5186767578125
1.554931640625
1.751513671875
1.7700439453124999
1.7555419921875
1.791796875
1.735400390625
1.740234375
1.732177734375
1.719287109375
0.2038330078125
1.061865234375
1.8570556640625
2.060888671875
2.318701171875
1.98193359375
2.7755126953125
3.0494384765625
2.254248046875
1.8232177734375
1.6008544921874999
1.474365234375
1.44052734375
1.3720458984375
1.3768798828125
1.35673828125
1.2858398437499998
1.3309570312499999
1.3478759765625
1.35673828125
1.3744628906249998
1.9231201171874999
2.0826416015625
1.413134765625
1.2157470703125
0.958740234375
1.3019531249999998
0.717041015625
0.48662109374999996
0.6123046875
0.9635742187499999
1.2777832031249998
1.4920898437499999
1.5355957031249998
1.69189453125
1.7635986328125
1.7539306640624999
1.8224121093749999
1.7724609375
1.7716552734375
1.7474853515625
1.716064453125
0.25620117187499997
0.974853515625
1.6951171875
2.0230224609375
2.27841796875
2.3879882812499997
2.1889892578125
3.0542724609375
2.4306884765625
1.9513183593749999
1.587158203125
1.4791992187499998
1.4276367187499999
1.3583496093749998
1.4010498046875
1.3583496093749998
1.3253173828125
1.3656005859375
1.3656005859375
1.36962890625
1.37607421875
1.7176757812499999
2.5918212890624996
1.4477783203124999
1.2141357421874999
1.0127197265624999
0.578466796875
0.8709228515624999
0.3053466796875
0.5325439453124999
0.9555175781249999
1.2769775390625
1.4389160156249998
1.5460693359375
1.7015624999999999
1.7442626953125
1.7700439453124999
1.8183837890624999
1.7635986328125
1.7877685546875
1.7458740234374999
1.7047851562499998
1.297119140625
0.3794677734375
1.7039794921875
1.9311767578124999
2.1720703125
2.5894042968749997
2.2751953124999997
3.0494384765625
2.4258544921875
1.9505126953124998
1.6532226562499999
1.5001464843749999
1.4244140625
1.4300537109375
1.3881591796875
1.3720458984375
1.3092041015625
1.26005859375
1.3390136718749999
1.3728515625
1.3849365234375
1.3929931640625
2.69091796875
1.5927978515624999
1.2745605468749999
1.0272216796875
0.6727294921875
0.517236328125
0.191748046875
0.5051513671875
0.78955078125
1.1367919921875
1.3986328124999998
1.5347900390625
1.6250244140624999
1.7764892578125
1.7853515624999998
1.8111328125
1.832080078125
1.7635986328125
1.748291015625
1.7337890624999999
1.464697265625
0.2972900390625
1.5162597656249999
1.9062011718749998
2.131787109375
2.2228271484374997
2.45888671875
3.05185546875
2.8536621093749996
2.151123046875
1.6951171875
1.5331787109375
1.4276367187499999
1.4066894531249998
1.38896484375
1.3607666015625
1.3664062499999998
1.2769775390625
1.3462646484374998
1.353515625
1.3784912109374998
1.3857421875
2.8689697265625
1.6411376953124999
1.3027587890624999
1.1577392578124999
0.9901611328125
0.472119140625
0.1393798828125
0.4713134765625
0.7718261718749999
1.1408203125
1.3728515625
1.5162597656249999
1.619384765625
1.7555419921875
1.7635986328125
1.7611816406249998
1.82724609375
1.7772949218749998
1.754736328125
1.7499023437499999
1.714453125
0.08701171875
1.4606689453125
1.8667236328124999
2.05283203125
2.196240234375
2.1946289062499997
3.05185546875
2.792431640625
2.1325927734375
1.748291015625
1.5718505859374998
1.4236083984374999
1.43408203125
1.364794921875
1.35673828125
1.3446533203125
1.3317626953125
1.3801025390625
1.36962890625
1.380908203125
1.3905761718749998
2.8190185546874997
2.0004638671875
1.3817138671875
1.1899658203124999
0.990966796875
1.3390136718749999
0.20061035156249998
0.45439453124999996
0.6429199218749999
0.9861328125
1.364794921875
1.5041748046874999
1.5525146484374999
1.7442626953125
1.7797119140625
1.77568359375
1.82724609375
1.7740722656249999
1.7660156249999999
1.74345703125
1.6951171875
0.133740234375
1.0691162109374999
1.8409423828125
2.0181884765625
2.2937255859375
2.173681640625
2.898779296875
3.0494384765625
2.3646240234375
1.8038818359375
1.577490234375
1.464697265625
1.4381103515625
1.3736572265625
1.37607421875
1.3607666015625
1.2866455078124999
1.3309570312499999
1.353515625
1.3825195312499998
1.3849365234375
1.9674316406249999
2.0665283203125
1.416357421875
1.22138671875
0.968408203125
1.3148437499999999
0.6670898437499999
0.5220703125
0.6098876953125
0.952294921875
1.2802001953125
1.4381103515625
1.5364013671874999
1.714453125
1.7217041015624999
1.7926025390625
1.7635986328125
1.7370117187499998
1.7507080078125
1.754736328125
1.7233154296875
1.0691162109374999
1.0078857421875
1.7345947265625
1.957763671875
2.3017822265625
2.354150390625
2.1680419921875
3.050244140625
2.4596923828125
1.9392333984374999
1.658056640625
1.4606689453125
1.4364990234375
1.400244140625
1.397021484375
1.3575439453125
1.319677734375
1.351904296875
1.3543212890624998
1.3768798828125
1.3857421875
1.7668212890625
2.5813476562499997
1.56298828125
1.21494140625
0.9949951171875
0.5736328125
0.8548095703124999
0.43828124999999996
0.5132080078125
0.816943359375
1.2584472656249999
1.44052734375
1.5541259765625
1.6991455078125
1.7418457031249999
1.7692382812499998
1.770849609375
1.7772949218749998
1.7716552734375
1.7499023437499999
1.7120361328125
1.21494140625
0.4036376953125
1.7104248046875
1.9352050781249999
2.1664306640624997
2.309033203125
2.270361328125
3.04541015625
2.6216308593749997
1.9223144531249998
1.641943359375
1.5001464843749999
1.4123291015625
1.380908203125
1.3744628906249998
1.3365966796875
1.3365966796875
1.2890625
1.368017578125
1.3825195312499998
1.3873535156249999
1.3881591796875
2.6748046875
1.590380859375
1.2866455078124999
1.1577392578124999
0.6574218749999999
0.5526855468749999
0.1998046875
0.5260986328125
0.7887451171875
1.1609619140625
1.36962890625
1.5315673828124998
1.6564453124999998
1.767626953125
1.7611816406249998
1.75634765625
1.864306640625
1.7716552734375
1.7555419921875
1.7289550781249998
1.6943115234375
0.3150146484375
1.53076171875
1.87236328125
2.1503173828124997
2.2324951171875
2.5031982421874996
3.0566894531249997
2.8230468749999997
2.141455078125
1.767626953125
1.513037109375
1.4316650390624999
1.4381103515625
1.3857421875
1.3712402343749999
1.3591552734374999
1.2930908203125
1.3462646484374998
1.3510986328124999
1.3720458984375
1.3728515625
2.8802490234375
1.9005615234375
1.2850341796875
1.1698242187499999
1.013525390625
0.4970947265625
0.21269531249999998
0.459228515625
0.6662841796875
1.1416259765624999
1.3575439453125
1.49853515625
1.6008544921874999
1.7531249999999998
1.7748779296875
1.8046875
1.7909912109375
1.7466796875
1.7523193359375
1.7337890624999999
1.7055908203124999
0.0966796875
1.458251953125
1.8586669921874999
2.0536376953124997
2.302587890625
2.2598876953125
2.947119140625
3.0470214843749996
2.160791015625
1.7781005859374999
1.56298828125
1.4429443359374998
1.4236083984374999
1.3825195312499998
1.3575439453125
1.3720458984375
1.316455078125
1.335791015625
1.3551269531249999
1.3688232421875
1.37607421875
2.81015625
2.0004638671875
1.3905761718749998
1.1947998046875
0.9974121093749999
1.3237060546875
0.62197265625
0.472119140625
0.6405029296875
0.9990234375
1.3180664062499998
1.5122314453124999
1.5565429687499999
1.714453125
1.7692382812499998
1.7668212890625
1.8280517578125
1.7652099609374998
1.7539306640624999
1.7370117187499998
1.6967285156249998
0.1168212890625
1.1093994140624999
1.7426513671875
2.03671875
2.280029296875
2.1180908203124997
3.0494384765625
3.053466796875
2.29453125
1.880419921875
1.5662109375
1.4630859374999998
1.416357421875
1.3446533203125
1.3551269531249999
1.3623779296874998
1.3220947265624998
1.3583496093749998
1.3510986328124999
1.36962890625
1.38896484375
2.018994140625
2.4613037109375
1.4115234374999999
1.2262207031249999
0.9853271484374999
1.3317626953125
0.734765625
0.42941894531249997
0.5204589843749999
0.966796875
1.2721435546875
1.4550292968749998
1.5428466796875
1.7136474609374999
1.716064453125
1.751513671875
1.8022705078124999
1.7531249999999998
1.76279296875
1.740234375
1.7184814453125
1.0610595703124999
1.0086914062499999
1.7072021484375
1.93681640625
2.2107421874999997
2.3082275390625
2.20107421875
3.0542724609375
2.4741943359375
1.9529296875
1.6612792968749999
1.4687255859375
1.426025390625
1.405078125
1.3752685546874999
1.35673828125
1.319677734375
1.2608642578125
1.3470703124999999
1.3591552734374999
1.3768798828125
1.8199951171875
2.5418701171875
1.5557373046874998
1.2503906249999999
0.9974121093749999
0.5679931640625
0.7049560546875
0.507568359375
0.5204589843749999
0.833056640625
1.1706298828125
1.4348876953124998
1.5597656249999998
1.6508056640625
1.7370117187499998
1.751513671875
1.815966796875
1.7378173828124999
1.764404296875
1.751513671875
1.735400390625
1.197216796875
0.452783203125
1.58232421875
1.9408447265625
2.18173828125
2.3372314453125
2.2196044921875
3.0462158203125
2.6868896484375
2.0697509765624997
1.654833984375
1.506591796875
1.4244140625
1.400244140625
1.3784912109374998
1.353515625
1.3229003906249999
1.2826171874999999
1.3591552734374999
1.3712402343749999
1.380908203125
1.3664062499999998
2.889111328125
1.5927978515624999
1.2858398437499998
1.139208984375
0.6348632812499999
0.559130859375
0.20302734374999998
0.5003173828124999
0.8048583984375
1.1722412109375
1.3929931640625
1.546875
1.6290527343749999
1.75634765625
1.754736328125
1.76279296875
1.877197265625
1.7813232421874998
1.7595703125
1.732177734375
1.6935058593749999
0.34562988281249996
1.5517089843749998
1.8731689453125
2.0697509765624997
2.2494140625
2.5402587890625
3.0478271484375
2.6619140624999997
2.080224609375
1.72412109375
1.51787109375
1.4493896484375
1.45341796875
1.3857421875
1.3575439453125
1.3639892578125
1.3075927734375
1.3543212890624998
1.3688232421875
1.3784912109374998
1.3784912109374998
2.882666015625
1.8868652343749999
1.3502929687499998
1.1408203125
1.0385009765625
1.2342773437499999
0.1861083984375
0.49306640625
0.6678955078125
1.018359375
1.3599609375
1.5122314453124999
1.561376953125
1.7700439453124999
1.767626953125
1.8062988281249999
1.79501953125
1.7418457031249999
1.74345703125
1.735400390625
1.7055908203124999
0.11279296875
1.1698242187499999
1.8578613281249998
2.0415527343749997
2.2751953124999997
2.3452880859375
2.900390625
3.050244140625
2.3871826171875
1.7821289062499999
1.5799072265624998
1.4622802734375
1.4381103515625
1.3857421875
1.3664062499999998
1.3599609375
1.2777832031249998
1.3188720703124999
1.3422363281249998
1.3736572265625
1.3857421875
2.230078125
1.9432617187499999
1.3510986328124999
1.219775390625
0.9974121093749999
1.3220947265624998
0.488232421875
0.4833984375
0.662255859375
1.007080078125
1.2955078125
1.5194824218749998
1.5573486328125
1.719287109375
1.7410400390624998
1.7499023437499999
1.8014648437499998
1.7531249999999998
1.7579589843749999
1.7490966796874998
1.7096191406249999
0.1426025390625
1.116650390625
1.7426513671875
1.964208984375
2.2840576171875
2.080224609375
2.2083251953125
3.0558837890625
2.3356201171874997
1.880419921875
1.5791015625
1.4461669921875
1.4308593749999998
1.3792968749999999
1.3672119140624999
1.32451171875
1.332568359375
1.3470703124999999
1.3575439453125
1.3720458984375
1.3833251953124999
2.0278564453125
2.4242431640624997
1.522705078125
1.2173583984375
0.966796875
0.6501708984375
0.7452392578125
0.3673828125
0.5663818359375
0.8612548828125
1.3011474609375
1.46953125
1.5525146484374999
1.7088134765624998
1.7217041015624999
1.7555419921875
1.8167724609375
1.7619873046874999
1.7684326171875
1.74345703125
1.7096191406249999
0.9555175781249999
0.5663818359375
1.7200927734375
1.9593749999999999
2.19140625
2.2695556640625
2.2276611328125
3.0494384765625
2.6039062499999996
1.9142578124999998
1.6475830078125
1.509814453125
1.4332763671875
1.4066894531249998
1.3833251953124999
1.3631835937499999
1.3019531249999998
1.271337890625
1.3470703124999999
1.364794921875
1.3736572265625
1.3728515625
2.50400390625
1.5492919921875
1.2536132812499998
1.1061767578125
0.58330078125
0.7395996093749999
0.322265625
0.5228759765625
0.833056640625
1.1754638671875
1.393798828125
1.5396240234374998
1.6475830078125
1.7523193359375
1.767626953125
1.7877685546875
1.8361083984375
1.754736328125
1.7442626953125
1.7289550781249998
1.6910888671875
0.4318359375
1.5782958984375
1.864306640625
2.1873779296875
2.341259765625
2.6868896484375
3.050244140625
2.8206298828125
2.14306640625
1.7579589843749999
1.5251220703125
1.4397216796874999
1.4236083984374999
1.3865478515624998
1.35673828125
1.3575439453125
1.255224609375
1.3382080078124998
1.345458984375
1.3639892578125
1.3736572265625
2.892333984375
1.7926025390625
1.281005859375
1.1271240234375
1.0401123046875
0.6171386718749999
0.19658203124999998
0.5148193359375
0.6993164062499999
1.181103515625
1.3784912109374998
1.5283447265624999
1.63388671875
1.7426513671875
1.7603759765625
1.7466796875
1.8780029296874998
1.7740722656249999
1.767626953125
1.7289550781249998
1.699951171875
0.10957031249999999
1.5517089843749998
1.8667236328124999
2.0576660156249997
2.2357177734375
2.5660400390625
3.0478271484375
3.0164062499999997
2.0923095703125
1.7136474609374999
1.5323730468749999
1.416357421875
1.4316650390624999
1.3712402343749999
1.3575439453125
1.3414306640625
1.3430419921874999
1.3527099609375
1.353515625
1.3623779296874998
1.3639892578125
2.872998046875
1.89169921875
1.3736572265625
1.2141357421874999
1.0223876953125
1.1899658203124999
0.43425292968749996
0.4761474609375
0.6920654296875
1.0489746093749999
1.33740234375
1.513037109375
1.5621826171875
1.7450683593749998
1.7668212890625
1.7635986328125
1.8095214843749998
1.7652099609374998
1.7531249999999998
1.7257324218749999
1.69833984375
0.1168212890625
1.2101074218749999
1.770849609375
2.054443359375
2.2623046875
1.9062011718749998
2.9704833984374996
3.0550781249999996
2.3074218749999997
1.8739746093749998
1.587158203125
1.4655029296875
1.4445556640625
1.3736572265625
1.3478759765625
1.3478759765625
1.2866455078124999
1.3237060546875
1.348681640625
1.3688232421875
1.3768798828125
2.2647216796875
2.3074218749999997
1.3583496093749998
1.200439453125
0.9635742187499999
1.313232421875
0.44150390624999997
0.507568359375
0.5865234375
1.0062744140625
1.2826171874999999
1.4655029296875
1.5412353515625
1.7128417968749998
1.7370117187499998
1.7781005859374999
1.78857421875
1.754736328125
1.7474853515625
1.7249267578124998
1.7136474609374999
0.8193603515625
1.1029541015625
1.7329833984374998
1.9625976562499998
2.2357177734375
2.0334960937499997
2.2115478515625
3.050244140625
2.4339111328125
1.92392578125
1.6371093749999999
1.4477783203124999
1.4276367187499999
1.3801025390625
1.3913818359374999
1.35673828125
1.3075927734375
1.319677734375
1.3502929687499998
1.35673828125
1.384130859375
2.0584716796875
2.4032958984375
1.5162597656249999
1.2366943359375
0.9676025390624999
0.6832031249999999
0.8515869140625
0.3955810546875
0.5607421874999999
0.8709228515624999
1.229443359375
1.4630859374999998
1.5533203125
1.6508056640625
1.7200927734375
1.751513671875
1.7700439453124999
1.7724609375
1.7635986328125
1.738623046875
1.72412109375
0.8958984375
0.58974609375
1.6475830078125
1.9666259765624998
2.1986572265624997
2.5233398437499996
2.647412109375
3.0510498046874996
2.566845703125
2.0173828124999997
1.6177734375
1.5041748046874999
1.4308593749999998
1.384130859375
1.3623779296874998
1.3583496093749998
1.332568359375
1.3237060546875
1.3575439453125
1.36962890625
1.3784912109374998
1.3897705078125
2.89072265625
1.5484863281249999
1.2753662109375
1.1061767578125
1.0167480468749999
0.7726318359375
0.27231445312499997
0.5083740234374999
0.845947265625
1.187548828125
1.3881591796875
1.5162597656249999
1.6693359374999999
1.7442626953125
1.748291015625
1.7668212890625
1.8498046874999998
1.7611816406249998
1.7611816406249998
1.738623046875
1.7168701171874998
0.1353515625
1.609716796875
1.8788085937499999
2.0697509765624997
2.39765625
2.7094482421875
3.0010986328125
2.98740234375
2.099560546875
1.7337890624999999
1.5557373046874998
1.43408203125
1.4348876953124998
1.3865478515624998
1.3664062499999998
1.3527099609375
1.2785888671874999
1.3422363281249998
1.3559326171875
1.364794921875
1.364794921875
2.8899169921874996
1.7764892578125
1.3317626953125
1.132763671875
1.0223876953125
0.974853515625
0.198193359375
0.468896484375
0.7154296874999999
1.071533203125
1.3801025390625
1.522705078125
1.5541259765625
1.7499023437499999
1.7652099609374998
1.799853515625
1.7821289062499999
1.7652099609374998
1.7531249999999998
1.7217041015624999
1.6959228515625
0.11279296875
1.3075927734375
1.8199951171875
2.0616943359374997
2.2486083984375
1.8417480468749998
3.0446044921874997
3.037353515625
2.247802734375
1.7200927734375
1.5428466796875
1.4622802734375
1.4373046875
1.3736572265625
1.34384765625
1.351904296875
1.3285400390625
1.3543212890624998
1.3631835937499999
1.3728515625
1.3873535156249999
2.45888671875
2.2026855468749997
1.3341796874999998
1.2052734375
0.952294921875
1.1190673828125
0.3826904296875
0.3923583984375
0.623583984375
1.069921875
1.3414306640625
1.4816162109375
1.571044921875
1.7466796875
1.7611816406249998
1.7426513671875
1.8143554687499999
1.780517578125
1.77568359375
