1.464697265625
1.4888671875
1.4373046875
1.3978271484375
1.393798828125
1.3954101562499999
1.3873535156249999
1.4389160156249998
1.445361328125
1.4332763671875
2.969677734375
2.028662109375
1.53720703125
1.3688232421875
1.2044677734375
1.303564453125
0.22236328125
0.4004150390625
0.6453369140624999
1.0546142578125
1.3309570312499999
1.5017578125
1.545263671875
1.7370117187499998
1.7426513671875
1.7120361328125
1.7579589843749999
1.7080078125
1.7088134765624998
1.6943115234375
1.6693359374999999
0.042700195312499994
1.1537109374999999
1.5976318359375
1.8240234375
2.07861328125
1.5557373046874998
2.183349609375
3.053466796875
2.2598876953125
1.8336914062499998
1.574267578125
1.4679199218749999
1.48564453125
1.4469726562499998
1.4203857421875
1.4066894531249998
1.3543212890624998
1.3583496093749998
1.4195800781249999
1.4147460937499998
1.4308593749999998
2.7972656249999996
2.50400390625
1.65966796875
1.3784912109374998
1.1158447265625
1.087646484375
0.33676757812499997
0.46970214843749997
0.53818359375
0.871728515625
1.3148437499999999
1.4735595703125
1.4993408203124998
1.6878662109375
1.6773925781249999
1.69833984375
1.7716552734375
1.6927001953124998
1.7345947265625
1.7047851562499998
1.6556396484375
0.0555908203125
0.604248046875
1.6040771484374998
1.7732666015624998
2.080224609375
1.6371093749999999
2.101171875
3.05185546875
2.3879882812499997
1.799853515625
1.5839355468749998
1.482421875
1.4961181640624999
1.405078125
1.4800048828124999
1.4284423828125
1.3768798828125
1.3905761718749998
1.4195800781249999
1.4195800781249999
1.4332763671875
1.4526123046875
2.599072265625
1.6975341796874999
1.3720458984375
1.1029541015625
0.8604492187499999
1.0723388671875
0.30454101562499997
0.5470458984375
0.87333984375
1.2608642578125
1.4719482421874999
1.5267333984375
1.6395263671875
1.7072021484375
1.7039794921875
1.7104248046875
1.8248291015625
1.7619873046874999
1.7257324218749999
1.6894775390624999
0.2771484375
0.4890380859375
1.4977294921875
1.683837890625
2.00771484375
2.6780273437499997
2.6127685546875
3.053466796875
2.383154296875
1.944873046875
1.59521484375
1.4896728515625
1.4381103515625
1.45341796875
1.4574462890625
1.4397216796874999
1.3801025390625
1.348681640625
1.4308593749999998
1.4284423828125
1.4493896484375
1.445361328125
3.053466796875
1.9037841796875
1.3833251953124999
1.2592529296875
1.1464599609375
0.952294921875
0.456005859375
0.42216796874999996
0.7146240234375
1.200439453125
1.4187744140624998
1.5082031249999999
1.6379150390625
1.72412109375
1.7458740234374999
1.7668212890625
1.7748779296875
1.7080078125
1.7104248046875
1.6749755859375
1.63388671875
0.045117187499999996
1.480810546875
1.6886718749999998
1.8949218749999999
2.410546875
2.7497314453125
3.05185546875
3.037353515625
2.05927734375
1.716064453125
1.5557373046874998
1.4606689453125
1.4896728515625
1.4461669921875
1.4155517578124999
1.4389160156249998
1.3430419921874999
1.3309570312499999
1.4123291015625
1.4373046875
1.4300537109375
3.0542724609375
1.9440673828125
1.4783935546875
1.27939453125
1.21171875
1.0127197265624999
0.130517578125
0.4036376953125
0.7307373046875
1.0868408203125
1.4066894531249998
1.5194824218749998
1.5412353515625
1.7168701171874998
1.7281494140625
1.706396484375
1.7781005859374999
1.7039794921875
1.6991455078125
1.683837890625
1.6266357421875
0.0475341796875
1.24716796875
1.635498046875
1.8618896484374998
2.03994140625
1.490478515625
3.0526611328124997
2.9906249999999996
2.1664306640624997
1.780517578125
1.561376953125
1.4711425781249998
1.5073974609374998
1.432470703125
1.4091064453125
1.3962158203125
1.4034667968749999
1.3784912109374998
1.4413330078125
1.4437499999999999
1.4115234374999999
2.924560546875
2.402490234375
1.51787109375
1.35673828125
1.103759765625
1.297119140625
0.37060546875
0.4680908203125
0.581689453125
1.0675048828125
1.3631835937499999
1.4848388671875
1.5509033203125
1.7208984374999998
1.7015624999999999
1.7176757812499999
1.7861572265624999
1.71123046875
1.732177734375
1.687060546875
1.654833984375
0.043505859375
0.7903564453124999
1.641943359375
1.80791015625
2.086669921875
1.490478515625
2.4911132812499996
3.0510498046874996
2.180126953125
1.77568359375
1.5887695312499999
1.5033691406249998
1.4872558593749998
1.4026611328124998
1.493701171875
1.413134765625
1.3430419921874999
1.442138671875
1.4300537109375
1.4284423828125
1.4461669921875
1.5847412109374999
2.4758056640625
1.6532226562499999
1.3817138671875
1.11181640625
1.0868408203125
1.1295410156249999
0.5083740234374999
0.5631591796875
0.903955078125
1.2584472656249999
1.4767822265625
1.5090087890625
1.6314697265625
1.6862548828125
1.7595703125
1.7660156249999999
1.8054931640624998
1.6959228515625
1.69189453125
1.6653076171874999
0.14501953125
0.5808837890624999
1.4977294921875
1.7740722656249999
2.0689453125
2.7247558593749996
2.4065185546875
3.053466796875
2.5144775390625
1.964208984375
1.611328125
1.4977294921875
1.4872558593749998
1.4115234374999999
1.461474609375
1.429248046875
1.4268310546874998
1.3801025390625
1.4195800781249999
1.4364990234375
1.4469726562499998
1.46953125
3.0236572265625
1.7080078125
1.3672119140624999
1.22138671875
1.0328613281249999
1.0385009765625
0.46647949218749996
0.45036621093749996
0.887841796875
1.2721435546875
1.4348876953124998
1.5275390624999998
1.6314697265625
1.6951171875
1.7257324218749999
1.7531249999999998
1.835302734375
1.716064453125
1.6854492187499999
1.6701416015625
1.5484863281249999
0.050756835937499994
1.5218994140625
1.7249267578124998
1.920703125
2.6039062499999996
2.631298828125
3.0558837890625
2.4274658203125
1.944873046875
1.64677734375
1.513037109375
1.4364990234375
1.4671142578124998
1.4356933593749999
1.43408203125
1.3978271484375
1.4074951171874999
1.4445556640625
1.4348876953124998
1.4469726562499998
1.4550292968749998
3.05185546875
1.8925048828125
1.4711425781249998
1.2399169921875
1.1802978515625
0.7597412109374999
0.246533203125
0.48017578125
0.7234863281249999
1.1351806640625
1.4276367187499999
1.5162597656249999
1.5637939453124998
1.7120361328125
1.72734375
1.6967285156249998
1.7901855468749999
1.71123046875
1.7072021484375
1.6935058593749999
1.6475830078125
0.04833984375
1.2769775390625
1.6951171875
1.8925048828125
2.0254394531249997
1.5807128906249999
3.050244140625
2.9592041015625
2.1599853515625
1.6781982421875
1.538818359375
1.4719482421874999
1.4880615234374999
1.45341796875
1.40830078125
1.4219970703125
1.3414306640625
1.3873535156249999
1.4308593749999998
1.4429443359374998
1.43408203125
3.0510498046874996
1.9408447265625
1.4751708984374998
1.3607666015625
1.123095703125
1.116650390625
0.165966796875
0.4648681640625
0.7178466796874999
1.1021484375
1.368017578125
1.4993408203124998
1.5235107421874998
1.72734375
1.719287109375
1.7450683593749998
1.7313720703125
1.6935058593749999
1.699951171875
1.6806152343749998
1.6612792968749999
0.04189453125
1.2093017578125
1.6395263671875
1.7861572265624999
2.0455810546874997
1.5090087890625
2.2590820312499997
3.05185546875
2.2107421874999997
1.78857421875
1.58232421875
1.4920898437499999
1.4751708984374998
1.4187744140624998
1.413134765625
1.4284423828125
1.3688232421875
1.3551269531249999
1.4115234374999999
1.413134765625
1.4397216796874999
2.874609375
2.402490234375
1.62744140625
1.361572265625
1.1053710937499999
1.2938964843749998
1.134375
0.47050781249999996
0.6131103515624999
0.961962890625
1.3559326171875
1.4896728515625
1.5202880859374999
1.7200927734375
1.706396484375
1.71123046875
1.748291015625
1.7088134765624998
1.7168701171874998
1.67900390625
1.6588623046875
0.045117187499999996
0.6823974609375
1.5202880859374999
1.7861572265624999
2.099560546875
2.6611083984375
2.3340087890625
3.0470214843749996
2.3315917968749997
1.77568359375
1.5645996093749999
1.4767822265625
1.4501953125
1.3946044921874998
1.4880615234374999
1.38896484375
1.3720458984375
1.4622802734375
1.4244140625
1.5202880859374999
1.4437499999999999
1.533984375
2.9672607421875
1.6483886718749998
1.3623779296874998
1.1996337890625
1.02802734375
1.1545166015625
0.3843017578125
0.517236328125
0.9208740234374999
1.2745605468749999
1.4276367187499999
1.5146484375
1.6491943359374999
1.7023681640625
1.7176757812499999
1.748291015625
1.843359375
1.71123046875
1.7088134765624998
1.67578125
1.46630859375
0.5921630859375
1.533984375
1.7257324218749999
1.9190917968749999
2.6917236328125
2.473388671875
3.0526611328124997
2.4596923828125
1.948095703125
1.6588623046875
1.496923828125
1.46953125
1.4912841796874998
1.4501953125
1.4373046875
1.4332763671875
1.3494873046875
1.4107177734374998
1.4252197265625
1.4316650390624999
1.4461669921875
2.9970703125
1.8336914062499998
1.43408203125
1.2584472656249999
1.084423828125
0.5502685546875
0.5631591796875
0.488232421875
0.797607421875
1.139208984375
1.4348876953124998
1.51787109375
1.5428466796875
1.7096191406249999
1.7249267578124998
1.7579589843749999
1.7772949218749998
1.6886718749999998
1.69189453125
1.6733642578124999
1.5960205078124998
0.043505859375
1.3148437499999999
1.7055908203124999
1.931982421875
2.0375244140624997
2.6119628906249996
3.0566894531249997
2.9302001953124996
2.1277587890625
1.6604736328124998
1.5275390624999998
1.46953125
1.4510009765624998
1.4381103515625
1.4115234374999999
1.4332763671875
1.3833251953124999
1.40185546875
1.429248046875
1.44052734375
1.43408203125
3.0526611328124997
1.9013671875
1.477587890625
1.3430419921874999
1.2109130859375
0.8080810546874999
0.1538818359375
0.539794921875
0.7710205078125
1.1375976562499999
1.3768798828125
1.522705078125
1.5509033203125
1.716064453125
1.7329833984374998
1.6951171875
1.7982421874999999
1.7474853515625
1.7088134765624998
1.6765869140624998
1.6483886718749998
0.0475341796875
1.271337890625
1.6540283203125
1.79501953125
2.0149658203125
1.55009765625
2.779541015625
2.8721923828125
2.1180908203124997
1.7289550781249998
1.5347900390625
1.482421875
1.4928955078125
1.405078125
1.4074951171874999
1.3825195312499998
1.3897705078125
1.3913818359374999
1.426025390625
1.4381103515625
1.4397216796874999
2.9592041015625
2.3195068359374997
1.58232421875
1.3527099609375
1.116650390625
1.4332763671875
0.23928222656249998
0.55751953125
0.623583984375
0.9756591796874999
1.3825195312499998
1.4896728515625
1.4840332031249999
1.7313720703125
1.7136474609374999
1.7104248046875
1.7652099609374998
1.6951171875
1.6951171875
1.687060546875
1.6540283203125
0.046728515624999994
0.8064697265624999
1.5235107421874998
1.7909912109375
2.1076171875
2.5144775390625
2.18818359375
3.050244140625
2.3904052734375
1.7829345703125
1.5919921874999998
1.493701171875
1.49853515625
1.42119140625
1.5057861328125
1.4477783203124999
1.3470703124999999
1.442138671875
1.393798828125
1.4276367187499999
1.4397216796874999
1.6636962890625
2.8697753906249996
1.6185791015625
1.35673828125
1.213330078125
1.2254150390625
1.1134277343749999
0.61552734375
0.6123046875
0.952294921875
1.2882568359375
1.4501953125
1.5138427734375
1.6475830078125
1.7184814453125
1.7015624999999999
1.7724609375
1.7926025390625
1.699951171875
1.6830322265625
1.6669189453125
1.332568359375
0.6823974609375
1.5355957031249998
1.6959228515625
2.0778076171874997
2.647412109375
2.270361328125
3.053466796875
2.3630126953125
1.9029785156249999
1.6322753906249998
1.4920898437499999
1.4469726562499998
1.4348876953124998
1.4783935546875
1.4445556640625
1.3913818359374999
1.3994384765624999
1.4244140625
1.4308593749999998
1.4501953125
1.4912841796874998
2.9624267578124996
1.8062988281249999
1.3744628906249998
1.2254150390625
1.007080078125
0.5204589843749999
0.3673828125
0.5446289062499999
0.807275390625
1.2930908203125
1.4389160156249998
1.5315673828124998
1.5799072265624998
1.7072021484375
1.72412109375
1.6878662109375
1.8465820312499999
1.7015624999999999
1.6967285156249998
1.67900390625
1.5057861328125
0.0668701171875
1.3631835937499999
1.7337890624999999
1.9247314453125
2.0109375
2.489501953125
3.0486328124999997
2.719921875
1.9263427734374998
1.6314697265625
1.5243164062499999
1.4679199218749999
1.4832275390624998
1.4397216796874999
1.3962158203125
1.3881591796875
1.3825195312499998
1.4155517578124999
1.445361328125
1.4348876953124998
1.4373046875
3.050244140625
1.848193359375
1.442138671875
1.3285400390625
1.1577392578124999
0.694482421875
0.175634765625
0.49951171875
0.7839111328124999
1.1496826171874999
1.3865478515624998
1.5315673828124998
1.5686279296874999
1.7039794921875
1.7265380859375
1.7378173828124999
1.732177734375
1.7200927734375
1.6822265625
1.6781982421875
1.6435546875
0.0475341796875
1.300341796875
1.6612792968749999
1.9190917968749999
2.0181884765625
1.6379150390625
2.544287109375
2.995458984375
2.1825439453124997
1.7619873046874999
1.5525146484374999
1.4783935546875
1.5017578125
1.4598632812499999
1.405078125
1.429248046875
1.3470703124999999
1.3857421875
1.4381103515625
1.429248046875
1.43408203125
3.0204345703124997
2.2171875
1.4783935546875
1.353515625
1.1214843749999999
1.5243164062499999
0.18691406249999998
0.515625
0.6646728515625
1.123095703125
1.3736572265625
1.4896728515625
1.4928955078125
1.72412109375
1.716064453125
1.7080078125
1.76279296875
1.7217041015624999
1.7120361328125
1.6765869140624998
1.63388671875
0.049951171875
0.8910644531249999
1.6491943359374999
1.76279296875
2.112451171875
1.545263671875
2.592626953125
3.0510498046874996
2.1164794921875
1.7362060546875
1.5718505859374998
1.4880615234374999
1.4953124999999998
1.40830078125
1.4977294921875
1.3720458984375
1.3978271484375
1.4864501953125
1.4308593749999998
1.4348876953124998
1.4308593749999998
1.7539306640624999
2.3291748046875
1.60166015625
1.37607421875
1.119873046875
1.3712402343749999
1.1408203125
0.502734375
0.662255859375
0.9659912109375
1.313232421875
1.4920898437499999
1.5122314453124999
1.667724609375
1.6967285156249998
1.7072021484375
1.77568359375
1.7724609375
1.714453125
1.687060546875
1.654833984375
0.049951171875
0.7871337890625
1.5404296874999999
1.7982421874999999
2.0858642578124997
2.5652343749999997
2.1785156249999997
3.0470214843749996
2.3477050781249997
1.9029785156249999
1.5895751953125
1.4928955078125
1.480810546875
1.41796875
1.4864501953125
1.445361328125
1.397021484375
1.4437499999999999
1.413134765625
1.4244140625
1.4373046875
1.6024658203125
2.882666015625
1.5968261718749999
1.3551269531249999
1.2254150390625
0.8531982421875
1.126318359375
0.6195556640625
0.5438232421875
0.9466552734375
1.271337890625
1.43408203125
1.5114257812499998
1.64677734375
1.716064453125
1.71123046875
1.7458740234374999
1.7942138671874999
1.690283203125
1.6878662109375
1.6653076171874999
1.3792968749999999
0.11440429687499999
1.5541259765625
1.7015624999999999
1.9352050781249999
2.642578125
2.3203125
3.053466796875
2.463720703125
1.9182861328124998
1.6475830078125
1.52109375
1.4606689453125
1.46953125
1.4501953125
1.4373046875
1.4139404296875
1.3744628906249998
1.416357421875
1.426025390625
1.4356933593749999
1.4445556640625
2.96162109375
1.8111328125
1.4348876953124998
1.2415283203124998
1.0328613281249999
0.562353515625
0.47050781249999996
0.5526855468749999
0.8258056640625
1.18271484375
1.45341796875
1.5444580078124999
1.5734619140625
1.6886718749999998
1.7080078125
1.690283203125
1.7861572265624999
1.7120361328125
1.699951171875
1.6798095703125
1.529150390625
0.062841796875
1.353515625
1.7217041015624999
1.8989501953124999
1.9948242187499998
1.832080078125
3.0526611328124997
2.75537109375
2.077001953125
1.6379150390625
1.5082031249999999
1.4493896484375
1.4501953125
1.4308593749999998
1.4034667968749999
1.384130859375
1.3954101562499999
1.4268310546874998
1.4332763671875
1.4356933593749999
1.4413330078125
3.0478271484375
1.8602783203125
1.4687255859375
1.33740234375
1.1512939453125
0.7420166015624999
0.2731201171875
0.5091796875
0.775048828125
1.16015625
1.3954101562499999
1.5073974609374998
1.585546875
1.7080078125
1.735400390625
1.6878662109375
1.7635986328125
1.735400390625
1.6910888671875
1.6701416015625
1.6427490234375
0.04833984375
1.31162109375
1.65966796875
1.8119384765625
2.018994140625
1.6411376953124999
2.586181640625
2.91650390625
2.128564453125
1.7531249999999998
1.58232421875
1.474365234375
1.4945068359375
1.41796875
1.4123291015625
1.4139404296875
1.3365966796875
1.380908203125
1.4139404296875
1.442138671875
1.4397216796874999
2.9841796874999997
2.22041015625
1.5299560546875
1.348681640625
1.1367919921875
1.52109375
0.2457275390625
0.5365722656249999
0.6823974609375
1.0078857421875
1.3720458984375
1.5082031249999999
1.4953124999999998
1.706396484375
1.722509765625
1.7337890624999999
1.7370117187499998
1.6959228515625
1.6975341796874999
1.6822265625
1.6572509765624999
0.0515625
0.8701171875
1.6588623046875
1.7926025390625
2.0979492187499997
2.376708984375
2.2743896484375
3.0510498046874996
2.3710693359375
1.7877685546875
1.590380859375
1.4977294921875
1.4751708984374998
1.4187744140624998
1.4953124999999998
1.4389160156249998
1.3607666015625
1.4671142578124998
1.405078125
1.4348876953124998
1.432470703125
1.7128417968749998
2.31064453125
1.5831298828125
1.3543212890624998
1.190771484375
1.3301513671874998
1.119873046875
0.533349609375
0.66064453125
0.9885498046875
1.3188720703124999
1.4953124999999998
1.5033691406249998
1.6435546875
1.7128417968749998
1.7128417968749998
1.7450683593749998
1.8103271484374999
1.7184814453125
1.6959228515625
1.651611328125
1.2044677734375
0.784716796875
1.53720703125
1.7378173828124999
2.0890869140625
2.5555664062499996
2.1865722656249997
3.053466796875
2.2953369140624997
1.87236328125
1.6185791015625
1.4864501953125
1.4598632812499999
1.448583984375
1.480810546875
1.4284423828125
1.3881591796875
1.4501953125
1.409912109375
1.4429443359374998
1.4437499999999999
1.5557373046874998
2.89072265625
1.7700439453124999
1.368017578125
1.2109130859375
0.9031494140624999
1.1593505859375
0.48259277343749996
0.5736328125
0.837890625
1.2930908203125
1.4501953125
1.5235107421874998
1.6604736328124998
1.6886718749999998
1.7128417968749998
1.699951171875
1.815966796875
1.7039794921875
1.6935058593749999
1.6645019531249998
1.4373046875
0.1232666015625
1.5396240234374998
1.72412109375
1.9464843749999998
2.0504150390625
2.3920166015624997
3.0470214843749996
2.776318359375
1.93681640625
1.658056640625
1.5275390624999998
1.4501953125
1.4679199218749999
1.448583984375
1.4155517578124999
1.4195800781249999
1.3527099609375
1.3986328124999998
1.4171630859375
1.4373046875
1.45341796875
2.953564453125
1.786962890625
1.4228027343749998
1.3212890625
1.0658935546875
0.6211669921874999
0.2441162109375
0.5478515625
0.855615234375
1.1657958984374999
1.3873535156249999
1.525927734375
1.5645996093749999
1.7136474609374999
1.7128417968749998
1.7531249999999998
1.7378173828124999
1.6886718749999998
1.69189453125
1.6773925781249999
1.6483886718749998
0.07009277343749999
1.35673828125
1.6878662109375
1.9150634765624999
2.0004638671875
1.77568359375
3.05185546875
2.8560791015625
2.1116455078125
1.7281494140625
1.522705078125
1.4703369140625
1.4783935546875
1.43408203125
1.3986328124999998
1.416357421875
1.38896484375
1.4042724609375
1.432470703125
1.43408203125
1.4437499999999999
3.0381591796875
2.1712646484375
1.44052734375
1.3333740234375
1.15693359375
1.5662109375
0.3029296875
0.523681640625
0.7146240234375
1.1899658203124999
1.4034667968749999
1.513037109375
1.493701171875
1.6927001953124998
1.7289550781249998
1.7072021484375
1.786962890625
1.75634765625
1.732177734375
1.6943115234375
1.64677734375
0.04833984375
0.9571289062499999
1.6765869140624998
1.8240234375
2.102783203125
1.5726562499999999
2.7658447265625
3.0526611328124997
2.0939208984374997
1.7474853515625
1.5597656249999998
1.4880615234374999
1.4928955078125
1.4171630859375
1.4759765624999999
1.4066894531249998
1.3728515625
1.4590576171874998
1.426025390625
1.4316650390624999
1.4284423828125
1.8820312499999998
2.2598876953125
1.5645996093749999
1.3543212890624998
1.110205078125
1.413134765625
1.039306640625
0.5841064453125
0.6662841796875
1.0086914062499999
1.31162109375
1.5033691406249998
1.4880615234374999
1.66611328125
1.716064453125
1.716064453125
1.7595703125
1.73056640625
1.7039794921875
1.687060546875
1.658056640625
0.0475341796875
0.8822021484375
1.5927978515624999
1.812744140625
2.101171875
2.4774169921875
2.0923095703125
3.05185546875
2.3033935546874997
1.8473876953125
1.5645996093749999
1.4840332031249999
1.4655029296875
1.4115234374999999
1.490478515625
1.4284423828125
1.41796875
1.4501953125
1.4123291015625
1.4332763671875
1.442138671875
1.6556396484375
2.81015625
1.585546875
1.33740234375
1.1867431640625
0.7734375
1.1045654296875
0.65419921875
0.5760498046875
0.9917724609374999
1.297119140625
1.4510009765624998
1.5082031249999999
1.654833984375
1.7128417968749998
1.719287109375
1.7829345703125
1.796630859375
1.7015624999999999
1.703173828125
1.6669189453125
1.2640869140625
0.19497070312499998
1.561376953125
1.74345703125
1.9360107421875
2.62646484375
2.212353515625
3.05185546875
2.3130615234375
1.861083984375
1.606494140625
1.5033691406249998
1.4364990234375
1.426025390625
1.4308593749999998
1.4381103515625
1.3881591796875
1.3954101562499999
1.4252197265625
1.448583984375
1.448583984375
1.4501953125
2.8955566406249997
1.7684326171875
1.40185546875
1.2181640624999999
0.974853515625
0.578466796875
0.4962890625
0.6018310546875
0.84111328125
1.2141357421874999
1.4510009765624998
1.5218994140625
1.571044921875
1.6806152343749998
1.7015624999999999
1.6951171875
1.7821289062499999
1.7088134765624998
1.6943115234375
1.6653076171874999
1.4389160156249998
0.120849609375
1.409912109375
1.7370117187499998
1.9118408203125
2.0181884765625
1.9215087890625
3.05185546875
2.5692626953124997
2.0020751953125
1.61455078125
1.5154541015624998
1.4526123046875
1.4896728515625
1.456640625
1.4364990234375
1.4437499999999999
1.380908203125
1.4203857421875
1.4268310546874998
1.4356933593749999
1.4550292968749998
3.05185546875
1.7982421874999999
1.4284423828125
1.327734375
1.1480712890625
0.69287109375
0.28681640625
0.5438232421875
0.8435302734375
1.1996337890625
1.3921875
1.496923828125
1.5565429687499999
1.6959228515625
1.662890625
1.732177734375
1.719287109375
1.7168701171874998
1.7015624999999999
1.6935058593749999
1.651611328125
0.050756835937499994
1.3494873046875
1.6749755859375
1.783740234375
2.0109375
1.6943115234375
2.4983642578125
2.92939453125
2.1358154296875
1.738623046875
1.5396240234374998
1.477587890625
1.5009521484375
1.4526123046875
1.4816162109375
1.44052734375
1.3599609375
1.377685546875
1.4155517578124999
1.4244140625
1.432470703125
2.9197265624999997
2.17529296875
1.5436523437499998
1.3261230468749998
1.135986328125
1.506591796875
0.2892333984375
0.5583251953125
0.6872314453124999
1.04736328125
1.4139404296875
1.5235107421874998
1.5041748046874999
1.6733642578124999
1.6653076171874999
1.7080078125
1.7934082031249998
1.738623046875
1.7072021484375
1.6701416015625
1.6346923828125
0.04833984375
0.9087890624999999
1.5839355468749998
1.7974365234374998
2.08828125
2.2985595703125
2.4677490234375
3.05185546875
2.263916015625
1.735400390625
1.546875
1.4550292968749998
1.4840332031249999
1.4445556640625
1.4558349609374999
1.3954101562499999
1.3921875
1.474365234375
1.4276367187499999
1.448583984375
1.445361328125
1.719287109375
2.76826171875
1.5678222656249998
1.3607666015625
1.19560546875
1.329345703125
1.1464599609375
0.5277099609375
0.6678955078125
0.9877441406249999
1.3212890625
1.464697265625
1.5073974609374998
1.6653076171874999
1.7055908203124999
1.6975341796874999
1.7499023437499999
1.7668212890625
1.703173828125
1.67578125
1.6636962890625
1.2173583984375
0.8064697265624999
1.5517089843749998
1.7337890624999999
2.083447265625
2.4967529296874997
2.1922119140625
3.050244140625
2.338037109375
1.8812255859375
1.6290527343749999
1.4832275390624998
1.46630859375
1.474365234375
1.4501953125
1.4042724609375
1.3921875
1.3664062499999998
1.4091064453125
1.43408203125
1.4389160156249998
1.5645996093749999
2.8125732421875
1.7152587890625
1.3349853515624999
1.216552734375
0.9232910156249999
0.64775390625
0.6888427734375
0.5841064453125
0.8660888671875
1.27939453125
1.4332763671875
1.5073974609374998
1.574267578125
1.719287109375
1.7313720703125
1.72412109375
1.77568359375
1.6814208984374999
1.67578125
1.662890625
1.4687255859375
0.13615722656249998
1.41796875
1.7370117187499998
1.9327880859375
2.0343017578125
2.3195068359374997
3.0478271484375
2.8093505859374996
1.9400390625
1.6701416015625
1.5412353515625
1.4711425781249998
1.4477783203124999
1.426025390625
1.42119140625
1.4373046875
1.3905761718749998
1.4252197265625
1.4348876953124998
1.44052734375
1.4300537109375
2.995458984375
1.7797119140625
1.4356933593749999
1.3188720703124999
1.0731445312499999
0.6493652343749999
0.249755859375
0.58974609375
0.8443359374999999
1.1859374999999999
1.38896484375
1.5460693359375
1.606494140625
1.71123046875
1.7217041015624999
1.674169921875
1.7587646484375
1.738623046875
1.687060546875
1.6645019531249998
1.6371093749999999
0.07412109374999999
1.380908203125
1.7023681640625
1.90458984375
2.0044921875
1.7595703125
2.9801513671874997
2.679638671875
2.05283203125
1.7015624999999999
1.5138427734375
1.4348876953124998
1.4791992187499998
1.4356933593749999
1.448583984375
1.4139404296875
1.4219970703125
1.4308593749999998
1.4228027343749998
1.4373046875
1.4558349609374999
2.9680664062499997
2.1261474609374997
1.4276367187499999
1.3398193359375
1.148876953125
1.51787109375
0.3762451171875
0.575244140625
0.7291259765625
1.174658203125
1.3905761718749998
1.5041748046874999
1.5251220703125
1.714453125
1.670947265625
1.6798095703125
1.7635986328125
1.735400390625
1.714453125
1.6701416015625
1.6451660156249999
0.0475341796875
0.9877441406249999
1.7015624999999999
1.8264404296874999
2.0794189453125
1.6459716796875
2.5265625
3.0510498046874996
2.27197265625
1.7337890624999999
1.5597656249999998
1.4759765624999999
1.5001464843749999
1.4228027343749998
1.4558349609374999
1.4348876953124998
1.3543212890624998
1.4373046875
1.4091064453125
1.4276367187499999
1.4308593749999998
1.8699462890624998
2.2051025390625
1.542041015625
1.3470703124999999
1.123095703125
1.3849365234375
0.9949951171875
0.694482421875
0.7226806640625
1.036083984375
1.3067871093749999
1.5033691406249998
1.4928955078125
1.6636962890625
1.7007568359374998
1.7289550781249998
1.7088134765624998
1.6935058593749999
1.6854492187499999
1.6927001953124998
1.6822265625
0.1200439453125
0.8612548828125
1.56943359375
1.7507080078125
2.1084228515625
2.4016845703125
2.080224609375
3.0486328124999997
2.3517333984374997
1.8699462890624998
1.5758789062499998
1.4912841796874998
1.4920898437499999
1.474365234375
1.458251953125
1.4171630859375
1.3897705078125
1.4429443359374998
1.3873535156249999
1.4195800781249999
1.4526123046875
1.6475830078125
2.7344238281249997
1.6967285156249998
1.3365966796875
1.2270263671875
0.8056640625
1.0916748046875
0.57041015625
0.6421142578125
0.903955078125
1.3309570312499999
1.464697265625
1.5243164062499999
1.625830078125
1.7039794921875
1.714453125
1.7233154296875
1.82080078125
1.7128417968749998
1.6878662109375
1.651611328125
1.2826171874999999
0.23203125
1.5662109375
1.72734375
1.9247314453125
2.5418701171875
2.2389404296874997
3.053466796875
2.5322021484375
1.8489990234375
1.6048828124999999
1.5114257812499998
1.4767822265625
1.4687255859375
1.45341796875
1.41796875
1.3744628906249998
1.380908203125
1.4244140625
1.4236083984374999
1.4445556640625
1.4638916015624999
2.8512451171874997
1.7571533203124998
1.4139404296875
1.2254150390625
0.9611572265624999
0.620361328125
0.2811767578125
0.5929687499999999
0.863671875
1.2028564453125
1.45341796875
1.51787109375
1.6048828124999999
1.7015624999999999
1.72412109375
1.6806152343749998
1.7362060546875
1.690283203125
1.683837890625
1.6781982421875
1.4961181640624999
0.130517578125
1.4147460937499998
1.6943115234375
1.93681640625
2.01416015625
1.989990234375
3.0510498046874996
2.769873046875
2.0496093749999997
1.662890625
1.533984375
1.4759765624999999
1.5017578125
1.4679199218749999
1.448583984375
1.41796875
1.3446533203125
1.4010498046875
1.40830078125
1.426025390625
1.4381103515625
3.0325195312499997
2.0939208984374997
1.41796875
1.3083984375
1.16337890625
0.7387939453125
0.2892333984375
0.580078125
0.845947265625
1.18916015625
1.3962158203125
1.5146484375
1.5637939453124998
1.7055908203124999
1.667724609375
1.7418457031249999
1.732177734375
1.7128417968749998
1.6894775390624999
1.6806152343749998
1.64677734375
0.0443115234375
1.3543212890624998
1.6830322265625
1.8489990234375
2.018994140625
1.732177734375
2.6385498046875
3.0446044921874997
2.0947265625
1.7176757812499999
1.5597656249999998
1.4493896484375
1.4848388671875
1.40830078125
1.4550292968749998
1.4356933593749999
1.3954101562499999
1.4139404296875
1.429248046875
1.4308593749999998
1.4219970703125
2.8818603515624996
2.164013671875
1.53076171875
1.3285400390625
1.1319580078125
1.46953125
1.0465576171875
0.575244140625
0.7412109375
1.045751953125
1.3881591796875
1.4840332031249999
1.4961181640624999
1.6363037109374998
1.667724609375
1.67900390625
1.7289550781249998
1.7345947265625
1.703173828125
1.7023681640625
1.6588623046875
0.050756835937499994
0.9353759765624999
1.5968261718749999
1.8369140625
2.093115234375
2.263916015625
2.6135742187499997
3.0526611328124997
2.2469970703124997
1.7426513671875
1.5799072265624998
1.4888671875
1.4872558593749998
1.405078125
1.4195800781249999
1.4139404296875
1.3929931640625
1.4800048828124999
1.4236083984374999
1.4332763671875
1.4461669921875
1.7571533203124998
2.7223388671874997
1.5621826171875
1.3365966796875
1.1980224609374999
1.3390136718749999
1.1214843749999999
0.6268066406249999
0.7025390625
1.0111083984375
1.2987304687499999
1.4574462890625
1.4953124999999998
1.670947265625
1.714453125
1.67578125
1.7096191406249999
1.706396484375
1.6854492187499999
1.687060546875
1.6910888671875
1.2383056640624999
0.8290283203125
1.5726562499999999
1.72412109375
2.0778076171874997
2.4991699218749996
2.18173828125
3.0574951171875
2.384765625
1.8973388671875
1.6379150390625
1.5033691406249998
1.458251953125
1.4630859374999998
1.4445556640625
1.4171630859375
1.4308593749999998
1.3510986328124999
1.384130859375
1.4219970703125
1.4187744140624998
1.5492919921875
2.8093505859374996
1.764404296875
1.3688232421875
1.2052734375
0.8725341796874999
0.6437255859375
0.6582275390625
0.5857177734375
0.8765624999999999
1.3100097656249998
1.445361328125
1.5106201171875
1.558154296875
1.71123046875
1.7313720703125
1.7184814453125
1.786962890625
1.7039794921875
1.6773925781249999
1.66611328125
1.4219970703125
0.18852539062499998
1.4244140625
1.7257324218749999
1.9263427734374998
2.023828125
2.3154785156249997
3.0526611328124997
2.66513671875
1.8868652343749999
1.6330810546874999
1.5323730468749999
1.456640625
1.4526123046875
1.4429443359374998
1.4236083984374999
1.400244140625
1.40830078125
1.442138671875
1.4348876953124998
1.4348876953124998
1.4445556640625
3.0486328124999997
1.7660156249999999
1.4219970703125
1.3172607421875
1.071533203125
0.6590332031249999
0.30937499999999996
0.61552734375
0.8467529296874999
1.2076904296875
1.3825195312499998
1.5057861328125
1.5541259765625
1.6910888671875
1.7450683593749998
1.703173828125
1.7652099609374998
1.7249267578124998
1.6927001953124998
1.670947265625
1.651611328125
0.1039306640625
1.3744628906249998
1.6967285156249998
1.9142578124999998
2.0109375
1.7877685546875
2.882666015625
2.7021972656249997
2.0584716796875
1.7200927734375
1.53076171875
1.4630859374999998
1.5122314453124999
1.4501953125
1.4493896484375
1.4252197265625
1.3575439453125
1.4115234374999999
1.4236083984374999
1.4332763671875
1.43408203125
2.9422851562499996
2.1060058593749997
1.409912109375
1.3365966796875
1.1545166015625
1.509814453125
0.2989013671875
0.5889404296874999
0.7412109375
1.1617675781249999
1.3865478515624998
1.4993408203124998
1.480810546875
1.69189453125
1.6612792968749999
1.7426513671875
1.7362060546875
1.72412109375
1.6991455078125
1.6645019531249998
1.6459716796875
0.0443115234375
1.003857421875
1.6814208984374999
1.8296630859374998
2.0987548828125
1.6781982421875
2.431494140625
3.05185546875
2.280029296875
1.7458740234374999
1.5791015625
1.50498046875
1.506591796875
1.432470703125
1.4429443359374998
1.4219970703125
1.3502929687499998
1.44052734375
1.4276367187499999
1.4397216796874999
1.4316650390624999
1.8707519531249999
2.18173828125
1.5323730468749999
1.340625
1.139208984375
1.4244140625
1.0086914062499999
0.6517822265625
0.710595703125
1.0433349609375
1.3341796874999998
1.4928955078125
1.4953124999999998
1.6483886718749998
1.6830322265625
1.6991455078125
1.75634765625
1.7370117187499998
1.7088134765624998
1.6927001953124998
1.674169921875
0.0765380859375
0.9329589843749999
1.593603515625
1.7797119140625
2.0504150390625
2.3726806640625
2.067333984375
3.0542724609375
2.255859375
1.8473876953125
1.5460693359375
1.48564453125
1.45341796875
1.448583984375
1.4437499999999999
1.3873535156249999
1.3897705078125
1.4791992187499998
1.4284423828125
1.43408203125
1.43408203125
1.6798095703125
2.73603515625
1.7015624999999999
1.3446533203125
1.216552734375
0.7637695312499999
1.1319580078125
0.5196533203125
0.6421142578125
0.8846191406249999
1.3172607421875
1.4518066406249999
1.5267333984375
1.6491943359374999
1.6975341796874999
1.719287109375
1.690283203125
1.7853515624999998
1.719287109375
1.6854492187499999
1.6524169921874998
1.2560302734375
0.2811767578125
1.5782958984375
1.7394287109375
1.9634033203124999
2.064111328125
2.222021484375
3.05185546875
2.60068359375
1.88525390625
1.6298583984375
1.5186767578125
1.464697265625
1.4687255859375
1.4413330078125
1.4187744140624998
1.409912109375
1.340625
1.4171630859375
1.4332763671875
1.4461669921875
1.4413330078125
2.8061279296875
1.7200927734375
1.400244140625
1.2906738281249999
0.9466552734375
0.6590332031249999
0.3673828125
0.5889404296874999
0.8830078124999999
1.1939941406249999
1.3978271484375
1.5162597656249999
1.5702392578125
1.6927001953124998
1.7265380859375
1.7208984374999998
1.71123046875
1.6846435546874998
1.6693359374999999
1.6588623046875
1.6435546875
0.16677246093749998
1.416357421875
1.7168701171874998
1.9182861328124998
2.0197998046875
2.0334960937499997
2.6458007812499997
2.818212890625
2.1261474609374997
1.7531249999999998
1.5492919921875
1.4791992187499998
1.4848388671875
1.45341796875
1.4413330078125
1.4252197265625
1.3599609375
1.397021484375
1.4252197265625
1.4445556640625
1.4228027343749998
2.995458984375
2.04638671875
1.4155517578124999
1.31162109375
1.1625732421875
1.50498046875
0.27634277343749997
0.6171386718749999
0.75732421875
1.2109130859375
1.3873535156249999
1.5082031249999999
1.5146484375
1.6927001953124998
1.67578125
1.683837890625
1.75634765625
1.735400390625
1.7039794921875
1.67900390625
1.6435546875
0.04833984375
1.0594482421875
1.6967285156249998
1.8473876953125
2.086669921875
1.7370117187499998
2.8834716796874997
3.0446044921874997
2.0455810546874997
1.7249267578124998
1.546875
1.4638916015624999
1.4920898437499999
1.4373046875
1.456640625
1.3954101562499999
1.4010498046875
1.43408203125
1.4316650390624999
1.44052734375
1.4364990234375
2.0536376953124997
2.1301757812499997
1.5186767578125
1.3478759765625
1.147265625
1.48564453125
1.074755859375
0.5099853515625
0.7355712890624999
1.0562255859375
1.33740234375
1.49853515625
1.490478515625
1.6588623046875
1.7418457031249999
1.6773925781249999
1.7490966796874998
1.683837890625
1.7104248046875
1.6878662109375
1.6620849609375
0.0443115234375
0.9724365234375
1.60166015625
1.75634765625
2.0939208984374997
2.21396484375
2.0302734375
3.0470214843749996
2.2743896484375
1.828857421875
1.5758789062499998
1.490478515625
1.4711425781249998
1.4501953125
1.4574462890625
1.426025390625
1.3978271484375
1.4276367187499999
1.4091064453125
1.4284423828125
1.4228027343749998
1.8425537109374999
2.6417724609374997
1.6862548828125
1.3382080078124998
1.1786865234375
0.6823974609375
0.9990234375
0.6832031249999999
0.6187499999999999
0.94423828125
1.3309570312499999
1.4590576171874998
1.53076171875
1.6475830078125
1.7007568359374998
1.722509765625
1.7370117187499998
1.641943359375
1.6846435546874998
1.658056640625
1.6491943359374999
1.1134277343749999
0.3552978515625
1.5984375
1.7797119140625
1.9827392578124998
2.0979492187499997
2.0794189453125
3.05185546875
2.6224365234375
1.8844482421875
1.635498046875
1.522705078125
1.47275390625
1.445361328125
1.4348876953124998
1.4187744140624998
1.3865478515624998
1.3301513671874998
1.432470703125
1.4316650390624999
1.4228027343749998
1.4501953125
2.7505371093749997
1.7128417968749998
1.393798828125
1.2737548828124998
0.8016357421875
0.6292236328124999
0.2908447265625
0.6388916015624999
0.90556640625
1.2665039062499999
1.41796875
1.5323730468749999
1.5718505859374998
1.6806152343749998
1.7200927734375
1.7015624999999999
1.8071044921875
1.7168701171874998
1.6886718749999998
1.667724609375
1.6306640625
0.24814453125
1.461474609375
1.7088134765624998
1.948095703125
2.022216796875
2.16884765625
3.0574951171875
2.5273681640624996
1.996435546875
1.6862548828125
1.5114257812499998
1.4606689453125
1.4832275390624998
1.4518066406249999
1.4276367187499999
1.3752685546874999
1.384130859375
1.4348876953124998
1.4187744140624998
1.4364990234375
1.4477783203124999
3.0349365234374996
1.9940185546875
1.3817138671875
1.3083984375
1.1835205078125
0.6356689453125
0.30051269531249997
0.5929687499999999
0.7629638671875
1.2052734375
1.3986328124999998
1.4993408203124998
1.5782958984375
1.7015624999999999
1.6862548828125
1.6935058593749999
1.7418457031249999
1.6991455078125
1.7088134765624998
1.6645019531249998
1.6411376953124999
0.046728515624999994
1.405078125
1.7047851562499998
1.867529296875
2.0971435546875
1.915869140625
2.7013916015625
3.050244140625
2.0842529296875
1.6951171875
1.5460693359375
1.493701171875
1.5041748046874999
1.4501953125
1.458251953125
1.4332763671875
1.3551269531249999
1.3962158203125
1.4252197265625
1.442138671875
1.4284423828125
2.9672607421875
2.0496093749999997
1.4832275390624998
1.3583496093749998
1.1754638671875
1.5509033203125
0.7951904296875
0.5776611328125
0.7565185546875
1.0755615234375
1.3365966796875
1.5146484375
1.5009521484375
1.66611328125
1.6749755859375
1.690283203125
1.7450683593749998
1.6927001953124998
1.6935058593749999
1.6894775390624999
1.6604736328124998
0.04189453125
1.0401123046875
1.59521484375
1.8240234375
2.0955322265625
2.0181884765625
1.941650390625
3.05185546875
2.2590820312499997
1.8248291015625
1.5557373046874998
1.46630859375
1.4912841796874998
1.4219970703125
1.4469726562499998
1.4219970703125
1.40185546875
1.448583984375
1.41796875
1.416357421875
1.4300537109375
1.977099609375
2.5805419921875
1.5154541015624998
1.3591552734374999
1.17626953125
0.7033447265624999
1.0812011718749999
0.5228759765625
0.6662841796875
1.045751953125
1.3470703124999999
1.4816162109375
1.53720703125
1.651611328125
1.6894775390624999
1.7047851562499998
1.740234375
1.6886718749999998
1.7096191406249999
1.674169921875
1.65966796875
0.863671875
0.443115234375
1.5791015625
1.7611816406249998
1.9698486328125
2.26875
2.05283203125
3.0526611328124997
2.228466796875
1.8336914062499998
1.6153564453125
1.5106201171875
1.4783935546875
1.4574462890625
1.4542236328125
1.4123291015625
1.3664062499999998
1.3317626953125
1.40830078125
1.4316650390624999
1.4348876953124998
1.43408203125
2.6522460937499996
1.667724609375
1.361572265625
1.197216796875
0.7146240234375
0.7460449218749999
0.4084716796875
0.6195556640625
0.903955078125
1.2431396484375
1.4622802734375
1.5267333984375
1.6056884765625
1.7015624999999999
1.714453125
1.7281494140625
1.78857421875
1.703173828125
1.67578125
1.6588623046875
1.1279296875
0.3359619140625
1.4864501953125
1.7200927734375
1.9472900390624999
2.118896484375
2.4387451171875
3.0526611328124997
2.6780273437499997
2.038330078125
1.6443603515624998
1.5235107421874998
1.4679199218749999
1.4840332031249999
1.4332763671875
1.405078125
1.432470703125
1.335791015625
1.4244140625
1.4228027343749998
1.4244140625
1.445361328125
3.027685546875
1.9384277343749998
1.3873535156249999
1.281005859375
1.21494140625
0.630029296875
0.35771484374999996
0.5865234375
0.7839111328124999
1.235888671875
1.4058837890625
1.51787109375
1.5839355468749998
1.69189453125
1.683837890625
1.7015624999999999
1.7764892578125
1.6910888671875
1.6846435546874998
1.67578125
1.6443603515624998
0.049951171875
1.4469726562499998
1.714453125
1.8489990234375
2.064111328125
2.147900390625
2.9583984374999996
3.011572265625
2.03671875
1.703173828125
1.5525146484374999
1.4574462890625
1.46630859375
1.4147460937499998
1.4606689453125
1.3865478515624998
1.40185546875
1.41796875
1.426025390625
1.4389160156249998
1.4364990234375
3.0156005859375
2.0181884765625
1.482421875
1.3688232421875
1.187548828125
1.525927734375
0.8403076171874999
0.5969970703124999
0.760546875
1.0691162109374999
1.3470703124999999
1.5033691406249998
1.525927734375
1.67578125
1.6798095703125
1.69189453125
1.75634765625
1.7047851562499998
1.6894775390624999
1.683837890625
1.6588623046875
0.0523681640625
1.0965087890625
1.6129394531249999
1.8296630859374998
2.0713623046875
1.877197265625
2.0262451171875
3.0486328124999997
2.2212158203125
1.8216064453124998
1.5573486328125
1.477587890625
1.4735595703125
1.4445556640625
1.4558349609374999
1.4300537109375
1.3543212890624998
1.4091064453125
1.4252197265625
1.4308593749999998
1.42119140625
2.165625
2.4903076171875
1.625830078125
1.3462646484374998
1.1287353515625
0.7798828124999999
0.839501953125
0.6767578125
0.6590332031249999
0.9514892578124999
1.3156494140625
1.4638916015624999
1.529150390625
1.670947265625
1.703173828125
1.72734375
1.7152587890625
1.658056640625
1.683837890625
1.687060546875
1.654833984375
0.7758544921874999
0.5277099609375
1.5984375
1.7740722656249999
1.973876953125
2.3485107421875
1.98837890625
3.050244140625
2.5869873046875
1.8618896484374998
1.635498046875
1.5283447265624999
1.4928955078125
1.4477783203124999
1.4429443359374998
1.40830078125
1.380908203125
1.340625
1.413134765625
1.4348876953124998
1.4413330078125
1.4364990234375
2.5950439453125
1.6540283203125
1.3688232421875
1.2640869140625
0.69287109375
0.82177734375
0.4318359375
0.6437255859375
0.9353759765624999
1.255224609375
1.4236083984374999
1.53076171875
1.5927978515624999
1.6781982421875
1.7072021484375
1.6975341796874999
1.8280517578125
1.7257324218749999
1.6943115234375
1.6693359374999999
1.6298583984375
0.4318359375
1.5122314453124999
1.716064453125
1.96904296875
2.2034912109375
2.487890625
3.0510498046874996
2.4604980468749997
1.9569580078125
1.6379150390625
1.50498046875
1.4558349609374999
1.4759765624999999
1.4518066406249999
1.4091064453125
1.4115234374999999
1.3575439453125
1.4445556640625
1.4300537109375
1.4276367187499999
1.4510009765624998
3.037353515625
1.9053955078125
1.3929931640625
1.27939453125
1.2157470703125
0.7259033203124999
0.30856933593749997
0.5841064453125
0.81533203125
1.2479736328125
1.4195800781249999
1.5202880859374999
1.6024658203125
1.6814208984374999
1.6943115234375
1.6951171875
1.8111328125
1.690283203125
1.67578125
1.654833984375
1.62744140625
0.04833984375
1.5194824218749998
1.740234375
1.8788085937499999
2.0294677734374997
2.34931640625
3.0526611328124997
2.9358398437499997
2.002880859375
1.699951171875
1.5589599609375
1.48564453125
1.5017578125
1.448583984375
1.47275390625
1.429248046875
1.35673828125
1.3623779296874998
1.4123291015625
1.4364990234375
1.4300537109375
3.0397705078125
1.9545410156249998
1.4703369140625
1.340625
1.206884765625
1.4848388671875
0.49951171875
0.5534912109375
0.8048583984375
1.1045654296875
1.3510986328124999
1.5017578125
1.5073974609374998
1.6717529296875
1.6935058593749999
1.7571533203124998
1.7184814453125
1.6806152343749998
1.6862548828125
1.6830322265625
1.6459716796875
0.0459228515625
1.173046875
1.62744140625
1.8409423828125
2.0818359374999997
1.7426513671875
2.753759765625
3.0486328124999997
2.2244384765625
1.7893798828124998
1.5541259765625
1.4888671875
1.496923828125
1.4493896484375
1.4711425781249998
1.4348876953124998
1.3720458984375
1.3881591796875
1.40185546875
1.4300537109375
1.4389160156249998
2.318701171875
2.421826171875
1.506591796875
1.368017578125
1.1174560546874999
0.9144287109375
0.7782714843749999
0.64453125
0.6703125
1.1013427734374999
1.3349853515624999
1.4671142578124998
1.513037109375
1.6459716796875
1.6967285156249998
1.69833984375
1.7635986328125
1.71123046875
1.703173828125
1.6773925781249999
1.654833984375
0.533349609375
0.630029296875
1.5887695312499999
1.7781005859374999
2.0117431640625
1.9005615234375
2.0471923828125
3.0486328124999997
2.193017578125
1.79501953125
1.60166015625
1.5154541015624998
1.4800048828124999
1.4276367187499999
1.464697265625
1.393798828125
1.3881591796875
1.3905761718749998
1.4252197265625
1.4445556640625
1.44052734375
1.4356933593749999
2.5289794921874997
1.6306640625
1.3382080078124998
1.1351806640625
0.75732421875
0.9555175781249999
0.42619628906249996
0.6493652343749999
0.9394042968749999
1.2592529296875
1.4598632812499999
1.5146484375
1.6306640625
1.6943115234375
1.71123046875
1.6975341796874999
1.7845458984375
1.6910888671875
1.6806152343749998
1.662890625
0.7734375
0.48984374999999997
1.5355957031249998
1.72412109375
1.9569580078125
2.31708984375
2.560400390625
3.0550781249999996
2.521728515625
1.9730712890625
1.6282470703124998
1.5154541015624998
1.4719482421874999
1.480810546875
1.4397216796874999
1.405078125
1.4356933593749999
1.3059814453124998
1.4058837890625
1.4155517578124999
1.43408203125
1.4373046875
3.0172119140625
1.8715576171875
1.364794921875
1.26005859375
1.1947998046875
0.7959960937499999
0.5518798828125
0.526904296875
0.80888671875
1.229443359375
1.4228027343749998
1.5122314453124999
1.5927978515624999
1.67900390625
1.6951171875
1.754736328125
1.8087158203125
1.6967285156249998
1.69833984375
1.65966796875
1.6209960937499999
0.046728515624999994
1.51787109375
1.7313720703125
1.912646484375
2.165625
2.521728515625
3.0470214843749996
2.96484375
1.9956298828124999
1.6612792968749999
1.5428466796875
1.4767822265625
1.45341796875
1.4493896484375
1.41796875
1.4187744140624998
1.3736572265625
1.3921875
1.4268310546874998
1.448583984375
1.4437499999999999
3.0486328124999997
1.928759765625
1.4622802734375
1.2705322265624999
1.2205810546875
1.3059814453124998
0.5526855468749999
0.594580078125
0.7935791015625
1.1432373046875
1.3825195312499998
1.5186767578125
1.5146484375
1.6886718749999998
1.7023681640625
1.7047851562499998
1.7740722656249999
1.69833984375
1.7072021484375
1.6862548828125
1.6451660156249999
0.0475341796875
1.2157470703125
1.6395263671875
1.8699462890624998
2.0657226562499997
1.6209960937499999
2.3315917968749997
2.9366455078125
2.1229248046875
1.735400390625
1.542041015625
1.480810546875
1.4888671875
1.4364990234375
1.4606689453125
1.4316650390624999
1.364794921875
1.3994384765624999
1.4252197265625
1.4381103515625
1.442138671875
2.54267578125
2.3799316406249997
1.4751708984374998
1.3414306640625
1.110205078125
1.06025390625
0.6324462890625
0.5929687499999999
0.6662841796875
1.1013427734374999
1.3712402343749999
1.480810546875
1.5251220703125
1.690283203125
1.683837890625
1.6854492187499999
1.7257324218749999
1.7080078125
1.6886718749999998
1.69189453125
1.6443603515624998
0.36174316406249996
0.668701171875
1.6218017578125
1.796630859375
2.028662109375
1.7523193359375
2.028662109375
3.053466796875
2.513671875
1.7958251953125
1.5718505859374998
1.493701171875
1.47275390625
1.4308593749999998
1.4510009765624998
1.4195800781249999
1.3470703124999999
1.393798828125
1.405078125
1.4203857421875
1.4155517578124999
1.445361328125
2.4596923828125
1.5984375
1.32451171875
1.0997314453125
0.837890625
1.0111083984375
0.636474609375
0.6574218749999999
0.9659912109375
1.2769775390625
1.4920898437499999
1.5476806640624998
1.6322753906249998
1.7047851562499998
1.7168701171874998
1.7692382812499998
1.7603759765625
1.6846435546874998
1.67578125
1.6524169921874998
0.5478515625
0.581689453125
1.587158203125
1.74345703125
2.02060546875
2.5177001953125
2.537841796875
3.050244140625
2.4435791015625
1.928759765625
1.5927978515624999
1.4800048828124999
1.4397216796874999
1.4389160156249998
1.445361328125
1.4203857421875
1.3897705078125
1.3817138671875
1.432470703125
1.4373046875
1.4413330078125
1.4526123046875
3.001904296875
1.8143554687499999
1.3656005859375
1.2584472656249999
1.1698242187499999
0.9079833984375
0.36093749999999997
0.6066650390625
0.8386962890624999
1.2938964843749998
1.448583984375
1.5355957031249998
1.619384765625
1.7055908203124999
1.722509765625
1.7015624999999999
1.8296630859374998
1.7128417968749998
1.6935058593749999
1.6604736328124998
1.6234130859375
0.050756835937499994
1.5267333984375
1.7410400390624998
1.883642578125
2.0101318359375
2.5692626953124997
3.0558837890625
2.8238525390625
1.93681640625
1.6483886718749998
1.52109375
1.45341796875
1.4735595703125
1.4574462890625
1.4800048828124999
1.448583984375
1.3817138671875
1.4155517578124999
1.4493896484375
1.4381103515625
1.4268310546874998
2.8866943359375
1.8667236328124999
1.4501953125
1.3382080078124998
1.222998046875
1.16015625
0.33676757812499997
0.5389892578125
0.8024414062499999
1.1456542968749999
1.3792968749999999
1.5243164062499999
1.5412353515625
1.7208984374999998
1.7208984374999998
1.748291015625
1.716064453125
1.7120361328125
1.6854492187499999
1.6645019531249998
1.6371093749999999
0.0515625
1.2616699218749998
1.6403320312499998
1.8763916015625
2.0560546875
1.587158203125
2.1591796875
3.0349365234374996
2.1857666015625
1.7571533203124998
1.5404296874999999
1.493701171875
1.4993408203124998
1.4413330078125
1.4800048828124999
1.4356933593749999
1.3543212890624998
1.3865478515624998
1.4332763671875
1.4332763671875
1.4332763671875
2.7158935546875
2.3162841796875
1.4518066406249999
1.3623779296874998
1.1190673828125
1.2205810546875
0.44553222656249997
0.607470703125
0.6646728515625
1.1295410156249999
1.3664062499999998
1.4977294921875
1.522705078125
1.6959228515625
1.69833984375
1.69189453125
1.7490966796874998
1.7249267578124998
1.7072021484375
1.6693359374999999
1.65
0.136962890625
0.7774658203125
1.654833984375
1.7982421874999999
2.0415527343749997
1.6242187499999998
2.1841552734375
3.0526611328124997
2.118896484375
1.72734375
1.5678222656249998
1.4928955078125
1.482421875
1.4123291015625
1.46630859375
1.413134765625
1.40185546875
1.4759765624999999
1.4397216796874999
1.4445556640625
1.4469726562499998
1.5057861328125
2.4339111328125
1.6081054687499998
1.348681640625
1.1222900390625
1.003857421875
1.1093994140624999
0.47453613281249996
0.6856201171874999
0.9837158203124999
1.3156494140625
1.4961181640624999
1.51787109375
1.6314697265625
1.6991455078125
1.6951171875
1.7120361328125
1.7281494140625
1.699951171875
1.6814208984374999
1.6427490234375
0.378662109375
0.639697265625
1.56298828125
1.7877685546875
2.0044921875
2.5813476562499997
2.4403564453124997
3.0510498046874996
2.3662353515625
1.8747802734374999
1.585546875
1.50498046875
1.46630859375
1.4364990234375
1.4558349609374999
1.4187744140624998
1.4373046875
1.3905761718749998
1.42119140625
1.4381103515625
1.4461669921875
1.4477783203124999
2.9495361328125
1.619384765625
1.3591552734374999
1.2455566406249998
1.1295410156249999
1.0223876953125
0.613916015625
0.5712158203125
0.9812988281249999
1.2802001953125
1.4308593749999998
1.5090087890625
1.6169677734374999
1.6886718749999998
1.7168701171874998
1.7168701171874998
1.7394287109375
1.687060546875
1.662890625
1.6532226562499999
1.606494140625
0.050756835937499994
1.5492919921875
1.7208984374999998
1.8876708984375
2.3984619140625
2.5305908203125
2.9559814453124997
2.5950439453125
1.9706542968749998
1.662890625
1.5517089843749998
1.46953125
1.46630859375
1.4356933593749999
1.42119140625
1.4308593749999998
1.3664062499999998
1.4195800781249999
1.43408203125
1.4461669921875
1.4469726562499998
3.0107666015624996
1.8224121093749999
1.43408203125
1.2697265624999998
1.2052734375
0.9740478515625
0.29648437499999997
0.5776611328125
0.833056640625
1.1883544921875
1.4300537109375
1.5243164062499999
1.5364013671874999
1.6781982421875
1.6975341796874999
1.6846435546874998
1.7531249999999998
1.6967285156249998
1.6975341796874999
1.6685302734374998
1.6242187499999998
0.0459228515625
1.3180664062499998
1.6693359374999999
1.85625
1.9907958984374998
1.5678222656249998
3.0526611328124997
2.81015625
2.070556640625
1.6201904296874998
1.5364013671874999
1.47275390625
1.5017578125
1.432470703125
1.477587890625
1.4042724609375
1.4284423828125
1.4219970703125
1.4437499999999999
1.4437499999999999
1.4429443359374998
2.8012939453124996
2.260693359375
1.4518066406249999
1.351904296875
1.147265625
1.2616699218749998
0.5349609375
0.5679931640625
0.71220703125
1.15693359375
1.393798828125
1.4993408203124998
1.5476806640624998
1.6951171875
1.6693359374999999
1.6854492187499999
1.7450683593749998
1.7200927734375
1.6862548828125
1.6781982421875
1.6451660156249999
0.1232666015625
1.2455566406249998
1.6604736328124998
1.8071044921875
2.018994140625
1.611328125
2.157568359375
3.0526611328124997
2.131787109375
1.7490966796874998
1.5645996093749999
1.4751708984374998
1.5057861328125
1.4308593749999998
1.49853515625
1.445361328125
1.3591552734374999
1.43408203125
1.4284423828125
1.426025390625
1.445361328125
2.6280761718749996
2.3275634765624997
1.5654052734375
1.3591552734374999
1.1142333984375
1.1408203125
1.10859375
0.62197265625
0.7057617187499999
1.0094970703125
1.3583496093749998
1.4816162109375
1.51787109375
1.6371093749999999
1.69189453125
1.72734375
1.7233154296875
1.7055908203124999
1.69189453125
1.6773925781249999
1.64677734375
0.32468261718749997
0.7049560546875
1.5758789062499998
1.77568359375
2.0359130859375
2.570068359375
1.9424560546874998
3.0558837890625
2.41376953125
1.9029785156249999
1.5782958984375
1.4896728515625
1.4606689453125
1.4300537109375
1.4518066406249999
1.4139404296875
1.3728515625
1.4332763671875
1.4244140625
1.4461669921875
1.4477783203124999
1.477587890625
2.8979736328124996
1.603271484375
1.3527099609375
1.2439453125
0.9385986328125
1.0513916015625
0.488232421875
0.6260009765625
0.984521484375
1.3108154296874999
1.4413330078125
1.53076171875
1.609716796875
1.6814208984374999
1.7055908203124999
1.6951171875
1.7603759765625
1.6967285156249998
1.6765869140624998
1.6524169921874998
1.5565429687499999
0.630029296875
1.5678222656249998
1.7257324218749999
1.8941162109374998
2.4935302734375
2.434716796875
3.05185546875
2.32998046875
1.8949218749999999
1.6266357421875
1.5033691406249998
1.4687255859375
1.4638916015624999
1.44052734375
1.4139404296875
1.393798828125
1.4010498046875
1.432470703125
1.426025390625
1.4413330078125
1.4413330078125
2.9704833984374996
1.796630859375
1.4316650390624999
1.27939453125
1.18916015625
0.8499755859375
0.51884765625
0.594580078125
0.8427246093749999
1.2020507812499999
1.429248046875
1.5275390624999998
1.5662109375
1.6854492187499999
1.7072021484375
1.67578125
1.77568359375
1.6967285156249998
1.683837890625
1.6693359374999999
1.6137451171875
0.0475341796875
1.348681640625
1.7249267578124998
1.8828369140624999
2.0052978515624997
2.5458984375
2.9922363281249997
2.8963623046875
2.11083984375
1.6645019531249998
1.53076171875
1.482421875
1.482421875
1.4477783203124999
1.4848388671875
1.4437499999999999
1.3639892578125
1.3905761718749998
1.426025390625
1.44052734375
1.43408203125
2.8681640625
1.8506103515624999
1.4389160156249998
1.3768798828125
1.22783203125
1.1674072265625
0.3472412109375
0.6066650390625
0.8483642578124999
1.173046875
1.3817138671875
1.5138427734375
1.525927734375
1.6878662109375
1.67578125
1.7184814453125
1.7217041015624999
1.7055908203124999
1.674169921875
1.6749755859375
1.6330810546874999
0.04833984375
1.2665039062499999
1.6540283203125
1.8022705078124999
2.0262451171875
1.5662109375
2.204296875
2.953564453125
2.128564453125
1.7257324218749999
1.5315673828124998
1.4759765624999999
1.48564453125
1.4147460937499998
1.49853515625
1.4510009765624998
1.3881591796875
1.4066894531249998
1.4429443359374998
1.4671142578124998
1.522705078125
2.6683593749999996
2.286474609375
1.545263671875
1.3446533203125
1.1448486328125
1.2528076171875
0.604248046875
0.5768554687499999
0.7420166015624999
1.044140625
1.4026611328124998
1.5017578125
1.509814453125
1.6765869140624998
1.67900390625
1.6773925781249999
1.7176757812499999
1.7281494140625
1.6959228515625
1.67900390625
1.654833984375
0.18369140625
0.8080810546874999
1.625830078125
1.7740722656249999
2.02705078125
2.5394531249999996
2.3372314453125
3.0574951171875
2.2228271484374997
1.7249267578124998
1.56298828125
1.4848388671875
1.4767822265625
1.41796875
1.47275390625
1.4276367187499999
1.3728515625
1.4501953125
1.4332763671875
1.4437499999999999
1.4389160156249998
1.5364013671874999
2.3710693359375
1.587158203125
1.35673828125
1.2383056640624999
1.0368896484374999
1.103759765625
0.69609375
0.6993164062499999
1.003857421875
1.300341796875
1.4542236328125
1.513037109375
1.6306640625
1.6854492187499999
1.6927001953124998
1.7313720703125
1.6910888671875
1.6806152343749998
1.6725585937499998
1.6636962890625
1.5106201171875
0.6791748046874999
1.577490234375
1.72412109375
2.0133544921874997
2.528173828125
2.3904052734375
3.0526611328124997
2.4709716796875
1.9215087890625
1.6524169921874998
1.5057861328125
1.4679199218749999
1.4638916015624999
1.4703369140625
1.4195800781249999
1.432470703125
1.3792968749999999
1.40830078125
1.4373046875
1.4445556640625
1.4437499999999999
2.9261718749999996
1.7579589843749999
1.348681640625
1.2608642578125
1.155322265625
1.0062744140625
0.575244140625
0.6066650390625
0.8693115234375
1.3100097656249998
1.4445556640625
1.5283447265624999
1.5968261718749999
1.67900390625
1.699951171875
1.6951171875
1.770849609375
1.6862548828125
1.6814208984374999
1.66611328125
1.6048828124999999
0.0652587890625
1.55009765625
1.7152587890625
1.8949218749999999
1.9762939453125
2.4846679687499997
3.05830078125
2.792431640625
1.920703125
1.6403320312499998
1.513037109375
1.4550292968749998
1.4783935546875
1.445361328125
1.464697265625
1.3913818359374999
1.40830078125
1.4244140625
1.4381103515625
1.4477783203124999
1.4469726562499998
2.8375488281249996
1.8280517578125
1.4550292968749998
1.3253173828125
1.222998046875
1.0111083984375
0.4310302734375
0.6332519531249999
0.8564208984374999
1.1947998046875
1.3913818359374999
1.522705078125
1.55009765625
1.699951171875
1.7152587890625
1.6862548828125
1.7466796875
1.716064453125
1.6927001953124998
1.667724609375
1.6395263671875
0.0459228515625
1.3019531249999998
1.6765869140624998
1.8667236328124999
2.0052978515624997
1.5750732421875
2.44921875
2.8472167968749997
2.096337890625
1.7257324218749999
1.5243164062499999
1.4759765624999999
1.490478515625
1.4574462890625
1.4864501953125
1.442138671875
1.3664062499999998
1.3857421875
1.41796875
1.4356933593749999
1.44052734375
2.7642333984375
2.2131591796875
1.445361328125
1.35673828125
1.134375
1.368017578125
0.4036376953125
0.631640625
0.7412109375
1.1577392578124999
1.3849365234375
1.4961181640624999
1.4920898437499999
1.6959228515625
1.6878662109375
1.73056640625
1.69833984375
1.69189453125
1.6927001953124998
1.6685302734374998
1.6242187499999998
0.1893310546875
0.849169921875
1.6612792968749999
1.796630859375
2.0520263671875
1.5799072265624998
2.07861328125
3.0526611328124997
2.1849609375
1.7740722656249999
1.587158203125
1.4888671875
1.4961181640624999
1.426025390625
1.464697265625
1.4356933593749999
1.3527099609375
1.4501953125
1.426025390625
1.4356933593749999
1.442138671875
1.60166015625
2.3203125
1.5702392578125
1.3349853515624999
1.126318359375
1.164990234375
1.1206787109375
0.6405029296875
0.7234863281249999
1.0167480468749999
1.3229003906249999
1.5001464843749999
1.5162597656249999
1.63388671875
1.6886718749999998
1.6910888671875
1.7474853515625
1.690283203125
1.6951171875
1.6717529296875
1.6411376953124999
0.31743164062499996
0.742822265625
1.5766845703124999
1.7853515624999998
2.0278564453125
2.534619140625
2.2405517578125
3.053466796875
2.3195068359374997
1.8578613281249998
1.5597656249999998
1.4800048828124999
1.4735595703125
1.5057861328125
1.4477783203124999
1.4010498046875
1.4195800781249999
1.4590576171874998
1.4252197265625
1.445361328125
1.4542236328125
1.4832275390624998
2.866552734375
1.593603515625
1.3462646484374998
1.2447509765625
1.0513916015625
1.09892578125
0.4519775390625
0.6493652343749999
0.8830078124999999
1.313232421875
1.4348876953124998
1.522705078125
1.6266357421875
1.687060546875
1.7096191406249999
1.6967285156249998
1.7458740234374999
1.703173828125
1.6854492187499999
1.6604736328124998
1.5251220703125
0.1232666015625
1.5702392578125
1.7208984374999998
1.8981445312499998
2.4758056640625
2.434716796875
3.0526611328124997
2.7126708984374996
1.8949218749999999
1.6403320312499998
1.5283447265624999
1.4622802734375
1.4840332031249999
1.464697265625
1.4219970703125
1.4445556640625
1.3744628906249998
1.413134765625
1.4373046875
1.4501953125
1.448583984375
2.9575927734375
1.770849609375
1.3921875
1.27294921875
1.1851318359375
0.8741455078125
0.34562988281249996
0.6066650390625
0.8725341796874999
1.1851318359375
1.416357421875
1.5243164062499999
1.5347900390625
1.6951171875
1.7104248046875
1.7184814453125
1.7015624999999999
1.670947265625
1.6733642578124999
1.6701416015625
1.6161621093749998
0.054785156249999994
1.3349853515624999
1.683837890625
1.8828369140624999
2.006103515625
1.6435546875
2.9438964843749997
2.9156982421874997
2.1019775390624997
1.6685302734374998
1.5275390624999998
1.4719482421874999
1.4767822265625
1.4638916015624999
1.480810546875
1.445361328125
1.3833251953124999
1.409912109375
1.4356933593749999
1.4397216796874999
1.4381103515625
2.8214355468749996
2.1591796875
1.4228027343749998
1.3575439453125
1.1641845703125
1.116650390625
0.3552978515625
0.64453125
0.7532958984375
1.171435546875
1.3946044921874998
1.5082031249999999
1.525927734375
1.690283203125
1.6693359374999999
1.6878662109375
1.7490966796874998
1.7184814453125
1.7015624999999999
1.6612792968749999
1.65
0.095068359375
1.2858398437499998
1.6645019531249998
1.7958251953125
2.0504150390625
1.5718505859374998
2.44599609375
3.0550781249999996
2.0729736328125
1.7120361328125
1.5702392578125
1.4598632812499999
1.4864501953125
1.432470703125
1.448583984375
1.3881591796875
1.40830078125
1.4767822265625
1.4356933593749999
1.4469726562499998
1.4477783203124999
1.690283203125
2.2711669921874997
1.5541259765625
1.351904296875
1.1351806640625
1.27294921875
1.173046875
0.604248046875
0.7371826171875
1.0368896484374999
1.3365966796875
1.4896728515625
1.49853515625
1.65
1.6814208984374999
1.67900390625
1.716064453125
1.6653076171874999
1.6862548828125
1.6773925781249999
1.654833984375
0.2586181640625
0.8096923828125
1.5863525390625
1.7748779296875
2.018994140625
2.4911132812499996
2.2067138671874997
3.0542724609375
2.3614013671875
1.8739746093749998
1.5702392578125
1.5073974609374998
1.46953125
1.4364990234375
1.4671142578124998
1.4244140625
1.43408203125
1.4284423828125
1.4042724609375
1.4308593749999998
1.4373046875
1.5380126953125
2.802099609375
1.5541259765625
1.3349853515624999
1.2415283203124998
0.992578125
1.1013427734374999
0.7065673828125
0.6356689453125
1.0111083984375
1.2963134765625
1.4356933593749999
1.5082031249999999
1.6306640625
1.687060546875
1.7055908203124999
1.7297607421874999
1.683837890625
1.683837890625
1.6725585937499998
1.654833984375
1.47275390625
0.16274414062499998
1.5734619140625
1.7217041015624999
1.92392578125
2.5193115234374996
2.3356201171874997
3.05185546875
2.392822265625
1.89169921875
1.6290527343749999
1.5267333984375
1.4703369140625
1.4526123046875
1.4381103515625
1.4268310546874998
1.41796875
1.393798828125
1.4389160156249998
1.4389160156249998
1.442138671875
1.44052734375
2.9011962890625
1.7579589843749999
1.393798828125
1.2544189453124999
1.1512939453125
0.7476562499999999
0.452783203125
0.6566162109375
0.8983154296875
1.2383056640624999
1.45341796875
1.5202880859374999
1.546875
1.69189453125
1.7015624999999999
1.6773925781249999
1.7539306640624999
1.6943115234375
1.6910888671875
1.667724609375
1.56943359375
0.0926513671875
1.3857421875
1.74345703125
1.8828369140624999
1.972265625
1.6894775390624999
3.0550781249999996
2.6458007812499997
2.0230224609375
1.625830078125
1.5033691406249998
1.4767822265625
1.4751708984374998
1.4461669921875
1.4598632812499999
1.4115234374999999
1.3986328124999998
1.4236083984374999
1.43408203125
1.4542236328125
1.4437499999999999
2.900390625
1.8071044921875
1.4155517578124999
1.3414306640625
1.1577392578124999
0.958740234375
0.3673828125
0.6413085937499999
0.8612548828125
1.18916015625
1.3792968749999999
1.4896728515625
1.5509033203125
1.7015624999999999
1.6685302734374998
1.6927001953124998
1.7168701171874998
1.7007568359374998
1.6781982421875
1.6701416015625
1.6403320312499998
0.09345703124999999
1.3083984375
1.67578125
1.79501953125
2.0020751953125
1.593603515625
2.2647216796875
2.9358398437499997
2.1406494140625
1.7370117187499998
1.585546875
1.4896728515625
1.506591796875
1.442138671875
1.490478515625
1.44052734375
1.361572265625
1.3857421875
1.4187744140624998
1.4316650390624999
1.4284423828125
2.769873046875
2.17529296875
1.5186767578125
1.353515625
1.1641845703125
1.405078125
0.3907470703125
0.6332519531249999
0.7541015624999999
1.0489746093749999
1.3712402343749999
1.490478515625
1.49853515625
1.6975341796874999
1.674169921875
1.687060546875
1.748291015625
1.706396484375
1.6830322265625
1.6701416015625
1.64677734375
0.18852539062499998
0.8685058593749999
1.6491943359374999
1.7942138671874999
2.047998046875
2.386376953125
2.1624023437499997
3.0470214843749996
2.3009765625
1.7490966796874998
1.5605712890624999
1.493701171875
1.4961181640624999
1.4147460937499998
1.4542236328125
1.44052734375
1.40185546875
1.4598632812499999
1.4284423828125
1.4469726562499998
1.4308593749999998
1.6089111328124999
2.29775390625
1.5525146484374999
1.3494873046875
1.2286376953125
1.21494140625
1.148876953125
0.5365722656249999
0.7404052734375
1.0465576171875
1.3349853515624999
1.4550292968749998
1.5041748046874999
1.6129394531249999
1.6814208984374999
1.6886718749999998
1.71123046875
1.6894775390624999
1.6894775390624999
1.6693359374999999
1.65
1.3559326171875
0.7734375
1.5702392578125
1.72412109375
2.006103515625
2.521728515625
2.2494140625
3.0526611328124997
2.2913085937499997
1.864306640625
1.6234130859375
1.4888671875
1.464697265625
1.46630859375
1.4606689453125
1.4300537109375
1.3946044921874998
1.4171630859375
1.429248046875
1.43408203125
1.4550292968749998
1.5033691406249998
2.8391601562499997
1.7208984374999998
1.3478759765625
1.2439453125
1.0497802734375
1.10859375
0.6380859375
0.61552734375
0.8958984375
1.2955078125
1.4526123046875
1.52109375
1.622607421875
1.6717529296875
1.7072021484375
1.7128417968749998
1.7055908203124999
1.6854492187499999
1.6693359374999999
1.6604736328124998
1.5243164062499999
0.12810058593749998
1.5791015625
1.7362060546875
1.9190917968749999
1.9948242187499998
2.3904052734375
3.0244628906249997
2.7964599609375
1.9360107421875
1.65
1.5331787109375
1.480810546875
1.480810546875
1.4598632812499999
1.4526123046875
1.4308593749999998
1.36962890625
1.400244140625
1.4139404296875
1.4356933593749999
1.4445556640625
2.92294921875
1.767626953125
1.4115234374999999
1.3301513671874998
1.171435546875
0.8266113281249999
0.31904296875
0.6163330078125
0.87333984375
1.2052734375
1.4123291015625
1.522705078125
1.542041015625
1.6830322265625
1.6959228515625
1.6781982421875
1.7539306640624999
1.687060546875
1.6781982421875
1.654833984375
1.6459716796875
0.0708984375
1.3801025390625
1.687060546875
1.8651123046875
1.9787109374999998
1.65
3.05185546875
2.7175048828125
2.0423583984375
1.6991455078125
1.5106201171875
1.482421875
1.5025634765625
1.4364990234375
1.4510009765624998
