1.5275390624999998
1.5218994140625
1.5194824218749998
1.5041748046874999
1.4953124999999998
1.474365234375
1.4711425781249998
1.4703369140625
1.46953125
1.4848388671875
1.4864501953125
1.5017578125
1.5146484375
1.5267333984375
1.5275390624999998
1.5380126953125
1.5428466796875
1.554931640625
1.5517089843749998
1.5557373046874998
1.5597656249999998
1.5645996093749999
1.5597656249999998
1.5791015625
1.5976318359375
1.6105224609375
1.6129394531249999
1.6177734375
1.6234130859375
1.6105224609375
1.6056884765625
1.593603515625
1.574267578125
1.574267578125
1.5573486328125
1.55009765625
1.5436523437499998
1.538818359375
1.5299560546875
1.529150390625
1.5331787109375
1.53076171875
1.5275390624999998
1.5275390624999998
1.513037109375
1.49853515625
1.5033691406249998
1.482421875
1.47275390625
1.4703369140625
1.47275390625
1.4759765624999999
1.490478515625
1.506591796875
1.509814453125
1.51787109375
1.5315673828124998
1.5428466796875
1.5484863281249999
1.5484863281249999
1.5509033203125
1.5573486328125
1.5605712890624999
1.56298828125
1.561376953125
1.577490234375
1.5887695312499999
1.6048828124999999
1.6105224609375
1.625830078125
1.625830078125
1.6201904296874998
1.60166015625
1.59521484375
1.5839355468749998
1.5758789062499998
1.5597656249999998
1.5597656249999998
1.5436523437499998
1.5331787109375
1.529150390625
1.5364013671874999
1.53076171875
1.5283447265624999
1.525927734375
1.5275390624999998
1.5154541015624998
1.5057861328125
1.493701171875
1.4880615234374999
1.474365234375
1.474365234375
1.4679199218749999
1.4767822265625
1.4791992187499998
1.5057861328125
1.50498046875
1.5235107421874998
1.5315673828124998
1.53076171875
1.5484863281249999
1.5533203125
1.554931640625
1.554931640625
1.5533203125
1.5573486328125
1.5589599609375
1.5831298828125
1.5887695312499999
1.5992431640625
1.6040771484374998
1.6218017578125
1.6234130859375
1.6201904296874998
1.6105224609375
1.5927978515624999
1.5887695312499999
1.571044921875
1.5645996093749999
1.5589599609375
1.5492919921875
1.5436523437499998
1.5380126953125
1.5364013671874999
1.529150390625
1.5315673828124998
1.5355957031249998
1.529150390625
1.5162597656249999
1.4953124999999998
1.50498046875
1.493701171875
1.4759765624999999
1.4703369140625
1.4638916015624999
1.480810546875
1.4880615234374999
1.493701171875
1.506591796875
1.5251220703125
1.5315673828124998
1.5404296874999999
1.542041015625
1.5525146484374999
1.5541259765625
1.5541259765625
1.5605712890624999
1.5565429687499999
1.56298828125
1.577490234375
1.58232421875
1.59521484375
1.6105224609375
1.6105224609375
1.6266357421875
1.6177734375
1.61455078125
1.5976318359375
1.58232421875
1.5718505859374998
1.5645996093749999
1.554931640625
1.546875
1.5404296874999999
1.5396240234374998
1.533984375
1.5323730468749999
1.5299560546875
1.4510009765624998
1.538818359375
1.522705078125
1.51787109375
1.5009521484375
1.4928955078125
1.4759765624999999
1.46630859375
1.4671142578124998
1.4816162109375
1.4864501953125
1.4977294921875
1.5009521484375
1.5106201171875
1.5315673828124998
1.53076171875
1.5444580078124999
1.546875
1.554931640625
1.5589599609375
1.5645996093749999
1.5597656249999998
1.5565429687499999
1.5726562499999999
1.58232421875
1.59521484375
1.603271484375
1.611328125
1.6209960937499999
1.6330810546874999
1.609716796875
1.5976318359375
1.5887695312499999
1.5782958984375
1.5758789062499998
1.558154296875
1.5509033203125
1.5380126953125
1.53720703125
1.5275390624999998
1.533984375
1.5251220703125
1.522705078125
1.53076171875
1.5194824218749998
1.5194824218749998
1.5017578125
1.496923828125
1.47275390625
1.4735595703125
1.4703369140625
1.4759765624999999
1.4759765624999999
1.490478515625
1.506591796875
1.5122314453124999
1.5315673828124998
1.529150390625
1.5355957031249998
1.5509033203125
1.5597656249999998
1.5589599609375
1.5621826171875
1.5525146484374999
1.5565429687499999
1.561376953125
1.585546875
1.59521484375
1.60166015625
1.6089111328124999
1.62744140625
1.6209960937499999
1.6121337890624998
1.60166015625
1.590380859375
1.5718505859374998
1.5662109375
1.5654052734375
1.554931640625
1.53720703125
1.546875
1.533984375
1.5267333984375
1.5275390624999998
1.5283447265624999
1.5315673828124998
1.5251220703125
1.5114257812499998
1.496923828125
1.4864501953125
1.4848388671875
1.4703369140625
1.4679199218749999
1.46953125
1.4848388671875
1.493701171875
1.5025634765625
1.5073974609374998
1.5275390624999998
1.5243164062499999
1.5412353515625
1.5517089843749998
1.5476806640624998
1.5557373046874998
1.554931640625
1.558154296875
1.5517089843749998
1.5718505859374998
1.5831298828125
1.5944091796875
1.6056884765625
1.6121337890624998
1.6218017578125
1.6185791015625
1.6177734375
1.603271484375
1.590380859375
1.5831298828125
1.5702392578125
1.5605712890624999
1.5533203125
1.5380126953125
1.5355957031249998
1.5404296874999999
1.5323730468749999
1.542041015625
1.5243164062499999
1.53076171875
1.5251220703125
1.506591796875
1.4977294921875
1.4953124999999998
1.4832275390624998
1.474365234375
1.4622802734375
1.480810546875
1.4751708984374998
1.4928955078125
1.5025634765625
1.5033691406249998
1.525927734375
1.529150390625
1.5315673828124998
1.53720703125
1.5484863281249999
1.5460693359375
1.5541259765625
1.5573486328125
1.56298828125
1.5573486328125
1.5782958984375
1.5927978515624999
1.603271484375
1.606494140625
1.619384765625
1.625830078125
1.6177734375
1.60166015625
1.590380859375
1.587158203125
1.5702392578125
1.56943359375
1.5557373046874998
1.5525146484374999
1.5428466796875
1.5315673828124998
1.529150390625
1.5251220703125
1.52109375
1.525927734375
1.53720703125
1.5146484375
1.5082031249999999
1.4953124999999998
1.4840332031249999
1.48564453125
1.46953125
1.4671142578124998
1.4751708984374998
1.4920898437499999
1.4928955078125
1.50498046875
1.5146484375
1.5218994140625
1.5396240234374998
1.5476806640624998
1.554931640625
1.55009765625
1.5557373046874998
1.5589599609375
1.56298828125
1.5605712890624999
1.5782958984375
1.5847412109374999
1.5976318359375
1.6105224609375
1.61455078125
1.6234130859375
1.6201904296874998
1.609716796875
1.6056884765625
1.5831298828125
1.5750732421875
1.554931640625
1.5565429687499999
1.5525146484374999
1.545263671875
1.5364013671874999
1.533984375
1.5267333984375
1.5218994140625
1.5267333984375
1.5275390624999998
1.51787109375
1.5146484375
1.5033691406249998
1.4888671875
1.477587890625
1.4679199218749999
1.458251953125
1.4751708984374998
1.4872558593749998
1.5033691406249998
1.5057861328125
1.52109375
1.5315673828124998
1.5396240234374998
1.546875
1.5565429687499999
1.5484863281249999
1.5525146484374999
1.5605712890624999
1.5557373046874998
1.5476806640624998
1.5702392578125
1.5815185546875
1.60166015625
1.6056884765625
1.61455078125
1.6290527343749999
1.6161621093749998
1.611328125
1.6056884765625
1.587158203125
1.5758789062499998
1.5637939453124998
1.5597656249999998
1.5396240234374998
1.5428466796875
1.545263671875
1.5436523437499998
1.5331787109375
1.525927734375
1.522705078125
1.5380126953125
1.5235107421874998
1.5114257812499998
1.4912841796874998
1.4888671875
1.4800048828124999
1.477587890625
1.4679199218749999
1.474365234375
1.4872558593749998
1.5001464843749999
1.5001464843749999
1.5138427734375
1.5235107421874998
1.538818359375
1.5436523437499998
1.545263671875
1.546875
1.5533203125
1.5541259765625
1.558154296875
1.56298828125
1.5621826171875
1.5799072265624998
1.5927978515624999
1.6081054687499998
1.6121337890624998
1.622607421875
1.6218017578125
1.609716796875
1.603271484375
1.590380859375
1.5839355468749998
1.56298828125
1.5517089843749998
1.5533203125
1.5428466796875
1.5396240234374998
1.533984375
1.5347900390625
1.5299560546875
1.5235107421874998
1.5364013671874999
1.5243164062499999
1.5170654296875
1.4953124999999998
1.4912841796874998
1.4800048828124999
1.47275390625
1.4719482421874999
1.4719482421874999
1.4864501953125
1.4920898437499999
1.4993408203124998
1.5194824218749998
1.5283447265624999
1.5323730468749999
1.542041015625
1.5509033203125
1.5557373046874998
1.55009765625
1.5509033203125
1.5565429687499999
1.5557373046874998
1.5670166015625
1.585546875
1.5887695312499999
1.6008544921874999
1.6040771484374998
1.61455078125
1.6209960937499999
1.6161621093749998
1.59521484375
1.5919921874999998
1.5734619140625
1.5662109375
1.5565429687499999
1.558154296875
1.5460693359375
1.5364013671874999
1.5428466796875
1.533984375
1.5283447265624999
1.5235107421874998
1.529150390625
1.5154541015624998
1.5082031249999999
1.5073974609374998
1.490478515625
1.4848388671875
1.4671142578124998
1.4606689453125
1.482421875
1.4872558593749998
1.4993408203124998
1.5057861328125
1.5218994140625
1.52109375
1.53076171875
1.538818359375
1.5436523437499998
1.5517089843749998
1.554931640625
1.5597656249999998
1.554931640625
1.554931640625
1.56298828125
1.5831298828125
1.5863525390625
1.593603515625
1.611328125
1.619384765625
1.622607421875
1.6121337890624998
1.6072998046875
1.5919921874999998
1.5863525390625
1.5678222656249998
1.5589599609375
1.5509033203125
1.5509033203125
1.5355957031249998
1.5347900390625
1.5380126953125
1.5275390624999998
1.5323730468749999
1.5331787109375
1.5235107421874998
1.5138427734375
1.5090087890625
1.4896728515625
1.4832275390624998
1.4719482421874999
1.46630859375
1.4759765624999999
1.490478515625
1.490478515625
1.5001464843749999
1.5138427734375
1.51787109375
1.5235107421874998
1.545263671875
1.5436523437499998
1.5492919921875
1.55009765625
1.5541259765625
1.5597656249999998
1.5509033203125
1.56298828125
1.574267578125
1.5895751953125
1.5984375
1.606494140625
1.6121337890624998
1.6218017578125
1.6218017578125
1.5968261718749999
1.5992431640625
1.5839355468749998
1.5678222656249998
1.5605712890624999
1.5492919921875
1.5517089843749998
1.542041015625
1.5428466796875
1.5315673828124998
1.5251220703125
1.5243164062499999
1.5194824218749998
1.5315673828124998
1.51787109375
1.5033691406249998
1.49853515625
1.4912841796874998
1.4791992187499998
1.4679199218749999
1.4800048828124999
1.47275390625
1.496923828125
1.5033691406249998
1.509814453125
1.522705078125
1.5331787109375
1.538818359375
1.5444580078124999
1.5492919921875
1.5565429687499999
1.561376953125
1.5670166015625
1.554931640625
1.5573486328125
1.56943359375
1.5863525390625
1.5984375
1.6056884765625
1.6129394531249999
1.6153564453125
1.6081054687499998
1.603271484375
1.5992431640625
1.5839355468749998
1.571044921875
1.56298828125
1.5573486328125
1.5484863281249999
1.533984375
1.53076171875
1.529150390625
1.53720703125
1.5331787109375
1.5315673828124998
1.5251220703125
1.52109375
1.5057861328125
1.4864501953125
1.4888671875
1.4832275390624998
1.480810546875
1.47275390625
1.480810546875
1.4864501953125
1.4945068359375
1.5114257812499998
1.5186767578125
1.5283447265624999
1.5364013671874999
1.5460693359375
1.55009765625
1.5573486328125
1.5541259765625
1.55009765625
1.5573486328125
1.5573486328125
1.571044921875
1.5831298828125
1.593603515625
1.6048828124999999
1.6089111328124999
1.6209960937499999
1.6161621093749998
1.6072998046875
1.5968261718749999
1.5766845703124999
1.5645996093749999
1.5686279296874999
1.55009765625
1.546875
1.545263671875
1.5404296874999999
1.5299560546875
1.5315673828124998
1.533984375
1.5218994140625
1.529150390625
1.5194824218749998
1.5090087890625
1.5033691406249998
1.490478515625
1.4816162109375
1.4791992187499998
1.4703369140625
1.4711425781249998
1.4840332031249999
1.4993408203124998
1.5162597656249999
1.5146484375
1.522705078125
1.53720703125
1.5404296874999999
1.5476806640624998
1.5517089843749998
1.558154296875
1.5517089843749998
1.558154296875
1.5557373046874998
1.5645996093749999
1.5766845703124999
1.5863525390625
1.6024658203125
1.6121337890624998
1.6266357421875
1.6201904296874998
1.6105224609375
1.5919921874999998
1.5831298828125
1.5791015625
1.5621826171875
1.5637939453124998
1.5509033203125
1.5404296874999999
1.5347900390625
1.5323730468749999
1.533984375
1.5460693359375
1.53076171875
1.525927734375
1.59521484375
1.5146484375
1.50498046875
1.4945068359375
1.477587890625
1.4735595703125
1.4751708984374998
1.4832275390624998
1.4783935546875
1.4864501953125
1.5082031249999999
1.5162597656249999
1.5186767578125
1.53076171875
1.5436523437499998
1.5492919921875
1.56298828125
1.558154296875
1.55009765625
1.5509033203125
1.5557373046874998
1.5621826171875
1.571044921875
1.6000488281249998
1.6209960937499999
1.6161621093749998
1.6250244140624999
1.6008544921874999
1.5911865234375
1.5847412109374999
1.5807128906249999
1.5831298828125
1.5758789062499998
1.5807128906249999
1.5662109375
1.5476806640624998
1.5283447265624999
1.53720703125
1.5315673828124998
1.5251220703125
1.525927734375
1.5283447265624999
1.5283447265624999
1.5154541015624998
1.5025634765625
1.4888671875
1.4848388671875
1.474365234375
1.4671142578124998
1.4783935546875
1.490478515625
1.4896728515625
1.5057861328125
1.5114257812499998
1.5146484375
1.5243164062499999
1.5396240234374998
1.5525146484374999
1.5597656249999998
1.55009765625
1.5686279296874999
1.5605712890624999
1.5492919921875
1.5476806640624998
1.571044921875
1.58232421875
1.5879638671874998
1.5976318359375
1.6209960937499999
1.6322753906249998
1.6137451171875
1.5976318359375
1.5831298828125
1.5847412109374999
1.58232421875
1.571044921875
1.5927978515624999
1.558154296875
1.49853515625
1.5194824218749998
1.5355957031249998
1.52109375
1.5154541015624998
1.5162597656249999
1.5283447265624999
1.5082031249999999
1.4977294921875
1.4848388671875
1.4574462890625
1.4719482421874999
1.4800048828124999
1.4735595703125
1.4872558593749998
1.4928955078125
1.5202880859374999
1.53076171875
1.5484863281249999
1.5484863281249999
1.554931640625
1.5404296874999999
1.546875
1.58232421875
1.5879638671874998
1.56943359375
1.5218994140625
1.509814453125
1.5517089843749998
1.5766845703124999
1.5911865234375
1.6008544921874999
1.609716796875
1.6072998046875
1.6105224609375
1.61455078125
1.60166015625
1.5879638671874998
1.5887695312499999
1.5887695312499999
1.5992431640625
1.5726562499999999
1.5476806640624998
1.5162597656249999
1.5033691406249998
1.5122314453124999
1.5033691406249998
1.5186767578125
1.5283447265624999
1.5057861328125
1.5025634765625
1.50498046875
1.48564453125
1.4872558593749998
1.4840332031249999
1.474365234375
1.4759765624999999
1.5025634765625
1.5218994140625
1.5186767578125
1.5170654296875
1.52109375
1.5919921874999998
1.6612792968749999
1.5944091796875
1.5251220703125
1.5146484375
1.506591796875
1.5364013671874999
1.545263671875
1.5758789062499998
1.587158203125
1.611328125
1.6081054687499998
1.6209960937499999
1.6298583984375
1.6298583984375
1.6290527343749999
1.6129394531249999
1.5702392578125
1.561376953125
1.577490234375
1.5645996093749999
1.5202880859374999
1.5170654296875
1.538818359375
1.5186767578125
1.5186767578125
1.49853515625
1.5251220703125
1.5525146484374999
1.5347900390625
1.525927734375
1.5436523437499998
1.525927734375
1.5146484375
1.493701171875
1.482421875
1.4711425781249998
1.5162597656249999
1.5323730468749999
1.5541259765625
1.558154296875
1.533984375
1.5331787109375
1.5323730468749999
1.5243164062499999
1.53720703125
1.5533203125
1.5662109375
1.5444580078124999
1.5436523437499998
1.5492919921875
1.56943359375
1.5750732421875
1.6024658203125
1.622607421875
1.6371093749999999
1.6346923828125
1.6298583984375
1.63388671875
1.5863525390625
1.5355957031249998
1.574267578125
1.5565429687499999
1.538818359375
1.4920898437499999
1.4791992187499998
1.5162597656249999
1.5283447265624999
1.5654052734375
1.5565429687499999
1.5460693359375
1.56298828125
1.5839355468749998
1.5839355468749998
1.5573486328125
1.506591796875
1.4703369140625
1.4268310546874998
1.426025390625
1.4437499999999999
1.46630859375
1.5090087890625
1.5251220703125
1.538818359375
1.53720703125
1.522705078125
1.5218994140625
1.5299560546875
1.5428466796875
1.5444580078124999
1.5525146484374999
1.558154296875
1.5670166015625
1.5799072265624998
1.5565429687499999
1.5839355468749998
1.609716796875
1.6290527343749999
1.635498046875
1.6209960937499999
1.6266357421875
1.6701416015625
1.619384765625
1.5597656249999998
1.5154541015624998
1.538818359375
1.554931640625
1.554931640625
1.5267333984375
1.5243164062499999
1.5331787109375
1.5194824218749998
1.5347900390625
1.5364013671874999
1.522705078125
1.506591796875
1.4832275390624998
1.4550292968749998
1.4381103515625
1.4679199218749999
1.5001464843749999
1.4840332031249999
1.4880615234374999
1.5396240234374998
1.5299560546875
1.5090087890625
1.50498046875
1.545263671875
1.56298828125
1.5734619140625
1.5637939453124998
1.5509033203125
1.5637939453124998
1.5766845703124999
1.587158203125
1.6056884765625
1.6056884765625
1.6056884765625
1.6081054687499998
1.5815185546875
1.5444580078124999
1.5146484375
1.5927978515624999
1.6306640625
1.63388671875
1.606494140625
1.5807128906249999
1.6105224609375
1.6427490234375
1.6636962890625
1.638720703125
1.5839355468749998
1.5380126953125
1.5001464843749999
1.4397216796874999
1.4751708984374998
1.4912841796874998
1.4751708984374998
1.4848388671875
1.4928955078125
1.4679199218749999
1.4558349609374999
1.4590576171874998
1.4928955078125
1.5218994140625
1.546875
1.577490234375
1.5517089843749998
1.5331787109375
1.558154296875
1.5662109375
1.5678222656249998
1.55009765625
1.5525146484374999
1.5839355468749998
1.5944091796875
1.5895751953125
1.6040771484374998
1.61455078125
1.6048828124999999
1.606494140625
1.6781982421875
1.6379150390625
1.5734619140625
1.59521484375
1.6153564453125
1.6121337890624998
3.0446044921874997
2.763427734375
2.0729736328125
1.7909912109375
1.6540283203125
1.6072998046875
1.5283447265624999
1.4751708984374998
1.4501953125
1.429248046875
1.3954101562499999
1.3664062499999998
1.3623779296874998
1.3365966796875
1.3462646484374998
1.35673828125
1.332568359375
1.345458984375
1.3881591796875
1.3946044921874998
1.380908203125
1.409912109375
1.40830078125
1.4284423828125
1.464697265625
1.477587890625
1.47275390625
1.477587890625
1.4751708984374998
1.4848388671875
1.4880615234374999
1.4888671875
1.5154541015624998
1.5509033203125
1.5573486328125
1.545263671875
1.558154296875
1.585546875
1.5766845703124999
1.56298828125
1.5484863281249999
1.538818359375
1.5347900390625
1.5251220703125
1.5001464843749999
1.50498046875
1.5162597656249999
1.5114257812499998
1.5122314453124999
1.5001464843749999
1.5251220703125
1.5597656249999998
1.58232421875
1.5782958984375
1.571044921875
1.5251220703125
1.5073974609374998
1.4751708984374998
1.445361328125
1.4228027343749998
1.445361328125
1.4574462890625
1.445361328125
1.4751708984374998
1.51787109375
1.53720703125
1.533984375
1.5355957031249998
1.5533203125
1.561376953125
1.5428466796875
1.5090087890625
1.4953124999999998
1.5186767578125
1.6177734375
1.6008544921874999
1.5782958984375
1.5815185546875
1.5944091796875
1.625830078125
1.6177734375
1.5984375
1.5662109375
1.590380859375
1.5895751953125
1.5517089843749998
1.5299560546875
1.5355957031249998
1.529150390625
1.49853515625
1.51787109375
1.5364013671874999
1.558154296875
1.5831298828125
1.5799072265624998
1.52109375
1.509814453125
1.50498046875
1.5122314453124999
1.5170654296875
1.4316650390624999
1.4622802734375
1.4759765624999999
1.4880615234374999
1.4832275390624998
1.4606689453125
1.4703369140625
1.5017578125
1.5009521484375
1.5267333984375
1.561376953125
1.5726562499999999
1.5758789062499998
1.6000488281249998
1.60166015625
1.5041748046874999
1.558154296875
1.6427490234375
1.61455078125
1.5734619140625
1.5726562499999999
1.611328125
1.6242187499999998
1.5815185546875
1.56298828125
1.5654052734375
1.5750732421875
1.577490234375
1.5750732421875
1.593603515625
1.6218017578125
1.6024658203125
1.55009765625
1.5146484375
1.5331787109375
1.5283447265624999
1.5436523437499998
1.53076171875
1.4920898437499999
1.4888671875
1.5033691406249998
1.4912841796874998
1.4397216796874999
1.4244140625
1.4606689453125
1.477587890625
1.4977294921875
1.5017578125
1.50498046875
1.5533203125
1.56298828125
1.56298828125
1.5509033203125
1.5492919921875
1.571044921875
1.5645996093749999
1.52109375
1.5243164062499999
1.5758789062499998
1.5984375
1.6218017578125
1.6532226562499999
1.6290527343749999
1.6218017578125
1.6411376953124999
1.6209960937499999
1.6089111328124999
1.5960205078124998
1.5428466796875
1.5476806640624998
1.5364013671874999
1.5283447265624999
1.513037109375
1.5380126953125
1.5766845703124999
1.5637939453124998
1.529150390625
1.5267333984375
1.5299560546875
1.5057861328125
1.496923828125
1.506591796875
1.5073974609374998
1.5106201171875
1.46953125
1.4598632812499999
1.47275390625
1.4800048828124999
1.48564453125
1.4912841796874998
1.4993408203124998
1.5122314453124999
1.5122314453124999
1.5299560546875
1.558154296875
1.5831298828125
1.5807128906249999
1.60166015625
1.6089111328124999
1.58232421875
1.5799072265624998
1.558154296875
1.5299560546875
1.5573486328125
1.5992431640625
1.606494140625
1.5927978515624999
1.5831298828125
1.5968261718749999
1.5831298828125
1.6008544921874999
1.56943359375
1.5662109375
1.5573486328125
1.5380126953125
1.5283447265624999
1.5428466796875
1.5533203125
1.51787109375
1.4679199218749999
1.496923828125
1.5122314453124999
1.5041748046874999
1.5218994140625
1.52109375
1.5275390624999998
1.5154541015624998
1.6209960937499999
1.6024658203125
1.4445556640625
1.4630859374999998
1.5380126953125
1.5476806640624998
1.5194824218749998
1.5331787109375
1.5243164062499999
1.5194824218749998
1.5533203125
1.5799072265624998
1.571044921875
1.5275390624999998
1.5090087890625
1.5428466796875
1.5170654296875
1.490478515625
1.5186767578125
1.5815185546875
1.5976318359375
1.5927978515624999
1.5557373046874998
1.5492919921875
1.5436523437499998
1.58232421875
1.5968261718749999
1.5863525390625
1.5895751953125
1.60166015625
1.5662109375
1.5525146484374999
1.542041015625
1.5444580078124999
1.5476806640624998
1.5396240234374998
1.5355957031249998
1.4783935546875
1.4880615234374999
1.4751708984374998
1.49853515625
1.4719482421874999
1.4840332031249999
1.4953124999999998
1.4896728515625
1.4767822265625
1.482421875
1.5033691406249998
1.5017578125
1.5517089843749998
1.5678222656249998
1.5605712890624999
1.5565429687499999
1.5251220703125
1.5476806640624998
1.5791015625
1.561376953125
1.59521484375
1.593603515625
1.5944091796875
1.6234130859375
1.6290527343749999
1.611328125
1.6411376953124999
1.609716796875
1.5766845703124999
1.5895751953125
1.5847412109374999
1.5533203125
1.5460693359375
1.5597656249999998
1.5484863281249999
1.5702392578125
1.561376953125
1.554931640625
1.558154296875
1.5355957031249998
1.4977294921875
1.5355957031249998
1.5041748046874999
1.4888671875
1.4961181640624999
1.4912841796874998
1.46630859375
1.4550292968749998
1.4526123046875
1.4510009765624998
1.5170654296875
1.5347900390625
1.53076171875
1.5170654296875
1.506591796875
1.5355957031249998
1.5895751953125
1.546875
1.53076171875
1.5323730468749999
1.5315673828124998
1.542041015625
1.533984375
1.5911865234375
1.6000488281249998
1.593603515625
1.5927978515624999
1.6306640625
1.6250244140624999
1.5887695312499999
1.6105224609375
1.59521484375
1.5911865234375
1.611328125
1.5484863281249999
1.5396240234374998
1.5637939453124998
1.5597656249999998
1.545263671875
1.5170654296875
1.5243164062499999
1.5243164062499999
1.529150390625
1.5476806640624998
1.522705078125
1.525927734375
1.506591796875
1.4961181640624999
1.4928955078125
1.4630859374999998
1.4598632812499999
1.4671142578124998
1.4840332031249999
1.50498046875
1.4993408203124998
1.5017578125
1.49853515625
1.554931640625
1.5589599609375
1.538818359375
1.5597656249999998
1.5476806640624998
1.5460693359375
1.5645996093749999
1.5541259765625
1.5815185546875
1.5911865234375
1.59521484375
1.5847412109374999
1.58232421875
1.6072998046875
1.5927978515624999
1.5444580078124999
1.61455078125
1.6137451171875
1.61455078125
1.67578125
1.67900390625
1.5895751953125
1.587158203125
1.611328125
1.4719482421874999
1.4300537109375
1.49853515625
1.51787109375
1.5283447265624999
1.52109375
1.506591796875
1.22783203125
1.4147460937499998
1.4864501953125
1.4848388671875
1.4791992187499998
1.482421875
1.4783935546875
1.4703369140625
1.480810546875
1.5017578125
1.538818359375
1.5807128906249999
1.5718505859374998
1.5678222656249998
1.593603515625
1.5879638671874998
1.5887695312499999
1.5678222656249998
1.5557373046874998
1.571044921875
1.5782958984375
1.5758789062499998
1.6129394531249999
1.6443603515624998
1.6435546875
1.6290527343749999
1.6008544921874999
1.5919921874999998
1.5637939453124998
1.5702392578125
1.5702392578125
1.558154296875
1.5678222656249998
1.5573486328125
1.5396240234374998
1.5275390624999998
1.5162597656249999
1.51787109375
1.513037109375
1.5347900390625
1.513037109375
1.5001464843749999
1.5090087890625
1.5114257812499998
1.47275390625
1.4518066406249999
1.4864501953125
1.49853515625
1.4977294921875
1.5283447265624999
1.561376953125
1.5863525390625
1.5323730468749999
1.5573486328125
1.5138427734375
1.5460693359375
1.5492919921875
1.5347900390625
1.5750732421875
1.5597656249999998
1.5267333984375
1.5645996093749999
1.5758789062499998
1.5879638671874998
1.6072998046875
1.619384765625
1.6209960937499999
1.6153564453125
1.6024658203125
1.5992431640625
1.593603515625
1.59521484375
1.5678222656249998
1.5573486328125
1.558154296875
1.5355957031249998
1.533984375
1.5275390624999998
1.525927734375
1.509814453125
1.52109375
1.5009521484375
1.5218994140625
1.5283447265624999
1.538818359375
1.538818359375
1.4840332031249999
1.480810546875
1.477587890625
1.4703369140625
1.48564453125
1.52109375
1.5444580078124999
1.5605712890624999
1.5573486328125
1.545263671875
1.5315673828124998
1.5404296874999999
1.5138427734375
1.529150390625
1.545263671875
1.542041015625
1.53720703125
1.5815185546875
1.6081054687499998
1.6000488281249998
1.61455078125
1.6266357421875
1.6395263671875
1.6451660156249999
1.5984375
1.5758789062499998
1.5782958984375
1.5702392578125
1.5654052734375
1.5670166015625
1.5492919921875
1.5509033203125
1.5404296874999999
1.5509033203125
1.55009765625
1.558154296875
1.5412353515625
1.5380126953125
1.5243164062499999
1.5186767578125
1.5106201171875
1.4961181640624999
1.480810546875
1.4590576171874998
1.4679199218749999
1.4711425781249998
1.4800048828124999
1.4928955078125
1.4977294921875
1.496923828125
1.5033691406249998
1.5283447265624999
1.525927734375
1.5235107421874998
1.546875
1.55009765625
1.55009765625
1.5565429687499999
1.55009765625
1.5525146484374999
1.5791015625
1.58232421875
1.5879638671874998
1.6153564453125
1.6072998046875
1.63388671875
1.603271484375
1.6129394531249999
1.6153564453125
1.606494140625
1.5847412109374999
1.545263671875
1.525927734375
1.546875
1.5355957031249998
1.5404296874999999
1.53720703125
1.522705078125
1.5355957031249998
1.51787109375
1.545263671875
1.5162597656249999
1.5073974609374998
1.49853515625
1.4912841796874998
1.4783935546875
1.4655029296875
1.4719482421874999
1.4598632812499999
1.4864501953125
1.5041748046874999
1.5041748046874999
1.509814453125
1.5082031249999999
1.5315673828124998
1.55009765625
1.5654052734375
1.5621826171875
1.5436523437499998
1.5525146484374999
1.55009765625
1.5299560546875
1.5750732421875
1.5960205078124998
1.587158203125
1.593603515625
1.5968261718749999
1.641943359375
1.6056884765625
1.5911865234375
1.56298828125
1.571044921875
1.5525146484374999
1.5082031249999999
1.5162597656249999
1.5299560546875
1.53076171875
1.5380126953125
1.5718505859374998
1.5726562499999999
1.603271484375
1.6089111328124999
1.5202880859374999
1.458251953125
1.5267333984375
1.5460693359375
1.4880615234374999
1.4622802734375
1.4228027343749998
1.4348876953124998
1.4598632812499999
1.4888671875
1.4598632812499999
1.464697265625
1.509814453125
1.542041015625
1.5919921874999998
1.603271484375
1.5380126953125
1.5517089843749998
1.6218017578125
1.6024658203125
1.5251220703125
1.4832275390624998
1.5509033203125
1.5645996093749999
1.5557373046874998
1.603271484375
1.6298583984375
1.662890625
1.6363037109374998
1.58232421875
1.5758789062499998
1.593603515625
1.571044921875
1.5557373046874998
1.554931640625
1.558154296875
1.5444580078124999
1.5573486328125
1.545263671875
1.5380126953125
1.5138427734375
1.52109375
1.5533203125
1.546875
1.513037109375
1.5146484375
1.4953124999999998
1.46953125
1.4518066406249999
1.46953125
1.4719482421874999
1.4630859374999998
1.4880615234374999
1.5194824218749998
1.5122314453124999
1.51787109375
1.5460693359375
1.5533203125
1.5565429687499999
1.5678222656249998
1.5331787109375
1.5444580078124999
1.590380859375
1.51787109375
1.5533203125
1.571044921875
1.5275390624999998
1.5670166015625
1.5839355468749998
1.6371093749999999
1.7023681640625
1.6556396484375
1.5960205078124998
1.5831298828125
1.6765869140624998
1.5645996093749999
1.4469726562499998
1.4783935546875
1.5009521484375
1.5202880859374999
1.5251220703125
1.5517089843749998
1.5412353515625
1.545263671875
1.6290527343749999
1.593603515625
1.5396240234374998
1.5412353515625
1.546875
1.5444580078124999
1.5146484375
1.522705078125
1.4671142578124998
1.477587890625
1.4671142578124998
1.5090087890625
1.52109375
1.4993408203124998
1.50498046875
1.533984375
1.5637939453124998
1.5662109375
1.5654052734375
1.5597656249999998
1.5517089843749998
1.509814453125
1.5573486328125
1.5919921874999998
1.5831298828125
1.6056884765625
1.6250244140624999
1.635498046875
1.6475830078125
1.641943359375
1.6346923828125
1.6161621093749998
1.6153564453125
1.625830078125
1.6209960937499999
1.5734619140625
1.5364013671874999
1.5541259765625
1.5533203125
1.5364013671874999
1.5243164062499999
1.5331787109375
1.5533203125
1.5525146484374999
1.55009765625
1.5275390624999998
1.5057861328125
1.5251220703125
1.538818359375
1.5033691406249998
1.5186767578125
1.5396240234374998
1.5114257812499998
1.5460693359375
1.5645996093749999
1.5702392578125
1.5686279296874999
1.5791015625
1.6008544921874999
1.622607421875
1.63388671875
1.6371093749999999
1.658056640625
1.6532226562499999
1.7168701171874998
1.7426513671875
1.7692382812499998
1.7297607421874999
1.6371093749999999
1.5750732421875
1.53076171875
1.4880615234374999
1.4920898437499999
1.47275390625
1.445361328125
1.4364990234375
1.43408203125
1.4252197265625
1.5355957031249998
1.4800048828124999
1.413134765625
1.4437499999999999
1.4711425781249998
1.482421875
1.5114257812499998
1.5323730468749999
1.4574462890625
1.4638916015624999
1.4671142578124998
1.4244140625
1.3825195312499998
1.38896484375
1.4300537109375
1.4711425781249998
1.4840332031249999
1.4928955078125
1.5082031249999999
1.5251220703125
1.5025634765625
1.482421875
1.4679199218749999
1.5323730468749999
1.525927734375
1.5436523437499998
1.5557373046874998
1.474365234375
1.5460693359375
1.6991455078125
1.603271484375
1.546875
1.5621826171875
1.6395263671875
1.77890625
1.6371093749999999
1.5718505859374998
1.622607421875
1.585546875
1.5968261718749999
1.5476806640624998
1.5235107421874998
1.5492919921875
1.5380126953125
1.55009765625
1.5275390624999998
1.5315673828124998
1.533984375
1.6169677734374999
1.6588623046875
1.496923828125
1.4816162109375
1.4961181640624999
1.474365234375
1.4356933593749999
1.393798828125
1.4284423828125
1.4912841796874998
1.5202880859374999
1.5082031249999999
1.51787109375
1.53720703125
1.5533203125
1.5315673828124998
1.5484863281249999
1.5541259765625
1.5025634765625
1.50498046875
1.5702392578125
1.5033691406249998
1.4147460937499998
1.6177734375
1.6290527343749999
1.64677734375
1.6701416015625
1.6491943359374999
1.8038818359375
1.6379150390625
1.5396240234374998
1.546875
1.5492919921875
1.5839355468749998
1.554931640625
1.5436523437499998
1.5380126953125
1.5670166015625
1.5170654296875
1.522705078125
1.5122314453124999
1.525927734375
1.577490234375
1.8071044921875
1.5251220703125
1.4074951171874999
1.429248046875
1.4767822265625
1.4526123046875
1.3905761718749998
1.380908203125
1.4800048828124999
1.5025634765625
1.5275390624999998
1.5025634765625
1.5017578125
1.4888671875
1.5565429687499999
1.5678222656249998
1.5605712890624999
1.6081054687499998
1.6290527343749999
1.5541259765625
1.5718505859374998
1.3704345703124998
1.558154296875
1.5758789062499998
1.5750732421875
1.5831298828125
1.6959228515625
1.9263427734374998
1.786962890625
1.6040771484374998
1.4308593749999998
1.5380126953125
1.571044921875
1.50498046875
1.5033691406249998
1.593603515625
1.5984375
1.5541259765625
1.5315673828124998
1.4848388671875
1.4920898437499999
1.5533203125
1.8425537109374999
1.6781982421875
1.4816162109375
1.3946044921874998
1.38896484375
1.9247314453125
1.8949218749999999
1.9271484374999999
1.8626953124999999
1.75634765625
1.6806152343749998
1.5766845703124999
1.482421875
1.493701171875
1.5170654296875
1.571044921875
1.5702392578125
1.5557373046874998
1.5267333984375
1.4953124999999998
1.5154541015624998
0.9176513671875
0.5438232421875
0.43022460937499996
0.2698974609375
0.23928222656249998
0.339990234375
0.7541015624999999
1.361572265625
1.93359375
2.309033203125
2.5152832031249996
2.7408691406249996
2.8093505859374996
2.8697753906249996
2.9100585937499996
2.8899169921874996
2.7561767578125
2.650634765625
2.425048828125
2.270361328125
2.1374267578125
2.3694580078125
2.4999755859375
2.6296874999999997
2.6876953125
2.640966796875
2.4830566406249996
2.2236328125
1.4783935546875
1.0288330078124999
0.5679931640625
0.26425781249999997
0.0394775390625
0.0394775390625
0.03544921875
0.042700195312499994
0.0523681640625
0.111181640625
0.1071533203125
0.270703125
0.3843017578125
0.6114990234375
0.240087890625
0.04189453125
0.07412109374999999
0.11762695312499999
0.27392578125
0.49306640625
1.2052734375
1.8659179687499998
2.3638183593749997
2.7183105468749997
3.0164062499999997
3.043798828125
3.0470214843749996
3.0470214843749996
3.0429931640624996
3.0429931640624996
2.91328125
2.8472167968749997
2.7086425781249996
2.6417724609374997
2.4097412109375
2.5201171875
2.8149902343749997
2.8206298828125
2.8689697265625
2.8053222656249996
2.5628173828125
2.2808349609375
1.7821289062499999
1.3551269531249999
0.8024414062499999
0.4648681640625
0.1232666015625
0.041088867187499996
0.038671874999999994
0.0394775390625
0.0394775390625
0.043505859375
0.09023437499999999
0.207861328125
0.4600341796875
0.6163330078125
0.472119140625
0.24089355468749998
0.2255859375
0.21591796875
0.18046874999999998
0.34160156249999996
0.620361328125
1.3398193359375
2.0085205078125
2.495947265625
2.7408691406249996
2.9575927734375
3.0429931640624996
3.0421875
3.0429931640624996
3.043798828125
2.9720947265624997
2.892333984375
2.8294921874999996
2.6603027343749996
2.5837646484374996
2.4790283203124996
2.96484375
3.0397705078125
2.9712890625
2.8754150390624997
2.6482177734374996
2.4113525390625
1.8377197265624998
1.2858398437499998
0.8588378906249999
0.5389892578125
0.1490478515625
0.041088867187499996
0.040283203125
0.0394775390625
0.042700195312499994
0.046728515624999994
0.0733154296875
0.103125
0.19013671875
0.240087890625
0.1345458984375
0.0394775390625
0.042700195312499994
0.043505859375
0.185302734375
0.30615234375
0.49064941406249996
1.2882568359375
1.9037841796875
2.383154296875
2.8222412109375
3.043798828125
3.04541015625
3.0429931640624996
3.0421875
3.0421875
3.0405761718749997
2.9527587890625
2.8294921874999996
2.6925292968749996
2.5483154296875
2.3855712890625
2.8206298828125
2.9962646484374997
3.0284912109374997
3.0172119140625
2.9044189453125
2.6997802734375
2.260693359375
1.767626953125
1.0884521484375
0.6767578125
0.4068603515625
0.15871582031249998
0.049145507812499996
0.0394775390625
0.033032226562499996
0.0362548828125
0.053173828124999996
0.2698974609375
0.38349609375
0.47775878906249997
0.6163330078125
0.15227050781249998
0.041088867187499996
0.040283203125
0.0394775390625
0.08942871093749999
0.26828613281249997
0.8838134765625
1.477587890625
2.109228515625
2.495947265625
2.872998046875
3.0413818359375
3.0446044921874997
3.0421875
3.0421875
3.0156005859375
2.9398681640624997
2.8810546875
2.8319091796875
2.6876953125
2.5628173828125
2.9575927734375
3.0123779296874997
3.0397705078125
3.0204345703124997
2.89072265625
2.7336181640625
2.3823486328125
1.735400390625
1.2584472656249999
0.8950927734374999
0.5357666015625
0.230419921875
0.0394775390625
0.0394775390625
0.0394775390625
0.040283203125
0.08056640625
0.1538818359375
0.175634765625
0.233642578125
0.3069580078125
0.045117187499999996
0.041088867187499996
0.040283203125
0.0394775390625
0.1796630859375
0.262646484375
0.7355712890624999
1.5831298828125
2.135009765625
2.6441894531249996
2.9962646484374997
3.0389648437499996
3.0397705078125
3.0429931640624996
3.0486328124999997
3.0421875
3.01962890625
2.827880859375
2.7674560546875
2.5845703125
2.4774169921875
2.6458007812499997
2.8464111328125
2.8770263671875
2.9801513671874997
2.905224609375
2.7779296875
2.2840576171875
1.8199951171875
1.2963134765625
0.6888427734375
0.3230712890625
0.046728515624999994
0.0362548828125
0.0443115234375
0.0443115234375
0.041088867187499996
0.072509765625
0.116015625
0.2280029296875
0.32871093749999997
0.543017578125
0.240087890625
0.043505859375
0.04189453125
0.046728515624999994
0.0668701171875
0.24814453125
0.5728271484374999
1.3801025390625
1.8651123046875
2.4041015624999997
2.7545654296874997
2.9438964843749997
3.0421875
3.0381591796875
3.0421875
3.0470214843749996
3.043798828125
2.95517578125
2.86494140625
2.6772216796875
2.486279296875
2.4121582031249997
2.953564453125
2.9922363281249997
2.9825683593749996
2.892333984375
2.7191162109375
2.457275390625
2.0633056640625
1.4598632812499999
1.0755615234375
0.6920654296875
0.32065429687499997
0.12165527343749999
0.041088867187499996
0.04189453125
0.04189453125
0.04189453125
0.0926513671875
0.19899902343749998
0.31743164062499996
0.4632568359375
0.559130859375
0.0394775390625
0.0394775390625
0.041088867187499996
0.058813476562499994
0.11359863281249999
0.32145996093749996
0.990966796875
1.740234375
2.1100341796874997
2.5168945312499997
2.8754150390624997
3.0333251953125
3.0421875
3.0413818359375
3.043798828125
3.001904296875
2.979345703125
2.8552734374999997
2.7811523437499996
2.6756103515625
2.4943359375
2.94873046875
3.018017578125
3.02607421875
2.98740234375
2.811767578125
2.6127685546875
2.1076171875
1.55009765625
1.069921875
0.5043457031249999
0.2038330078125
0.04189453125
0.042700195312499994
0.040283203125
0.040283203125
0.0443115234375
0.04189453125
0.09990234375
0.2618408203125
0.399609375
0.5309326171875
0.0394775390625
0.0459228515625
0.040283203125
0.04189453125
0.133740234375
0.49064941406249996
1.0803955078125
1.7716552734375
2.1720703125
2.769873046875
3.0470214843749996
3.0421875
3.0470214843749996
3.04541015625
3.0405761718749997
3.0446044921874997
2.9495361328125
2.8625244140625
2.70703125
2.49755859375
2.389599609375
2.634521484375
2.7851806640624996
2.8166015625
2.7561767578125
2.5491210937499997
2.3275634765624997
1.9529296875
1.49853515625
0.800830078125
0.3520751953125
0.041088867187499996
0.040283203125
0.040283203125
0.041088867187499996
0.041088867187499996
0.037060546874999996
0.040283203125
0.10957031249999999
0.2989013671875
0.5438232421875
0.8032470703125
0.491455078125
0.270703125
0.32065429687499997
0.3794677734375
0.6002197265625
0.936181640625
1.4888671875
2.53623046875
3.027685546875
3.0446044921874997
3.043798828125
3.0421875
3.043798828125
2.9712890625
2.695751953125
2.553955078125
0.6550048828124999
0.270703125
1.7337890624999999
1.7772949218749998
1.6282470703124998
1.6588623046875
1.6153564453125
1.5017578125
1.5106201171875
1.5396240234374998
1.4542236328125
1.4791992187499998
1.5033691406249998
1.3470703124999999
1.3261230468749998
1.4501953125
1.561376953125
1.5565429687499999
1.5476806640624998
1.5758789062499998
1.5807128906249999
1.5275390624999998
1.506591796875
1.558154296875
1.5927978515624999
1.5984375
1.5525146484374999
1.6056884765625
1.6105224609375
1.5815185546875
1.606494140625
1.625830078125
1.6475830078125
1.65
1.641943359375
1.6250244140624999
1.5944091796875
1.5565429687499999
1.5927978515624999
1.5686279296874999
1.5436523437499998
1.5541259765625
1.4356933593749999
1.4195800781249999
1.5492919921875
1.5412353515625
1.5509033203125
1.571044921875
1.5678222656249998
1.5299560546875
1.4219970703125
1.5396240234374998
1.5428466796875
1.53720703125
1.5041748046874999
1.509814453125
1.522705078125
1.5186767578125
1.529150390625
1.5275390624999998
1.5533203125
1.490478515625
1.4735595703125
1.5589599609375
1.5686279296874999
1.590380859375
1.5879638671874998
1.5911865234375
1.56943359375
1.5758789062499998
1.55009765625
1.58232421875
1.6024658203125
1.606494140625
1.625830078125
1.641943359375
1.6201904296874998
1.606494140625
1.603271484375
1.5726562499999999
1.5686279296874999
1.5533203125
1.5645996093749999
1.545263671875
1.53720703125
1.5533203125
1.5315673828124998
1.53076171875
1.529150390625
1.49853515625
1.51787109375
1.5484863281249999
1.5202880859374999
1.5323730468749999
1.2334716796875
1.4219970703125
1.4791992187499998
1.416357421875
0.04189453125
0.0394775390625
0.8290283203125
1.53076171875
1.5799072265624998
1.5799072265624998
1.6459716796875
1.7289550781249998
1.72734375
1.6371093749999999
1.7088134765624998
1.7208984374999998
1.6943115234375
1.6346923828125
1.6322753906249998
1.7104248046875
1.74345703125
1.7499023437499999
1.7539306640624999
1.7523193359375
1.6910888671875
1.6290527343749999
1.683837890625
1.6685302734374998
1.67900390625
1.6693359374999999
1.6846435546874998
1.803076171875
1.7184814453125
1.6105224609375
1.59521484375
1.5750732421875
1.53720703125
1.6798095703125
1.674169921875
1.5863525390625
1.558154296875
1.5315673828124998
1.5267333984375
1.5186767578125
1.5057861328125
1.513037109375
1.619384765625
1.5283447265624999
1.5162597656249999
1.5162597656249999
1.538818359375
1.546875
1.5476806640624998
1.558154296875
1.5589599609375
1.546875
1.554931640625
1.5436523437499998
1.5533203125
1.5162597656249999
1.525927734375
1.5815185546875
1.5895751953125
1.6008544921874999
1.61455078125
1.5791015625
1.6121337890624998
1.593603515625
1.6056884765625
1.603271484375
1.585546875
1.5839355468749998
1.5895751953125
1.56943359375
1.5782958984375
1.5589599609375
1.546875
1.5283447265624999
1.506591796875
1.5331787109375
1.9706542968749998
1.67578125
1.5315673828124998
1.5251220703125
1.4687255859375
1.4598632812499999
1.4638916015624999
1.46953125
1.4622802734375
1.464697265625
1.4912841796874998
1.5863525390625
1.561376953125
1.558154296875
1.5525146484374999
1.545263671875
1.554931640625
1.5202880859374999
1.5090087890625
1.5025634765625
1.5154541015624998
1.5251220703125
1.5492919921875
1.5750732421875
1.493701171875
1.5702392578125
1.5984375
1.5992431640625
1.59521484375
1.590380859375
1.5895751953125
1.5686279296874999
1.55009765625
1.546875
1.5251220703125
1.509814453125
1.529150390625
1.5331787109375
1.5355957031249998
1.5484863281249999
1.542041015625
1.5404296874999999
1.5323730468749999
1.5154541015624998
1.4977294921875
1.48564453125
1.4791992187499998
1.4679199218749999
1.4493896484375
1.4526123046875
1.4574462890625
1.4598632812499999
1.4679199218749999
1.4767822265625
1.5170654296875
1.533984375
1.53720703125
1.5299560546875
1.5565429687499999
1.5492919921875
1.5412353515625
1.5444580078124999
1.5380126953125
1.52109375
1.561376953125
1.5662109375
1.571044921875
1.5944091796875
1.6056884765625
1.6000488281249998
1.606494140625
1.5984375
1.5766845703124999
1.577490234375
1.5718505859374998
1.5726562499999999
1.5654052734375
1.5565429687499999
1.5484863281249999
1.546875
1.545263671875
1.5355957031249998
1.525927734375
1.5347900390625
1.5355957031249998
1.525927734375
1.5114257812499998
1.5025634765625
1.4920898437499999
1.4655029296875
1.4550292968749998
1.4606689453125
1.4791992187499998
1.4864501953125
1.4896728515625
1.509814453125
1.5186767578125
1.533984375
1.5355957031249998
1.5404296874999999
1.5541259765625
1.5597656249999998
1.5533203125
1.5525146484374999
1.5605712890624999
1.561376953125
1.5734619140625
1.5847412109374999
1.5984375
1.5968261718749999
1.6056884765625
1.6218017578125
1.6250244140624999
1.6242187499999998
1.590380859375
1.5807128906249999
1.587158203125
1.574267578125
1.5686279296874999
1.5565429687499999
1.5557373046874998
1.5509033203125
1.5476806640624998
1.5396240234374998
1.533984375
1.5396240234374998
1.5380126953125
1.52109375
1.525927734375
1.5154541015624998
1.4953124999999998
1.4848388671875
1.4711425781249998
1.4751708984374998
1.4832275390624998
1.5017578125
1.4961181640624999
1.5082031249999999
1.5082031249999999
1.5251220703125
1.525927734375
1.5364013671874999
1.5484863281249999
1.546875
1.542041015625
1.53720703125
1.5436523437499998
1.5533203125
1.5654052734375
1.5766845703124999
1.593603515625
1.609716796875
1.6177734375
1.6250244140624999
1.6266357421875
1.6242187499999998
1.6105224609375
1.60166015625
1.5766845703124999
1.5758789062499998
1.5654052734375
1.558154296875
1.546875
1.5364013671874999
1.5347900390625
1.5380126953125
1.5355957031249998
1.542041015625
1.5315673828124998
1.5235107421874998
1.5106201171875
1.5057861328125
1.5082031249999999
1.4912841796874998
1.4832275390624998
1.4703369140625
1.4703369140625
1.482421875
1.4800048828124999
1.509814453125
1.5001464843749999
1.5106201171875
1.5267333984375
1.53720703125
1.5492919921875
1.5396240234374998
1.55009765625
1.5573486328125
1.561376953125
1.5597656249999998
1.56298828125
1.5654052734375
1.5799072265624998
1.590380859375
1.6048828124999999
1.6089111328124999
1.62744140625
1.6137451171875
1.6000488281249998
1.5911865234375
1.587158203125
1.5670166015625
1.5662109375
1.5525146484374999
1.546875
1.538818359375
1.5444580078124999
1.5347900390625
1.53076171875
1.5355957031249998
1.5283447265624999
1.5299560546875
1.5186767578125
1.5033691406249998
1.4977294921875
1.490478515625
1.4832275390624998
1.4671142578124998
1.4735595703125
1.477587890625
1.482421875
1.4993408203124998
1.5090087890625
1.5154541015624998
1.5331787109375
1.53720703125
1.5460693359375
1.5484863281249999
1.5492919921875
1.5565429687499999
1.5597656249999998
1.5589599609375
1.5589599609375
1.5678222656249998
1.5791015625
1.5944091796875
1.603271484375
1.6137451171875
1.6306640625
1.6161621093749998
1.6072998046875
1.593603515625
1.5839355468749998
1.574267578125
1.5605712890624999
1.56298828125
1.542041015625
1.53720703125
1.5484863281249999
1.53720703125
1.5323730468749999
1.5299560546875
1.5251220703125
1.5243164062499999
1.5218994140625
1.5170654296875
1.4920898437499999
1.490478515625
1.4759765624999999
1.4759765624999999
1.477587890625
1.4832275390624998
1.4896728515625
1.490478515625
1.5041748046874999
1.5122314453124999
1.525927734375
1.5428466796875
1.542041015625
1.5557373046874998
1.554931640625
1.5573486328125
1.5565429687499999
1.5533203125
1.5484863281249999
1.5670166015625
1.5718505859374998
1.5976318359375
1.611328125
1.6121337890624998
1.6177734375
1.6137451171875
1.60166015625
1.6000488281249998
1.5839355468749998
1.5791015625
1.5726562499999999
1.561376953125
1.5444580078124999
1.5444580078124999
1.53076171875
1.5364013671874999
1.5315673828124998
1.5299560546875
1.5315673828124998
1.5315673828124998
1.5243164062499999
1.5106201171875
1.5057861328125
1.4872558593749998
1.48564453125
1.477587890625
1.4791992187499998
1.4832275390624998
1.4848388671875
1.490478515625
1.4961181640624999
1.51787109375
1.5299560546875
1.5315673828124998
1.5436523437499998
1.5444580078124999
1.5541259765625
1.5484863281249999
1.5589599609375
1.5589599609375
1.5565429687499999
1.56943359375
1.5726562499999999
1.5895751953125
1.5968261718749999
1.6089111328124999
1.6161621093749998
1.6209960937499999
1.6048828124999999
1.5960205078124998
1.5887695312499999
1.571044921875
1.5758789062499998
1.5557373046874998
1.5444580078124999
1.5484863281249999
1.5347900390625
1.538818359375
1.529150390625
1.5218994140625
1.525927734375
1.5331787109375
1.5267333984375
1.5218994140625
1.5001464843749999
1.490478515625
1.4840332031249999
1.48564453125
1.4767822265625
1.4751708984374998
1.4896728515625
1.4888671875
1.5082031249999999
1.522705078125
1.5243164062499999
1.5355957031249998
1.538818359375
1.5492919921875
1.5533203125
1.554931640625
1.561376953125
1.558154296875
1.5597656249999998
1.5605712890624999
1.5718505859374998
1.5895751953125
1.5944091796875
1.6072998046875
1.6169677734374999
1.6242187499999998
1.6153564453125
1.5960205078124998
1.59521484375
1.577490234375
1.5726562499999999
1.5605712890624999
1.5517089843749998
1.5484863281249999
1.5396240234374998
1.53720703125
1.5331787109375
1.525927734375
1.5243164062499999
1.5275390624999998
1.5315673828124998
1.506591796875
1.5090087890625
1.5009521484375
1.4864501953125
1.480810546875
1.4687255859375
1.4735595703125
1.4880615234374999
1.4896728515625
1.5009521484375
1.5202880859374999
1.525927734375
1.5275390624999998
1.5380126953125
1.5525146484374999
1.5533203125
1.554931640625
1.5541259765625
1.5605712890624999
1.56298828125
1.5605712890624999
1.5782958984375
1.5807128906249999
1.60166015625
1.6024658203125
1.609716796875
1.62744140625
1.6177734375
1.6081054687499998
1.6024658203125
1.58232421875
1.5637939453124998
1.5605712890624999
1.5509033203125
1.545263671875
1.5364013671874999
1.545263671875
1.5315673828124998
1.5299560546875
1.5275390624999998
1.5315673828124998
1.5299560546875
1.51787109375
1.5114257812499998
1.5025634765625
1.48564453125
1.47275390625
1.4703369140625
1.4687255859375
1.482421875
1.4920898437499999
1.5017578125
1.5082031249999999
1.5218994140625
1.533984375
1.5315673828124998
1.5541259765625
1.5436523437499998
1.5541259765625
1.5645996093749999
1.558154296875
1.5637939453124998
1.5573486328125
1.571044921875
1.5791015625
1.5911865234375
1.6048828124999999
1.61455078125
1.619384765625
1.6153564453125
1.60166015625
1.59521484375
1.585546875
1.574267578125
1.5597656249999998
1.5541259765625
1.5436523437499998
1.55009765625
1.5428466796875
1.533984375
1.5315673828124998
1.529150390625
1.5355957031249998
1.52109375
1.5235107421874998
1.5017578125
1.49853515625
1.4872558593749998
1.4864501953125
1.4767822265625
1.474365234375
1.4759765624999999
1.4840332031249999
1.4977294921875
1.5114257812499998
1.5202880859374999
1.5355957031249998
1.538818359375
1.5428466796875
1.55009765625
1.5517089843749998
1.5605712890624999
1.5621826171875
1.56943359375
1.5509033203125
1.5702392578125
1.5847412109374999
1.6089111328124999
1.6040771484374998
1.6129394531249999
1.6185791015625
1.619384765625
1.6121337890624998
1.5944091796875
1.5758789062499998
1.5670166015625
1.561376953125
1.5565429687499999
1.545263671875
1.5533203125
1.542041015625
1.5323730468749999
1.53720703125
1.52109375
1.529150390625
1.5267333984375
1.5186767578125
1.5057861328125
1.496923828125
1.4953124999999998
1.4848388671875
1.4800048828124999
1.4759765624999999
1.474365234375
1.4928955078125
1.496923828125
1.509814453125
1.513037109375
1.533984375
1.5283447265624999
1.5355957031249998
1.538818359375
1.554931640625
1.5525146484374999
1.561376953125
1.558154296875
1.56298828125
1.571044921875
1.577490234375
1.5863525390625
1.6072998046875
1.6137451171875
1.6218017578125
1.6201904296874998
1.61455078125
1.5960205078124998
1.590380859375
1.5734619140625
1.571044921875
1.558154296875
1.5517089843749998
1.542041015625
1.5380126953125
1.5355957031249998
1.5347900390625
1.5299560546875
1.5251220703125
1.5243164062499999
1.5194824218749998
1.5186767578125
1.509814453125
1.4880615234374999
1.4791992187499998
1.4816162109375
1.4783935546875
1.4816162109375
1.4888671875
1.4872558593749998
1.509814453125
1.513037109375
1.52109375
1.5364013671874999
1.5412353515625
1.5460693359375
1.554931640625
1.5517089843749998
1.5686279296874999
1.5597656249999998
1.5565429687499999
1.5718505859374998
1.5831298828125
1.5847412109374999
1.5984375
1.619384765625
1.6185791015625
1.622607421875
1.6089111328124999
1.5919921874999998
1.5976318359375
1.5799072265624998
1.5766845703124999
1.5637939453124998
1.5484863281249999
1.542041015625
1.53720703125
1.5355957031249998
1.5364013671874999
1.53720703125
1.5323730468749999
1.5275390624999998
1.5194824218749998
1.5202880859374999
1.50498046875
1.4977294921875
1.4864501953125
1.4687255859375
1.46953125
1.480810546875
1.4703369140625
1.4928955078125
1.5186767578125
1.525927734375
1.5275390624999998
1.5202880859374999
1.5364013671874999
1.538818359375
1.5509033203125
1.5621826171875
1.5565429687499999
1.5541259765625
1.5484863281249999
1.561376953125
1.5734619140625
1.5895751953125
1.60166015625
1.6121337890624998
1.6218017578125
1.619384765625
1.6129394531249999
1.6048828124999999
1.590380859375
1.5791015625
1.56943359375
1.5589599609375
1.5492919921875
1.538818359375
1.5396240234374998
1.538818359375
1.529150390625
1.5299560546875
1.5283447265624999
1.5299560546875
1.5251220703125
1.5073974609374998
1.5106201171875
1.5025634765625
1.4888671875
1.4816162109375
1.4711425781249998
1.46953125
1.4800048828124999
1.5001464843749999
1.5025634765625
1.5114257812499998
1.5243164062499999
1.5283447265624999
1.5412353515625
1.5436523437499998
1.545263671875
1.542041015625
1.55009765625
1.5621826171875
1.5565429687499999
1.5637939453124998
1.5758789062499998
1.590380859375
1.5992431640625
1.6081054687499998
1.6121337890624998
1.6129394531249999
1.6089111328124999
1.6000488281249998
1.60166015625
1.577490234375
1.571044921875
1.5734619140625
1.5605712890624999
1.5436523437499998
1.5444580078124999
1.5396240234374998
1.5380126953125
1.53076171875
1.52109375
1.53076171875
1.5267333984375
1.5186767578125
1.5073974609374998
1.4945068359375
1.493701171875
1.477587890625
1.46953125
1.4800048828124999
1.4751708984374998
1.490478515625
1.4961181640624999
1.509814453125
1.5243164062499999
1.5218994140625
1.53076171875
1.533984375
1.5444580078124999
1.545263671875
1.5597656249999998
1.5670166015625
1.5573486328125
1.5517089843749998
1.5791015625
1.5887695312499999
1.5992431640625
1.6024658203125
1.6161621093749998
1.6209960937499999
1.6129394531249999
1.6089111328124999
1.5919921874999998
1.5887695312499999
1.56943359375
1.5605712890624999
1.5573486328125
1.545263671875
1.5412353515625
1.5428466796875
1.5355957031249998
1.529150390625
1.522705078125
1.5194824218749998
1.529150390625
1.5202880859374999
1.5082031249999999
1.5017578125
1.490478515625
1.490478515625
1.4687255859375
1.464697265625
1.4759765624999999
1.4848388671875
1.5009521484375
1.5106201171875
1.5202880859374999
1.525927734375
1.5380126953125
1.542041015625
1.5436523437499998
1.5533203125
1.5541259765625
1.5573486328125
1.5605712890624999
1.5533203125
1.5750732421875
1.5782958984375
1.5960205078124998
1.603271484375
1.6072998046875
1.6177734375
1.6234130859375
1.6089111328124999
1.5968261718749999
1.5807128906249999
1.5702392578125
1.5645996093749999
1.5565429687499999
1.5517089843749998
1.545263671875
1.5404296874999999
1.533984375
1.529150390625
1.5283447265624999
1.5251220703125
1.5347900390625
1.525927734375
1.5114257812499998
1.4993408203124998
1.4896728515625
1.4783935546875
1.4767822265625
1.47275390625
1.4791992187499998
1.4840332031249999
1.4993408203124998
1.506591796875
1.5114257812499998
1.5275390624999998
1.542041015625
1.5380126953125
1.542041015625
1.542041015625
1.558154296875
1.5621826171875
1.5637939453124998
1.5517089843749998
1.5678222656249998
1.58232421875
1.5863525390625
1.6089111328124999
1.6161621093749998
1.6266357421875
1.625830078125
1.609716796875
1.6000488281249998
1.5895751953125
1.5670166015625
1.5605712890624999
1.5533203125
1.5444580078124999
1.545263671875
1.5404296874999999
1.5323730468749999
1.5331787109375
1.5267333984375
1.52109375
1.5323730468749999
1.5138427734375
1.513037109375
1.50498046875
1.496923828125
1.48564453125
1.474365234375
1.46953125
1.4880615234374999
1.482421875
1.5033691406249998
1.49853515625
1.5146484375
1.5202880859374999
1.5243164062499999
1.542041015625
1.5517089843749998
1.55009765625
1.5517089843749998
1.5637939453124998
1.5670166015625
1.5597656249999998
1.5573486328125
1.5791015625
1.5879638671874998
1.603271484375
1.603271484375
1.6177734375
1.6177734375
1.6129394531249999
1.587158203125
1.590380859375
1.574267578125
1.5686279296874999
1.5525146484374999
1.5509033203125
1.5509033203125
1.53720703125
1.5331787109375
1.5331787109375
1.525927734375
1.5283447265624999
1.5380126953125
1.5243164062499999
1.513037109375
1.5090087890625
1.4953124999999998
1.482421875
1.477587890625
1.4719482421874999
1.4759765624999999
1.48564453125
1.496923828125
1.5114257812499998
1.5138427734375
1.5275390624999998
1.5283447265624999
1.5396240234374998
1.5492919921875
1.5509033203125
1.5476806640624998
1.5686279296874999
1.5670166015625
1.558154296875
1.558154296875
1.5734619140625
1.587158203125
1.6056884765625
1.5992431640625
1.6161621093749998
1.6201904296874998
1.6089111328124999
1.5984375
1.5847412109374999
1.5782958984375
1.571044921875
1.5597656249999998
1.5484863281249999
1.5484863281249999
1.5460693359375
1.53720703125
1.5355957031249998
1.529150390625
1.522705078125
1.53076171875
1.5323730468749999
1.5162597656249999
1.5073974609374998
1.4920898437499999
1.4880615234374999
1.4735595703125
1.4751708984374998
1.4759765624999999
1.4840332031249999
1.4920898437499999
1.4977294921875
1.5146484375
1.5202880859374999
1.5380126953125
1.5396240234374998
1.546875
1.5460693359375
1.5565429687499999
1.5589599609375
1.5573486328125
1.5589599609375
1.5645996093749999
1.574267578125
1.585546875
1.590380859375
1.6040771484374998
1.611328125
1.6177734375
1.6089111328124999
1.6040771484374998
1.5992431640625
1.585546875
1.5670166015625
1.5573486328125
1.5541259765625
1.5525146484374999
1.5396240234374998
1.5404296874999999
1.5251220703125
1.5380126953125
1.5243164062499999
1.5194824218749998
1.525927734375
1.5267333984375
1.5138427734375
1.493701171875
1.490478515625
1.47275390625
1.4687255859375
1.4751708984374998
1.4848388671875
1.4993408203124998
1.5073974609374998
1.5154541015624998
1.5170654296875
1.5267333984375
1.538818359375
1.5412353515625
1.554931640625
1.5484863281249999
1.561376953125
1.5597656249999998
1.561376953125
1.5492919921875
1.5654052734375
1.5734619140625
1.5919921874999998
1.6056884765625
1.6137451171875
1.6250244140624999
1.622607421875
1.5992431640625
1.5887695312499999
1.587158203125
1.5758789062499998
1.5645996093749999
1.5492919921875
1.5476806640624998
1.5396240234374998
1.5323730468749999
1.5347900390625
1.5315673828124998
1.529150390625
1.5323730468749999
1.522705078125
1.513037109375
1.506591796875
1.5025634765625
1.4920898437499999
1.4791992187499998
1.474365234375
1.4671142578124998
1.4840332031249999
1.4928955078125
1.4961181640624999
1.5041748046874999
1.5154541015624998
1.5299560546875
1.5396240234374998
1.5428466796875
1.5428466796875
1.5484863281249999
1.554931640625
1.5565429687499999
1.56298828125
1.5589599609375
1.5718505859374998
1.58232421875
1.5927978515624999
1.6137451171875
1.6089111328124999
1.6153564453125
1.6209960937499999
1.6137451171875
1.5960205078124998
1.5807128906249999
1.5645996093749999
1.5573486328125
1.5670166015625
1.554931640625
1.5517089843749998
1.53076171875
1.529150390625
1.5355957031249998
1.529150390625
1.5251220703125
1.5315673828124998
1.5323730468749999
1.51787109375
1.4993408203124998
1.490478515625
1.477587890625
1.477587890625
1.4735595703125
1.477587890625
1.4920898437499999
1.4961181640624999
1.5057861328125
1.5170654296875
1.525927734375
1.525927734375
1.5380126953125
1.545263671875
1.55009765625
1.5517089843749998
1.5565429687499999
1.5557373046874998
1.5525146484374999
1.5726562499999999
1.5815185546875
1.5927978515624999
1.6105224609375
1.62744140625
1.61455078125
1.622607421875
1.61455078125
1.5960205078124998
1.590380859375
1.5750732421875
1.5750732421875
1.5565429687499999
1.5509033203125
1.538818359375
1.5436523437499998
1.5315673828124998
1.5331787109375
1.5380126953125
1.525927734375
1.5243164062499999
1.5162597656249999
1.5194824218749998
1.4953124999999998
1.4953124999999998
1.4840332031249999
1.4719482421874999
1.477587890625
1.4767822265625
1.4848388671875
1.4961181640624999
1.5082031249999999
1.5146484375
1.5315673828124998
1.5347900390625
1.5380126953125
1.5484863281249999
1.545263671875
1.554931640625
1.5517089843749998
1.561376953125
1.558154296875
1.571044921875
1.577490234375
1.587158203125
1.60166015625
1.611328125
1.619384765625
1.6209960937499999
1.6072998046875
1.5976318359375
1.593603515625
1.5815185546875
1.5686279296874999
1.5645996093749999
1.5484863281249999
1.5412353515625
1.545263671875
1.533984375
1.5364013671874999
1.5283447265624999
1.533984375
1.5218994140625
1.5243164062499999
1.5170654296875
1.506591796875
1.5001464843749999
1.4848388671875
1.4719482421874999
1.474365234375
1.477587890625
1.482421875
1.4920898437499999
1.5017578125
1.513037109375
1.5170654296875
1.5275390624999998
1.5533203125
1.5533203125
1.5525146484374999
1.5517089843749998
1.5597656249999998
1.5597656249999998
1.55009765625
1.5557373046874998
1.5766845703124999
1.5839355468749998
1.5968261718749999
1.6089111328124999
1.611328125
1.6201904296874998
1.6121337890624998
1.609716796875
1.585546875
1.5782958984375
1.5702392578125
1.5621826171875
1.545263671875
1.5444580078124999
1.5380126953125
1.5355957031249998
1.5331787109375
1.5315673828124998
1.5331787109375
1.5355957031249998
1.53076171875
1.51787109375
1.5033691406249998
1.4912841796874998
1.4832275390624998
1.4816162109375
1.4759765624999999
1.4655029296875
1.4783935546875
1.4928955078125
1.5073974609374998
1.52109375
1.5186767578125
1.5218994140625
1.5331787109375
1.542041015625
1.5476806640624998
1.56298828125
1.5565429687499999
1.5597656249999998
1.55009765625
1.55009765625
1.5686279296874999
1.5839355468749998
1.5968261718749999
1.6056884765625
1.6218017578125
1.6306640625
1.6129394531249999
1.60166015625
1.5919921874999998
1.5863525390625
1.5662109375
1.5637939453124998
1.5557373046874998
1.5533203125
1.5364013671874999
1.5396240234374998
1.53076171875
1.5299560546875
1.533984375
1.5275390624999998
1.5380126953125
1.5170654296875
1.4993408203124998
1.4961181640624999
1.4888671875
1.4791992187499998
1.4767822265625
1.48564453125
1.4751708984374998
1.4840332031249999
1.5033691406249998
1.5202880859374999
1.5251220703125
1.5251220703125
1.538818359375
1.5347900390625
1.5517089843749998
1.5484863281249999
1.561376953125
1.5533203125
1.558154296875
1.554931640625
1.5702392578125
1.5895751953125
1.6048828124999999
1.6040771484374998
1.6105224609375
1.6242187499999998
1.6201904296874998
1.6072998046875
1.5960205078124998
1.5847412109374999
1.571044921875
1.56298828125
1.554931640625
1.545263671875
1.546875
1.5299560546875
1.5315673828124998
1.5299560546875
1.5323730468749999
1.5299560546875
1.5283447265624999
1.5186767578125
1.51787109375
1.5033691406249998
1.4888671875
1.4759765624999999
1.4679199218749999
1.4759765624999999
1.480810546875
1.4848388671875
1.496923828125
1.5154541015624998
1.5146484375
1.5243164062499999
1.5380126953125
1.5412353515625
1.5533203125
1.5444580078124999
1.5517089843749998
1.554931640625
1.5654052734375
1.5670166015625
1.5686279296874999
1.5750732421875
1.5847412109374999
1.5960205078124998
1.609716796875
1.6161621093749998
1.6218017578125
1.606494140625
1.5992431640625
1.5863525390625
1.5766845703124999
1.5750732421875
1.55009765625
1.5492919921875
1.542041015625
1.5404296874999999
1.5347900390625
1.529150390625
1.5275390624999998
1.5267333984375
1.5299560546875
1.522705078125
1.509814453125
1.49853515625
1.4912841796874998
1.4872558593749998
1.4767822265625
1.4679199218749999
1.4711425781249998
1.4840332031249999
1.5025634765625
1.5009521484375
1.522705078125
1.5251220703125
1.53720703125
1.5404296874999999
1.542041015625
1.5476806640624998
1.554931640625
1.56298828125
1.5573486328125
1.5525146484374999
1.574267578125
1.58232421875
1.593603515625
1.603271484375
1.611328125
1.6218017578125
1.6209960937499999
1.6008544921874999
1.6008544921874999
1.5887695312499999
1.5831298828125
1.5678222656249998
1.5525146484374999
1.5484863281249999
1.5428466796875
1.5323730468749999
1.529150390625
1.5347900390625
1.53720703125
1.5251220703125
1.5275390624999998
1.5138427734375
1.52109375
1.506591796875
1.490478515625
1.4783935546875
1.4759765624999999
1.4703369140625
1.4751708984374998
1.493701171875
1.4888671875
1.506591796875
1.5170654296875
1.5235107421874998
1.5412353515625
1.5484863281249999
1.5509033203125
1.5484863281249999
1.5476806640624998
1.5533203125
1.5654052734375
1.5573486328125
1.56943359375
1.577490234375
1.5807128906249999
1.593603515625
1.609716796875
1.6137451171875
1.6201904296874998
1.609716796875
1.593603515625
1.5815185546875
1.5879638671874998
1.5605712890624999
1.5605712890624999
1.545263671875
1.5476806640624998
1.5396240234374998
1.5396240234374998
1.5355957031249998
1.53076171875
1.51787109375
1.53076171875
1.5243164062499999
1.5202880859374999
1.5033691406249998
1.4953124999999998
1.4800048828124999
1.46630859375
1.4719482421874999
1.482421875
1.49853515625
1.4920898437499999
1.5090087890625
1.5243164062499999
1.53720703125
1.5331787109375
1.53720703125
1.5436523437499998
1.5404296874999999
1.5517089843749998
1.561376953125
1.5605712890624999
1.5605712890624999
1.5702392578125
1.571044921875
1.5807128906249999
1.606494140625
1.609716796875
1.6177734375
1.619384765625
1.6081054687499998
1.603271484375
1.5879638671874998
1.577490234375
1.5670166015625
1.554931640625
1.5557373046874998
1.5509033203125
1.5428466796875
1.5331787109375
1.5323730468749999
1.53076171875
1.53076171875
1.5275390624999998
1.5275390624999998
1.52109375
1.5106201171875
1.4953124999999998
1.4896728515625
1.477587890625
1.4703369140625
1.4791992187499998
1.4912841796874998
1.4928955078125
1.4977294921875
1.506591796875
1.5315673828124998
1.5267333984375
1.5396240234374998
1.546875
1.5492919921875
1.5525146484374999
1.558154296875
1.5589599609375
1.5541259765625
1.5645996093749999
1.5734619140625
1.5807128906249999
1.59521484375
1.6040771484374998
1.6048828124999999
1.6218017578125
1.619384765625
1.6081054687499998
1.59521484375
1.58232421875
1.5645996093749999
1.558154296875
1.554931640625
1.5533203125
1.5460693359375
1.5364013671874999
1.4518066406249999
1.5275390624999998
1.5251220703125
1.53076171875
1.5275390624999998
1.5090087890625
1.5106201171875
1.4977294921875
1.4896728515625
1.4864501953125
1.4767822265625
1.4759765624999999
1.4751708984374998
1.4928955078125
1.50498046875
1.5194824218749998
1.5154541015624998
1.53076171875
1.5355957031249998
1.546875
1.558154296875
1.5565429687499999
1.5509033203125
1.558154296875
1.5597656249999998
1.5654052734375
1.5702392578125
1.5807128906249999
1.587158203125
1.6081054687499998
1.61455078125
1.611328125
1.611328125
1.6056884765625
1.590380859375
1.5791015625
1.5750732421875
1.558154296875
1.5541259765625
1.5436523437499998
1.5364013671874999
1.538818359375
1.5323730468749999
1.5380126953125
1.5355957031249998
1.5355957031249998
1.5267333984375
1.5186767578125
1.5073974609374998
1.5017578125
1.48564453125
1.4816162109375
1.4791992187499998
1.477587890625
1.477587890625
1.4912841796874998
1.50498046875
1.5154541015624998
1.5186767578125
1.522705078125
1.5323730468749999
1.5436523437499998
1.5509033203125
1.554931640625
1.5541259765625
1.5573486328125
1.5573486328125
1.5573486328125
1.5726562499999999
1.571044921875
1.5863525390625
1.6040771484374998
1.6177734375
1.619384765625
1.61455078125
1.5992431640625
1.59521484375
1.5863525390625
1.5718505859374998
1.554931640625
1.5476806640624998
1.5436523437499998
1.533984375
1.5331787109375
1.53720703125
1.5331787109375
1.5347900390625
1.53076171875
1.538818359375
1.5243164062499999
1.5090087890625
1.4928955078125
1.49853515625
1.4928955078125
1.4800048828124999
1.474365234375
1.4711425781249998
1.4832275390624998
1.4912841796874998
1.5146484375
1.5122314453124999
1.5347900390625
1.533984375
1.5404296874999999
1.5476806640624998
1.554931640625
1.5541259765625
1.558154296875
1.56298828125
1.5525146484374999
1.5637939453124998
1.5815185546875
1.585546875
1.5984375
1.611328125
1.6169677734374999
1.6177734375
1.609716796875
1.5976318359375
1.5911865234375
1.571044921875
1.5662109375
1.5662109375
1.5517089843749998
1.5428466796875
1.5460693359375
1.5347900390625
1.53720703125
1.5267333984375
1.5283447265624999
1.5355957031249998
1.5162597656249999
1.5170654296875
1.506591796875
1.4912841796874998
1.4928955078125
1.4703369140625
1.4735595703125
1.4783935546875
