1.5251220703125
1.5033691406249998
1.5009521484375
1.4848388671875
1.47275390625
1.4791992187499998
1.4800048828124999
1.4832275390624998
1.496923828125
1.493701171875
1.509814453125
1.51787109375
1.53076171875
1.5364013671874999
1.546875
1.55009765625
1.5517089843749998
1.5565429687499999
1.5589599609375
1.5621826171875
1.5605712890624999
1.574267578125
1.5782958984375
1.5879638671874998
1.6040771484374998
1.6121337890624998
1.6153564453125
1.6089111328124999
1.6040771484374998
1.6000488281249998
1.5911865234375
1.5702392578125
1.5565429687499999
1.5533203125
1.5364013671874999
1.5412353515625
1.5364013671874999
1.5355957031249998
1.5323730468749999
1.529150390625
1.5283447265624999
1.525927734375
1.5186767578125
1.509814453125
1.496923828125
1.4888671875
1.4912841796874998
1.477587890625
1.4832275390624998
1.4783935546875
1.4961181640624999
1.4920898437499999
1.5001464843749999
1.51787109375
1.52109375
1.5347900390625
1.5476806640624998
1.5436523437499998
1.546875
1.5541259765625
1.5605712890624999
1.5605712890624999
1.5509033203125
1.5718505859374998
1.5839355468749998
1.587158203125
1.5960205078124998
1.6089111328124999
1.6201904296874998
1.6209960937499999
1.6105224609375
1.5944091796875
1.585546875
1.5702392578125
1.5645996093749999
1.5525146484374999
1.5533203125
1.5436523437499998
1.5275390624999998
1.546875
1.5355957031249998
1.529150390625
1.529150390625
1.525927734375
1.5186767578125
1.5146484375
1.5025634765625
1.4961181640624999
1.4872558593749998
1.4800048828124999
1.4783935546875
1.4840332031249999
1.4864501953125
1.5017578125
1.5114257812499998
1.5162597656249999
1.525927734375
1.529150390625
1.5396240234374998
1.5525146484374999
1.5517089843749998
1.5637939453124998
1.5645996093749999
1.5525146484374999
1.5525146484374999
1.5670166015625
1.5782958984375
1.585546875
1.6056884765625
1.6089111328124999
1.6177734375
1.606494140625
1.611328125
1.5976318359375
1.5839355468749998
1.574267578125
1.574267578125
1.5597656249999998
1.5484863281249999
1.5460693359375
1.5404296874999999
1.5323730468749999
1.5267333984375
1.529150390625
1.5267333984375
1.53076171875
1.529150390625
1.5170654296875
1.5001464843749999
1.4896728515625
1.48564453125
1.4767822265625
1.4759765624999999
1.4880615234374999
1.4896728515625
1.4888671875
1.5001464843749999
1.5106201171875
1.5218994140625
1.533984375
1.5412353515625
1.542041015625
1.5476806640624998
1.554931640625
1.5557373046874998
1.5605712890624999
1.5557373046874998
1.5637939453124998
1.577490234375
1.5863525390625
1.5927978515624999
1.6129394531249999
1.6153564453125
1.6250244140624999
1.6072998046875
1.5879638671874998
1.5887695312499999
1.5847412109374999
1.5678222656249998
1.5573486328125
1.5533203125
1.5533203125
1.5331787109375
1.5396240234374998
1.5331787109375
1.5299560546875
1.529150390625
1.525927734375
1.529150390625
1.5162597656249999
1.5041748046874999
1.4928955078125
1.4872558593749998
1.48564453125
1.4767822265625
1.4832275390624998
1.482421875
1.48564453125
1.5057861328125
1.5138427734375
1.5170654296875
1.5331787109375
1.5347900390625
1.5396240234374998
1.5557373046874998
1.5484863281249999
1.56298828125
1.5573486328125
1.5533203125
1.5621826171875
1.5782958984375
1.5879638671874998
1.5887695312499999
1.6040771484374998
1.6169677734374999
1.6242187499999998
1.61455078125
1.603271484375
1.590380859375
1.5758789062499998
1.5758789062499998
1.5565429687499999
1.5484863281249999
1.545263671875
1.542041015625
1.5404296874999999
1.533984375
1.533984375
1.53076171875
1.533984375
1.5299560546875
1.5186767578125
1.5114257812499998
1.49853515625
1.4864501953125
1.4791992187499998
1.4759765624999999
1.4816162109375
1.48564453125
1.4961181640624999
1.5033691406249998
1.50498046875
1.525927734375
1.5251220703125
1.5412353515625
1.546875
1.5492919921875
1.5509033203125
1.5597656249999998
1.558154296875
1.5557373046874998
1.558154296875
1.5637939453124998
1.5887695312499999
1.5863525390625
1.6056884765625
1.611328125
1.6169677734374999
1.6177734375
1.5968261718749999
1.5960205078124998
1.5799072265624998
1.56943359375
1.56298828125
1.55009765625
1.5404296874999999
1.5396240234374998
1.533984375
1.5404296874999999
1.5283447265624999
1.5315673828124998
1.5218994140625
1.5267333984375
1.5170654296875
1.5122314453124999
1.509814453125
1.4993408203124998
1.4872558593749998
1.4751708984374998
1.4840332031249999
1.480810546875
1.4864501953125
1.5114257812499998
1.5073974609374998
1.5194824218749998
1.5243164062499999
1.5364013671874999
1.542041015625
1.5476806640624998
1.55009765625
1.5509033203125
1.5541259765625
1.558154296875
1.5589599609375
1.5758789062499998
1.5799072265624998
1.593603515625
1.6008544921874999
1.6121337890624998
1.6161621093749998
1.6129394531249999
1.5960205078124998
1.593603515625
1.5927978515624999
1.5750732421875
1.561376953125
1.5565429687499999
1.55009765625
1.545263671875
1.538818359375
1.5315673828124998
1.525927734375
1.5355957031249998
1.5243164062499999
1.5315673828124998
1.52109375
1.5154541015624998
1.5041748046874999
1.4928955078125
1.482421875
1.4751708984374998
1.4671142578124998
1.4751708984374998
1.4920898437499999
1.4961181640624999
1.513037109375
1.5235107421874998
1.525927734375
1.53076171875
1.546875
1.546875
1.5460693359375
1.5597656249999998
1.5597656249999998
1.561376953125
1.5565429687499999
1.5702392578125
1.5766845703124999
1.5895751953125
1.60166015625
1.6048828124999999
1.6161621093749998
1.6161621093749998
1.6048828124999999
1.5944091796875
1.5839355468749998
1.5766845703124999
1.5645996093749999
1.5541259765625
1.5476806640624998
1.5428466796875
1.5404296874999999
1.5355957031249998
1.5347900390625
1.5275390624999998
1.529150390625
1.5275390624999998
1.5347900390625
1.5082031249999999
1.4977294921875
1.4977294921875
1.4832275390624998
1.4800048828124999
1.46953125
1.482421875
1.4920898437499999
1.4953124999999998
1.5082031249999999
1.5162597656249999
1.5251220703125
1.5299560546875
1.53720703125
1.5436523437499998
1.5533203125
1.558154296875
1.558154296875
1.5605712890624999
1.5557373046874998
1.5726562499999999
1.5799072265624998
1.587158203125
1.5960205078124998
1.5992431640625
1.6056884765625
1.6137451171875
1.6072998046875
1.5992431640625
1.590380859375
1.5758789062499998
1.5678222656249998
1.5517089843749998
1.546875
1.546875
1.5396240234374998
1.5404296874999999
1.53076171875
1.5331787109375
1.529150390625
1.53076171875
1.5251220703125
1.52109375
1.4953124999999998
1.5017578125
1.4953124999999998
1.4791992187499998
1.4832275390624998
1.4783935546875
1.4832275390624998
1.4920898437499999
1.5073974609374998
1.5138427734375
1.5202880859374999
1.5323730468749999
1.5323730468749999
1.55009765625
1.5509033203125
1.561376953125
1.5573486328125
1.5645996093749999
1.5517089843749998
1.5645996093749999
1.5766845703124999
1.5919921874999998
1.6040771484374998
1.6209960937499999
1.609716796875
1.6177734375
1.6137451171875
1.6000488281249998
1.5919921874999998
1.5782958984375
1.5662109375
1.55009765625
1.5597656249999998
1.5492919921875
1.546875
1.5299560546875
1.5315673828124998
1.5315673828124998
1.5323730468749999
1.5235107421874998
1.5267333984375
1.5170654296875
1.5017578125
1.5009521484375
1.48564453125
1.4791992187499998
1.4751708984374998
1.4759765624999999
1.48564453125
1.4977294921875
1.49853515625
1.5082031249999999
1.5202880859374999
1.5267333984375
1.542041015625
1.538818359375
1.5484863281249999
1.5533203125
1.5565429687499999
1.5565429687499999
1.561376953125
1.558154296875
1.5686279296874999
1.58232421875
1.5919921874999998
1.611328125
1.6072998046875
1.6306640625
1.6129394531249999
1.60166015625
1.587158203125
1.5807128906249999
1.5734619140625
1.5589599609375
1.5597656249999998
1.5541259765625
1.545263671875
1.53720703125
1.5355957031249998
1.5347900390625
1.533984375
1.522705078125
1.5218994140625
1.5154541015624998
1.5114257812499998
1.4945068359375
1.4912841796874998
1.4912841796874998
1.4759765624999999
1.4671142578124998
1.4848388671875
1.490478515625
1.4993408203124998
1.5057861328125
1.5235107421874998
1.522705078125
1.5323730468749999
1.5404296874999999
1.5525146484374999
1.554931640625
1.5597656249999998
1.561376953125
1.5565429687499999
1.5597656249999998
1.56943359375
1.5839355468749998
1.5919921874999998
1.606494140625
1.61455078125
1.6185791015625
1.6105224609375
1.6040771484374998
1.5887695312499999
1.5758789062499998
1.5766845703124999
1.561376953125
1.5621826171875
1.5476806640624998
1.5364013671874999
1.5444580078124999
1.5347900390625
1.5275390624999998
1.5299560546875
1.53076171875
1.529150390625
1.5283447265624999
1.5106201171875
1.5025634765625
1.4888671875
1.4864501953125
1.4751708984374998
1.477587890625
1.4791992187499998
1.4920898437499999
1.5017578125
1.5122314453124999
1.51787109375
1.525927734375
1.533984375
1.5412353515625
1.5476806640624998
1.546875
1.5541259765625
1.5662109375
1.5589599609375
1.5589599609375
1.5670166015625
1.5791015625
1.5895751953125
1.5968261718749999
1.6121337890624998
1.6290527343749999
1.6129394531249999
1.5976318359375
1.593603515625
1.590380859375
1.5758789062499998
1.5637939453124998
1.5565429687499999
1.5525146484374999
1.5396240234374998
1.5428466796875
1.5404296874999999
1.529150390625
1.533984375
1.5275390624999998
1.5275390624999998
1.5283447265624999
1.5122314453124999
1.509814453125
1.4928955078125
1.4840332031249999
1.47275390625
1.4791992187499998
1.477587890625
1.490478515625
1.5041748046874999
1.5009521484375
1.51787109375
1.529150390625
1.5347900390625
1.5396240234374998
1.545263671875
1.5517089843749998
1.5541259765625
1.5541259765625
1.5565429687499999
1.5533203125
1.5718505859374998
1.5726562499999999
1.5895751953125
1.6040771484374998
1.6000488281249998
1.6201904296874998
1.61455078125
1.6153564453125
1.5944091796875
1.585546875
1.577490234375
1.5637939453124998
1.5605712890624999
1.5525146484374999
1.546875
1.5404296874999999
1.5355957031249998
1.5331787109375
1.4518066406249999
1.5283447265624999
1.5315673828124998
1.525927734375
1.5243164062499999
1.5122314453124999
1.4920898437499999
1.4800048828124999
1.4711425781249998
1.4767822265625
1.4791992187499998
1.4888671875
1.4953124999999998
1.4993408203124998
1.5138427734375
1.5235107421874998
1.5364013671874999
1.5428466796875
1.55009765625
1.5412353515625
1.5476806640624998
1.5573486328125
1.5605712890624999
1.5492919921875
1.5637939453124998
1.5766845703124999
1.5895751953125
1.603271484375
1.6089111328124999
1.6153564453125
1.619384765625
1.6056884765625
1.6040771484374998
1.5863525390625
1.5766845703124999
1.5637939453124998
1.5645996093749999
1.5557373046874998
1.5460693359375
1.5436523437499998
1.5347900390625
1.5315673828124998
1.5202880859374999
1.5267333984375
1.529150390625
1.5347900390625
1.5251220703125
1.5082031249999999
1.496923828125
1.482421875
1.4848388671875
1.477587890625
1.4751708984374998
1.4791992187499998
1.49853515625
1.5009521484375
1.5162597656249999
1.525927734375
1.5275390624999998
1.5428466796875
1.5476806640624998
1.546875
1.5517089843749998
1.561376953125
1.5678222656249998
1.558154296875
1.5678222656249998
1.574267578125
1.5879638671874998
1.5927978515624999
1.606494140625
1.6137451171875
1.61455078125
1.6201904296874998
1.593603515625
1.5927978515624999
1.5839355468749998
1.5686279296874999
1.5621826171875
1.554931640625
1.5541259765625
1.5331787109375
1.5364013671874999
1.5331787109375
1.5364013671874999
1.53076171875
1.5299560546875
1.5170654296875
1.5146484375
1.5073974609374998
1.5001464843749999
1.4872558593749998
1.4840332031249999
1.4711425781249998
1.4767822265625
1.482421875
1.4945068359375
1.5033691406249998
1.5146484375
1.5186767578125
1.5218994140625
1.5347900390625
1.542041015625
1.5484863281249999
1.5645996093749999
1.558154296875
1.554931640625
1.5525146484374999
1.5621826171875
1.5678222656249998
1.5831298828125
1.5927978515624999
1.6089111328124999
1.6105224609375
1.6185791015625
1.6129394531249999
1.6024658203125
1.5968261718749999
1.5831298828125
1.574267578125
1.5589599609375
1.5476806640624998
1.5476806640624998
1.5412353515625
1.5364013671874999
1.5380126953125
1.5347900390625
1.5331787109375
1.5323730468749999
1.5267333984375
1.52109375
1.509814453125
1.49853515625
1.4872558593749998
1.490478515625
1.4751708984374998
1.474365234375
1.4888671875
1.4791992187499998
1.4993408203124998
1.5186767578125
1.522705078125
1.5275390624999998
1.5347900390625
1.545263671875
1.546875
1.5484863281249999
1.5484863281249999
1.554931640625
1.5637939453124998
1.5597656249999998
1.5750732421875
1.585546875
1.593603515625
1.6048828124999999
1.609716796875
1.6129394531249999
1.6161621093749998
1.60166015625
1.5992431640625
1.5807128906249999
1.571044921875
1.5654052734375
1.5565429687499999
1.5436523437499998
1.546875
1.533984375
1.53076171875
1.5404296874999999
1.5283447265624999
1.525927734375
1.5283447265624999
1.5235107421874998
1.5154541015624998
1.5033691406249998
1.4920898437499999
1.480810546875
1.474365234375
1.46953125
1.474365234375
1.4791992187499998
1.4977294921875
1.5082031249999999
1.5194824218749998
1.5355957031249998
1.5364013671874999
1.538818359375
1.5637939453124998
1.5517089843749998
1.546875
1.5509033203125
1.5509033203125
1.558154296875
1.5799072265624998
1.5815185546875
1.6056884765625
1.5968261718749999
1.6201904296874998
1.6185791015625
1.61455078125
1.609716796875
1.593603515625
1.587158203125
1.5815185546875
1.5670166015625
1.5557373046874998
1.5517089843749998
1.5404296874999999
1.5355957031249998
1.533984375
1.533984375
1.5347900390625
1.53076171875
1.5283447265624999
1.52109375
1.5001464843749999
1.506591796875
1.4791992187499998
1.4832275390624998
1.464697265625
1.4638916015624999
1.4783935546875
1.4840332031249999
1.5001464843749999
1.5146484375
1.5275390624999998
1.5404296874999999
1.5476806640624998
1.5525146484374999
1.5605712890624999
1.5766845703124999
1.5645996093749999
1.5509033203125
1.5509033203125
1.5645996093749999
1.5702392578125
1.5589599609375
1.571044921875
1.5839355468749998
1.6056884765625
1.609716796875
1.6153564453125
1.6153564453125
1.6089111328124999
1.5968261718749999
1.5807128906249999
1.5678222656249998
1.5517089843749998
1.5484863281249999
1.5412353515625
1.5436523437499998
1.5364013671874999
1.5267333984375
1.5186767578125
1.5106201171875
1.5025634765625
1.49853515625
1.49853515625
1.5017578125
1.5001464843749999
1.5114257812499998
1.493701171875
1.4912841796874998
1.4872558593749998
1.49853515625
1.5073974609374998
1.5114257812499998
1.5396240234374998
1.5887695312499999
1.5815185546875
1.5380126953125
1.5146484375
1.5243164062499999
1.5218994140625
1.542041015625
1.5589599609375
1.5589599609375
1.5654052734375
1.5782958984375
1.587158203125
1.603271484375
1.6089111328124999
1.6218017578125
1.6266357421875
1.5984375
1.5944091796875
1.5919921874999998
1.5807128906249999
1.5662109375
1.5509033203125
1.5533203125
1.538818359375
1.5476806640624998
1.5267333984375
1.52109375
1.522705078125
1.51787109375
1.525927734375
1.529150390625
1.5202880859374999
1.5218994140625
1.50498046875
1.4993408203124998
1.4928955078125
1.4880615234374999
1.5073974609374998
1.5299560546875
1.533984375
1.4928955078125
1.48564453125
1.4977294921875
1.5154541015624998
1.5251220703125
1.5347900390625
1.5404296874999999
1.5517089843749998
1.5525146484374999
1.5517089843749998
1.5654052734375
1.5686279296874999
1.577490234375
1.5791015625
1.60166015625
1.6242187499999998
1.6161621093749998
1.6234130859375
1.63388671875
1.61455078125
1.5847412109374999
1.5702392578125
1.5670166015625
1.5621826171875
1.574267578125
1.59521484375
1.5476806640624998
1.5235107421874998
1.5243164062499999
1.5194824218749998
1.5146484375
1.5202880859374999
1.529150390625
1.5154541015624998
1.5033691406249998
1.5033691406249998
1.4783935546875
1.4735595703125
1.4703369140625
1.4800048828124999
1.5001464843749999
1.513037109375
1.50498046875
1.5186767578125
1.525927734375
1.5460693359375
1.5597656249999998
1.5484863281249999
1.55009765625
1.5509033203125
1.5589599609375
1.5533203125
1.5573486328125
1.5492919921875
1.558154296875
1.574267578125
1.5960205078124998
1.5927978515624999
1.6008544921874999
1.61455078125
1.6218017578125
1.61455078125
1.5734619140625
1.5645996093749999
1.5565429687499999
1.5605712890624999
1.554931640625
1.5605712890624999
1.5678222656249998
1.574267578125
1.5799072265624998
1.587158203125
1.5839355468749998
1.5968261718749999
1.6024658203125
1.6040771484374998
1.5162597656249999
1.47275390625
1.4590576171874998
1.4308593749999998
1.4155517578124999
1.4091064453125
1.4526123046875
1.4872558593749998
1.49853515625
1.513037109375
1.533984375
1.55009765625
1.5662109375
1.585546875
1.6040771484374998
1.6048828124999999
1.571044921875
1.5412353515625
1.53720703125
1.5662109375
1.5702392578125
1.5758789062499998
1.5839355468749998
1.587158203125
1.6177734375
1.6371093749999999
1.6201904296874998
1.609716796875
1.5984375
1.590380859375
1.5887695312499999
1.5654052734375
1.5283447265624999
1.5911865234375
1.5726562499999999
1.545263671875
1.529150390625
1.533984375
1.53076171875
1.51787109375
1.513037109375
1.5073974609374998
1.5090087890625
1.496923828125
1.4953124999999998
1.5033691406249998
1.4993408203124998
1.4542236328125
1.4268310546874998
1.4630859374999998
1.5170654296875
1.4961181640624999
1.5106201171875
1.51787109375
1.5114257812499998
1.5202880859374999
1.5605712890624999
1.5573486328125
1.5380126953125
1.5106201171875
1.56298828125
1.5597656249999998
1.5654052734375
1.5911865234375
1.5968261718749999
1.6169677734374999
1.6185791015625
1.6209960937499999
1.6209960937499999
1.6234130859375
1.625830078125
1.6048828124999999
1.5557373046874998
1.5404296874999999
1.5573486328125
1.5726562499999999
1.5525146484374999
1.5162597656249999
1.5517089843749998
1.5750732421875
1.5597656249999998
1.5380126953125
1.5355957031249998
1.5492919921875
1.5444580078124999
1.529150390625
1.5251220703125
1.4791992187499998
1.458251953125
1.5082031249999999
1.496923828125
1.493701171875
1.4920898437499999
1.482421875
1.506591796875
1.5364013671874999
1.5484863281249999
1.56298828125
1.5476806640624998
1.5364013671874999
1.5702392578125
1.5597656249999998
1.5637939453124998
1.574267578125
1.593603515625
1.6048828124999999
1.6121337890624998
1.667724609375
1.6806152343749998
1.6975341796874999
1.658056640625
1.635498046875
1.6209960937499999
1.6604736328124998
3.0470214843749996
2.6200195312499996
1.996435546875
1.722509765625
1.603271484375
1.5186767578125
1.461474609375
1.442138671875
1.4308593749999998
1.426025390625
1.4364990234375
1.4195800781249999
1.40830078125
1.3720458984375
1.3801025390625
1.3897705078125
1.38896484375
1.3543212890624998
1.35673828125
1.3792968749999999
1.3994384765624999
1.40185546875
1.42119140625
1.426025390625
1.4437499999999999
1.456640625
1.46953125
1.4848388671875
1.4800048828124999
1.48564453125
1.4920898437499999
1.4888671875
1.4912841796874998
1.506591796875
1.5122314453124999
1.53720703125
1.5565429687499999
1.5605712890624999
1.593603515625
1.587158203125
1.5621826171875
1.5541259765625
1.558154296875
1.5662109375
1.5734619140625
1.55009765625
1.538818359375
1.53720703125
1.53720703125
1.5347900390625
1.522705078125
1.5194824218749998
1.5090087890625
1.5597656249999998
1.542041015625
1.4655029296875
1.4373046875
1.4711425781249998
1.4501953125
1.4638916015624999
1.4606689453125
1.4687255859375
1.5033691406249998
1.5194824218749998
1.5170654296875
1.5186767578125
1.554931640625
1.5557373046874998
1.5444580078124999
1.5347900390625
1.5364013671874999
1.5380126953125
1.558154296875
1.571044921875
1.5839355468749998
1.5944091796875
1.5726562499999999
1.5589599609375
1.5831298828125
1.58232421875
1.593603515625
1.5863525390625
1.5984375
1.5976318359375
1.6161621093749998
1.6169677734374999
1.609716796875
1.6008544921874999
1.5758789062499998
1.5662109375
1.554931640625
1.5146484375
1.5082031249999999
1.506591796875
1.482421875
1.4912841796874998
1.5033691406249998
1.5323730468749999
1.513037109375
1.477587890625
1.4711425781249998
1.48564453125
1.4590576171874998
1.493701171875
1.5670166015625
1.5057861328125
1.4767822265625
1.4928955078125
1.513037109375
1.4767822265625
1.4896728515625
1.533984375
1.5525146484374999
1.56298828125
1.6056884765625
1.606494140625
1.571044921875
1.63388671875
1.66611328125
1.6443603515624998
1.6185791015625
1.5895751953125
1.5396240234374998
1.6008544921874999
1.6298583984375
1.6153564453125
1.585546875
1.53720703125
1.4977294921875
1.542041015625
1.5645996093749999
1.5750732421875
1.5758789062499998
1.5122314453124999
1.5025634765625
1.5243164062499999
1.5412353515625
1.5734619140625
1.59521484375
1.5645996093749999
1.525927734375
1.461474609375
1.43408203125
1.4332763671875
1.4026611328124998
1.3946044921874998
1.4590576171874998
1.4912841796874998
1.4993408203124998
1.5235107421874998
1.5251220703125
1.5662109375
1.554931640625
1.6177734375
1.6201904296874998
1.5895751953125
1.587158203125
1.5428466796875
1.5162597656249999
1.5645996093749999
1.5670166015625
1.58232421875
1.58232421875
1.6072998046875
1.6322753906249998
1.6306640625
1.6056884765625
1.5984375
1.5815185546875
1.5436523437499998
1.5541259765625
1.5573486328125
1.5267333984375
1.5380126953125
1.5436523437499998
1.5283447265624999
1.529150390625
1.5364013671874999
1.5323730468749999
1.5331787109375
1.5243164062499999
1.51787109375
1.513037109375
1.4920898437499999
1.4840332031249999
1.4687255859375
1.4840332031249999
1.4840332031249999
1.493701171875
1.27939453125
1.4348876953124998
1.5202880859374999
1.5396240234374998
1.5380126953125
1.546875
1.5573486328125
1.5492919921875
1.554931640625
1.5654052734375
1.5678222656249998
1.5444580078124999
1.5791015625
1.59521484375
1.5944091796875
1.5887695312499999
1.5968261718749999
1.6435546875
1.6483886718749998
1.62744140625
1.6048828124999999
1.5960205078124998
1.5831298828125
1.56298828125
1.5533203125
1.5911865234375
1.5654052734375
1.5484863281249999
1.5436523437499998
1.5283447265624999
1.5565429687499999
1.5525146484374999
1.5605712890624999
1.5428466796875
1.5347900390625
1.5218994140625
1.493701171875
1.45341796875
1.4574462890625
1.4510009765624998
1.4791992187499998
1.5001464843749999
1.4816162109375
1.4977294921875
1.5154541015624998
1.533984375
1.5323730468749999
1.5509033203125
1.5911865234375
1.56298828125
1.5412353515625
1.5589599609375
1.5621826171875
1.5315673828124998
1.5839355468749998
1.6314697265625
1.6314697265625
1.6048828124999999
1.5702392578125
1.5444580078124999
1.5444580078124999
1.5331787109375
1.5404296874999999
1.5476806640624998
1.5589599609375
1.5791015625
1.5815185546875
1.5847412109374999
1.546875
1.53720703125
1.571044921875
1.5412353515625
1.558154296875
1.593603515625
1.611328125
1.6121337890624998
1.5662109375
1.4872558593749998
1.4961181640624999
1.5090087890625
1.5186767578125
1.5017578125
1.52109375
1.5114257812499998
1.493701171875
1.4977294921875
1.4912841796874998
1.4816162109375
1.5082031249999999
1.5299560546875
1.5283447265624999
1.513037109375
1.50498046875
1.496923828125
1.5283447265624999
1.5412353515625
1.5662109375
1.5919921874999998
1.6072998046875
1.62744140625
1.6491943359374999
1.6806152343749998
1.654833984375
1.5605712890624999
1.5509033203125
1.545263671875
1.5154541015624998
1.51787109375
1.561376953125
1.56943359375
1.5726562499999999
1.5815185546875
1.5670166015625
1.533984375
1.5323730468749999
1.6129394531249999
1.6218017578125
1.4791992187499998
1.4364990234375
1.4687255859375
1.4864501953125
1.4719482421874999
1.4590576171874998
1.4550292968749998
1.4655029296875
1.46630859375
1.5186767578125
1.5267333984375
1.5082031249999999
1.5218994140625
1.5565429687499999
1.561376953125
1.5782958984375
1.56943359375
1.5678222656249998
1.5662109375
1.5702392578125
1.5235107421874998
1.5299560546875
1.5670166015625
1.5863525390625
1.5960205078124998
1.5976318359375
1.6081054687499998
1.6371093749999999
1.60166015625
1.5984375
1.587158203125
1.561376953125
1.5476806640624998
1.546875
1.5621826171875
1.5525146484374999
1.5517089843749998
1.5202880859374999
1.5565429687499999
1.571044921875
1.5323730468749999
1.538818359375
1.554931640625
1.51787109375
1.5073974609374998
1.5194824218749998
1.4912841796874998
1.482421875
1.4953124999999998
1.506591796875
1.4880615234374999
1.4880615234374999
1.51787109375
1.5267333984375
1.5275390624999998
1.5380126953125
1.542041015625
1.5476806640624998
1.56943359375
1.5557373046874998
1.5533203125
1.5444580078124999
1.5557373046874998
1.5299560546875
1.5662109375
1.574267578125
1.603271484375
1.6322753906249998
1.6346923828125
1.651611328125
1.611328125
1.5911865234375
1.5662109375
1.5734619140625
1.5799072265624998
1.5597656249999998
1.5517089843749998
1.5750732421875
1.561376953125
1.561376953125
1.5444580078124999
1.5057861328125
1.5243164062499999
1.546875
1.6121337890624998
1.5662109375
1.4896728515625
1.52109375
1.5122314453124999
1.5073974609374998
1.4461669921875
1.4574462890625
1.46630859375
1.4977294921875
1.533984375
1.538818359375
1.561376953125
1.55009765625
1.522705078125
1.5484863281249999
1.5573486328125
1.5517089843749998
1.546875
1.5492919921875
1.56943359375
1.538818359375
1.5927978515624999
1.5919921874999998
1.6048828124999999
1.6081054687499998
1.5960205078124998
1.6693359374999999
1.6564453124999998
1.5984375
1.6451660156249999
1.6717529296875
1.6242187499999998
1.561376953125
1.56943359375
1.6540283203125
1.5895751953125
1.5654052734375
1.577490234375
1.6459716796875
1.67578125
1.6266357421875
1.6443603515624998
1.5218994140625
1.461474609375
1.4091064453125
1.3881591796875
1.3712402343749999
1.3720458984375
1.3865478515624998
1.4107177734374998
1.4461669921875
1.4888671875
1.522705078125
1.5323730468749999
1.525927734375
1.4719482421874999
1.4501953125
1.4864501953125
1.506591796875
1.5122314453124999
1.5404296874999999
1.5299560546875
1.4026611328124998
1.5106201171875
1.5267333984375
1.4920898437499999
1.5114257812499998
1.58232421875
1.7128417968749998
1.7120361328125
1.603271484375
1.4373046875
1.2238037109375
1.116650390625
1.110205078125
1.1134277343749999
1.147265625
1.15048828125
1.2560302734375
1.248779296875
1.3551269531249999
1.4236083984374999
1.41796875
1.8385253906249999
2.26552734375
2.4161865234374997
2.5458984375
2.5676513671874996
2.4032958984375
2.0697509765624997
1.6959228515625
1.2689208984375
0.7774658203125
0.546240234375
0.4068603515625
0.294873046875
0.3029296875
0.4084716796875
0.6582275390625
0.8846191406249999
1.077978515625
1.2141357421874999
1.4268310546874998
1.5645996093749999
1.3365966796875
1.203662109375
1.1802978515625
1.0852294921874999
1.055419921875
1.2439453125
1.6040771484374998
2.321923828125
2.8399658203125
2.9753173828125
2.9833740234375
3.0421875
2.9495361328125
2.8480224609375
2.65869140625
2.512060546875
2.38154296875
2.1245361328125
1.9021728515624998
1.75634765625
1.6209960937499999
1.815966796875
2.01416015625
2.022216796875
2.054443359375
2.0133544921874997
2.018994140625
1.7571533203124998
1.284228515625
0.855615234375
0.523681640625
0.198193359375
0.0362548828125
0.042700195312499994
0.04189453125
0.0749267578125
0.09829101562499999
0.29245605468749997
0.4358642578125
0.5889404296874999
0.7315429687499999
0.881396484375
0.7033447265624999
0.4318359375
0.44633789062499996
0.515625
0.6018310546875
0.7951904296875
1.1666015625
1.848193359375
2.333203125
2.7416748046875
3.0429931640624996
3.04541015625
3.0478271484375
3.0470214843749996
3.0421875
2.972900390625
2.9801513671874997
2.81982421875
2.6844726562499996
2.6377441406249997
2.42666015625
2.26875
2.7094482421875
2.7175048828125
2.7336181640625
2.6852783203125
2.4145751953125
2.1470947265625
1.7595703125
1.2906738281249999
0.7959960937499999
0.44553222656249997
0.30937499999999996
0.06606445312499999
0.0362548828125
0.041088867187499996
0.045117187499999996
0.09990234375
0.1039306640625
0.24089355468749998
0.4390869140625
0.6114990234375
0.717041015625
0.246533203125
0.2360595703125
0.259423828125
0.3101806640625
0.423779296875
0.7710205078125
1.2818115234374998
2.0810302734375
2.5354248046874996
2.9269775390625
3.043798828125
3.0421875
3.043798828125
3.0462158203125
2.96484375
2.972900390625
2.8818603515624996
2.6780273437499997
2.518505859375
2.3549560546875
2.2179931640625
2.6159912109374996
2.7336181640625
2.776318359375
2.7892089843749996
2.6433837890625
2.4943359375
1.98837890625
1.5525146484374999
1.068310546875
0.69609375
0.2956787109375
0.09426269531249999
0.041088867187499996
0.04189453125
0.040283203125
0.041088867187499996
0.08620605468749999
0.1635498046875
0.323876953125
0.46970214843749997
0.6840087890625
0.09748535156249999
0.04189453125
0.0749267578125
0.15629882812499998
0.359326171875
0.555908203125
1.2238037109375
1.8087158203125
2.23330078125
2.6111572265625
2.9173095703125
3.0478271484375
3.0421875
3.043798828125
3.0421875
2.9745117187499996
2.9664550781249996
2.8367431640625
2.6675537109375
2.5112548828124996
2.3235351562499997
2.5587890625
2.771484375
2.8141845703125
2.8157958984375
2.6337158203124997
2.441162109375
2.1229248046875
1.6443603515624998
1.0562255859375
0.6598388671875
0.3923583984375
0.22719726562499998
0.040283203125
0.040283203125
0.040283203125
0.041088867187499996
0.0620361328125
0.1393798828125
0.2537841796875
0.40202636718749996
0.539794921875
0.3440185546875
0.069287109375
0.10957031249999999
0.0765380859375
0.17724609375
0.3472412109375
0.704150390625
1.3954101562499999
1.9343994140624998
2.3726806640625
2.6925292968749996
3.0027099609374996
3.043798828125
3.043798828125
3.0429931640624996
3.0446044921874997
3.02607421875
2.94873046875
2.848828125
2.7287841796874996
2.6772216796875
2.85205078125
3.0317138671875
2.9720947265624997
2.9189208984375
2.848828125
2.65869140625
2.4371337890625
1.8908935546874999
1.4800048828124999
1.1351806640625
0.7138183593749999
0.41330566406249997
0.2457275390625
0.0966796875
0.040283203125
0.0378662109375
0.0459228515625
0.12810058593749998
0.12568359375
0.2634521484375
0.4358642578125
0.16274414062499998
0.041088867187499996
0.038671874999999994
0.041088867187499996
0.062841796875
0.2183349609375
0.4680908203125
1.27294921875
1.8860595703124998
2.2212158203125
2.7021972656249997
2.898779296875
3.0413818359375
3.0429931640624996
3.0421875
3.043798828125
3.0446044921874997
3.027685546875
2.9285888671875
2.7892089843749996
2.6546630859375
2.5869873046875
3.0421875
3.0462158203125
3.0010986328125
2.9390625
2.8077392578125
2.5072265624999996
2.0874755859375
1.525927734375
1.0127197265624999
0.652587890625
0.30051269531249997
0.06767578125
0.041088867187499996
0.042700195312499994
0.03544921875
0.0394775390625
0.0636474609375
0.0958740234375
0.2513671875
0.4004150390625
0.42539062499999997
0.0443115234375
0.0378662109375
0.040283203125
0.0733154296875
0.2054443359375
0.44794921875
0.958740234375
1.5637939453124998
2.2598876953125
2.46533203125
2.6981689453124997
2.8955566406249997
2.9833740234375
3.0357421875
3.0325195312499997
2.969677734375
3.0446044921874997
2.9455078125
2.8133789062499996
2.719921875
2.647412109375
3.021240234375
3.0462158203125
3.0421875
3.043798828125
2.9020019531249996
2.6627197265625
2.2663330078125
1.6620849609375
1.2310546875
0.9337646484375
0.5228759765625
0.31662597656249997
0.0765380859375
0.040283203125
0.040283203125
0.0362548828125
0.11359863281249999
0.1426025390625
0.252978515625
0.34079589843749997
0.4447265625
0.041088867187499996
0.040283203125
0.0362548828125
0.04189453125
0.1264892578125
0.3343505859375
0.9345703125
1.5073974609374998
1.9182861328124998
2.289697265625
2.6047119140625
2.850439453125
3.0188232421874996
3.0470214843749996
3.0421875
3.0413818359375
2.985791015625
2.8657470703124996
2.7900146484375
2.745703125
2.6466064453125
2.9785400390624996
3.043798828125
3.0421875
3.0421875
2.9970703125
2.7964599609375
2.39765625
1.915869140625
1.509814453125
1.0062744140625
0.7951904296875
0.5035400390625
0.2570068359375
0.1458251953125
0.041088867187499996
0.041088867187499996
0.04189453125
0.10957031249999999
0.23283691406249998
0.214306640625
0.217529296875
0.043505859375
0.045117187499999996
0.045117187499999996
0.041088867187499996
0.0459228515625
0.2215576171875
0.578466796875
1.281005859375
1.8393310546875
2.19140625
2.513671875
2.68125
2.860107421875
2.9592041015625
3.043798828125
3.0478271484375
3.0236572265625
3.0123779296874997
2.8947509765625
2.7610107421874996
2.6699707031249997
2.7569824218749996
3.0462158203125
3.0397705078125
3.01962890625
3.0365478515624997
2.9825683593749996
2.7344238281249997
2.07216796875
1.5686279296874999
1.152099609375
0.8000244140624999
0.4197509765625
0.20625
0.040283203125
0.040283203125
0.043505859375
0.037060546874999996
0.009667968749999999
0.111181640625
0.1168212890625
0.2972900390625
0.040283203125
0.045117187499999996
0.040283203125
0.040283203125
0.0749267578125
0.1796630859375
0.423779296875
1.24716796875
1.716064453125
2.0794189453125
2.4886962890624997
2.705419921875
2.8866943359375
3.0397705078125
3.04541015625
3.0429931640624996
3.003515625
2.9350341796875
2.8939453124999996
2.83271484375
2.6079345703124996
2.5732910156249997
3.037353515625
3.0470214843749996
3.0083496093749997
3.0010986328125
2.9100585937499996
2.6836669921875
2.238134765625
1.8167724609375
1.1778808593749999
0.9015380859375
0.6356689453125
0.36416015625
0.0845947265625
0.0515625
0.041088867187499996
0.037060546874999996
0.0620361328125
0.046728515624999994
0.15468749999999998
0.2505615234375
0.20866699218749998
0.038671874999999994
0.041088867187499996
0.040283203125
0.040283203125
0.0926513671875
0.394775390625
0.9692138671874999
1.5194824218749998
2.051220703125
2.2824462890625
2.5257568359375
2.7577880859375
2.9575927734375
3.043798828125
3.0462158203125
3.0462158203125
3.0220458984375
3.011572265625
2.8391601562499997
2.68125
2.5724853515625
3.0405761718749997
3.0462158203125
3.0462158203125
3.0446044921874997
2.972900390625
2.7626220703124997
2.3275634765624997
1.7104248046875
1.248779296875
0.8483642578124999
0.501123046875
0.33757324218749996
0.1329345703125
0.0378662109375
0.043505859375
0.038671874999999994
0.041088867187499996
0.0580078125
0.0749267578125
0.143408203125
0.307763671875
0.041088867187499996
0.042700195312499994
0.03544921875
0.040283203125
0.20463867187499998
0.36496582031249997
0.7404052734375
1.611328125
2.0093261718749997
2.3662353515625
2.5740966796875
2.7779296875
2.898779296875
3.0470214843749996
3.043798828125
3.0462158203125
3.0429931640624996
3.0389648437499996
2.9237548828124997
2.7916259765625
2.6039062499999996
2.9100585937499996
3.0188232421874996
3.0405761718749997
3.0462158203125
2.9527587890625
2.8157958984375
2.321923828125
1.8659179687499998
1.413134765625
0.913623046875
0.594580078125
0.404443359375
0.167578125
0.054785156249999994
0.043505859375
0.038671874999999994
0.037060546874999996
0.038671874999999994
0.069287109375
0.175634765625
0.1571044921875
0.041088867187499996
0.042700195312499994
0.041088867187499996
0.03544921875
0.07412109374999999
0.1474365234375
0.720263671875
1.3333740234375
1.803076171875
2.270361328125
2.5845703125
2.7481201171875
3.0204345703124997
3.0429931640624996
3.0413818359375
3.0462158203125
3.0462158203125
2.9221435546874996
2.88427734375
2.7545654296874997
2.6256591796874997
2.8423828125
3.0413818359375
3.0462158203125
3.0405761718749997
3.04541015625
2.9011962890625
2.6272705078125
2.131787109375
1.5170654296875
1.11826171875
0.8451416015625
0.39396972656249996
0.1087646484375
0.059619140625
0.0394775390625
0.040283203125
0.0394775390625
0.10634765624999999
0.24895019531249998
0.34482421874999997
0.388330078125
0.1812744140625
0.045117187499999996
0.041088867187499996
0.037060546874999996
0.043505859375
0.159521484375
0.40283203125
1.0449462890624999
1.7128417968749998
2.07216796875
2.4226318359375
2.7424804687499997
2.9511474609375
3.0421875
3.0421875
3.0397705078125
3.0317138671875
2.937451171875
2.8125732421875
2.695751953125
2.5483154296875
2.6466064453125
2.9833740234375
3.0010986328125
3.0421875
3.0421875
2.91328125
2.7005859374999996
2.212353515625
1.7829345703125
1.3857421875
0.9692138671874999
0.791162109375
0.604248046875
0.3262939453125
0.2698974609375
0.28037109374999997
0.15227050781249998
0.08217773437499999
0.1071533203125
0.075732421875
0.11762695312499999
0.0684814453125
0.0475341796875
0.041088867187499996
0.041088867187499996
0.041088867187499996
0.107958984375
0.3601318359375
0.928125
1.3043701171875
1.740234375
2.1744873046874997
2.45888671875
2.6224365234375
2.715087890625
2.7585937499999997
2.8294921874999996
2.8617187499999996
2.8818603515624996
2.8939453124999996
2.892333984375
2.834326171875
2.7207275390624996
3.043798828125
3.0421875
3.043798828125
3.0421875
3.0059326171875
2.889111328125
2.4983642578125
2.0576660156249997
1.4888671875
1.1174560546874999
0.8451416015625
0.514013671875
0.4149169921875
0.38188476562499996
0.1941650390625
0.07814941406249999
0.075732421875
0.0797607421875
0.0620361328125
0.103125
0.103125
0.042700195312499994
0.043505859375
0.038671874999999994
0.042700195312499994
0.049145507812499996
0.2876220703125
0.7162353515625
1.2592529296875
1.7748779296875
2.131787109375
2.3871826171875
2.67158203125
2.7102539062499997
2.8335205078124996
2.921337890625
2.9479248046874997
2.9020019531249996
2.8778320312499996
2.9197265624999997
2.8238525390625
2.745703125
3.04541015625
3.043798828125
3.04541015625
3.04541015625
3.0413818359375
2.9946533203124996
2.5821533203125
2.01416015625
1.7257324218749999
1.3100097656249998
0.9595458984374999
0.7404052734375
0.549462890625
0.24733886718749998
0.136962890625
0.041088867187499996
0.0394775390625
0.046728515624999994
0.0958740234375
0.1353515625
0.1393798828125
0.045117187499999996
0.040283203125
0.041088867187499996
0.0394775390625
0.042700195312499994
0.1893310546875
0.6405029296875
1.203662109375
1.574267578125
1.9021728515624998
2.24619140625
2.4822509765625
2.7166992187499996
2.9068359375
2.9583984374999996
3.0421875
3.003515625
3.005126953125
3.0075439453125
2.8794433593749997
2.673193359375
2.9036132812499997
3.0413818359375
3.0421875
3.0421875
3.037353515625
2.784375
2.5072265624999996
2.165625
1.7523193359375
1.2270263671875
0.958740234375
0.6815917968749999
0.4318359375
0.3029296875
0.17724609375
0.17724609375
0.120849609375
0.1571044921875
0.1345458984375
0.2135009765625
0.28359375
0.0378662109375
0.0362548828125
0.0394775390625
0.040283203125
0.0443115234375
0.064453125
0.28842773437499997
0.8926757812499999
1.561376953125
1.920703125
2.1229248046875
2.3501220703125
2.615185546875
2.65546875
2.8125732421875
3.0429931640624996
3.0123779296874997
2.9664550781249996
2.9455078125
2.900390625
2.8206298828125
2.7674560546875
3.04541015625
3.043798828125
3.0429931640624996
3.04541015625
2.92939453125
2.795654296875
2.2099365234375
1.7990478515625
1.4171630859375
1.095703125
0.7758544921874999
0.6018310546875
0.45036621093749996
0.2360595703125
0.20866699218749998
0.0926513671875
0.038671874999999994
0.059619140625
0.120849609375
0.12165527343749999
0.038671874999999994
0.0459228515625
0.0394775390625
0.041088867187499996
0.0394775390625
0.1554931640625
0.32065429687499997
1.0417236328125
1.5686279296874999
1.8860595703124998
2.2993652343749997
2.4935302734375
2.6272705078125
2.7021972656249997
2.7803466796875
2.795654296875
2.9068359375
2.8029052734374997
2.7658447265625
2.78759765625
2.6997802734375
2.642578125
3.0470214843749996
3.0397705078125
3.0421875
3.0429931640624996
3.0429931640624996
2.8866943359375
2.489501953125
2.060888671875
1.4598632812499999
1.2383056640624999
0.9063720703125
0.7025390625
0.423779296875
0.310986328125
0.198193359375
0.2199462890625
0.143408203125
0.0733154296875
0.0958740234375
0.18852539062499998
0.2650634765625
0.041088867187499996
0.0394775390625
0.040283203125
0.041088867187499996
0.046728515624999994
0.175634765625
0.7234863281249999
1.1786865234375
1.6830322265625
2.0504150390625
2.357373046875
2.4685546874999997
2.7271728515625
2.8190185546874997
2.7884033203125
2.8883056640625
2.856884765625
2.860107421875
2.811767578125
2.7489257812499996
2.689306640625
3.0365478515624997
3.043798828125
3.0413818359375
3.04541015625
3.0413818359375
2.9559814453124997
2.5966552734375
2.0359130859375
1.7023681640625
1.3688232421875
0.9885498046875
0.7629638671875
0.5969970703124999
0.4229736328125
0.23525390624999998
0.165966796875
0.1490478515625
0.104736328125
0.08701171875
0.111181640625
0.1329345703125
0.0394775390625
0.041088867187499996
0.03544921875
0.042700195312499994
0.040283203125
0.1611328125
0.33515625
1.02802734375
1.47275390625
1.80791015625
2.257470703125
2.4290771484375
2.570068359375
2.7867919921874997
2.9430908203125
2.9753173828125
2.9414794921875
2.9680664062499997
2.9277832031249997
2.8456054687499996
2.771484375
3.043798828125
3.0429931640624996
3.0462158203125
3.0429931640624996
3.0429931640624996
2.892333984375
2.56201171875
2.205908203125
1.7531249999999998
1.281005859375
0.8999267578125
0.7387939453125
0.47050781249999996
0.30937499999999996
0.26425781249999997
0.1264892578125
0.1313232421875
0.0765380859375
0.1490478515625
0.14501953125
0.223974609375
0.040283203125
0.0394775390625
0.0394775390625
0.045117187499999996
0.038671874999999994
0.21269531249999998
0.4809814453125
1.168212890625
1.6798095703125
2.0898925781249997
2.33642578125
2.479833984375
2.69736328125
2.9092529296875
3.029296875
3.037353515625
3.04541015625
3.0413818359375
2.989013671875
2.8617187499999996
2.7706787109374997
2.6280761718749996
3.0429931640624996
3.0413818359375
3.0405761718749997
3.0389648437499996
2.985791015625
2.8464111328125
2.4532470703125
1.84013671875
1.4139404296875
1.0530029296874999
0.6340576171875
0.3988037109375
0.214306640625
0.10957031249999999
0.0378662109375
0.0362548828125
0.0394775390625
0.07734374999999999
0.17482910156249998
0.2038330078125
0.042700195312499994
0.037060546874999996
0.041088867187499996
0.0394775390625
0.0394775390625
0.0443115234375
0.20302734374999998
0.862060546875
1.2334716796875
1.6209960937499999
1.928759765625
2.2824462890625
2.470166015625
2.5660400390625
2.7239501953125
2.8012939453124996
2.9261718749999996
2.956787109375
2.8544677734375
2.8955566406249997
2.784375
2.6272705078125
3.04541015625
3.0429931640624996
3.04541015625
3.0462158203125
3.0147949218749996
2.7432861328125
2.4500244140625
2.0334960937499997
1.6185791015625
1.1819091796874999
0.90556640625
0.6985107421875
0.4761474609375
0.33515625
0.1973876953125
0.2054443359375
0.1458251953125
0.165966796875
0.18288574218749998
0.3230712890625
0.37060546875
0.041088867187499996
0.0378662109375
0.0394775390625
0.0394775390625
0.0394775390625
0.24089355468749998
0.6485595703125
1.2125244140625
1.69833984375
1.998046875
2.2324951171875
2.4524414062499997
2.6699707031249997
2.776318359375
2.9753173828125
3.043798828125
3.0421875
2.995458984375
2.843994140625
2.8351318359374997
2.744091796875
3.0365478515624997
3.0397705078125
3.04541015625
3.0421875
2.9753173828125
2.8536621093749996
2.5031982421874996
2.0214111328124997
1.7184814453125
1.33740234375
0.9804931640625
0.6703125
0.45842285156249996
0.38671875
0.21269531249999998
0.09990234375
0.12890625
0.20061035156249998
0.24895019531249998
0.28037109374999997
0.30454101562499997
0.0394775390625
0.041088867187499996
0.038671874999999994
0.040283203125
0.040283203125
0.133740234375
0.4318359375
1.2616699218749998
1.6524169921874998
1.996435546875
2.2550537109374997
2.4000732421874997
2.570068359375
2.6901123046874997
2.8359375
2.8778320312499996
2.9801513671874997
2.985791015625
2.9664550781249996
2.92939453125
2.7755126953125
3.043798828125
3.0462158203125
3.0421875
3.0478271484375
3.0429931640624996
2.88427734375
2.5354248046874996
2.13662109375
1.6773925781249999
1.100537109375
0.7468505859375
0.517236328125
0.2586181640625
0.165966796875
0.040283203125
0.040283203125
0.040283203125
0.04189453125
0.07009277343749999
0.13857421875
0.2940673828125
0.0394775390625
0.040283203125
0.040283203125
0.041088867187499996
0.04189453125
0.1780517578125
0.5478515625
1.2495849609374998
1.7370117187499998
2.3823486328125
2.6361328124999996
2.892333984375
3.0462158203125
3.0413818359375
3.043798828125
3.0486328124999997
3.043798828125
3.04541015625
2.9559814453124997
2.8029052734374997
2.731201171875
2.6619140624999997
3.050244140625
2.9511474609375
2.98740234375
2.969677734375
2.7046142578124996
2.4290771484375
1.8699462890624998
1.103759765625
0.5760498046875
0.34079589843749997
0.04189453125
0.045117187499999996
0.04189453125
0.043505859375
0.040283203125
0.1007080078125
0.146630859375
0.3440185546875
0.427001953125
0.5986083984375
0.7621582031249999
0.31340332031249996
0.29970703125
0.30051269531249997
0.45358886718749997
0.6993164062499999
1.0320556640625
1.6508056640625
2.3436767578124997
2.747314453125
3.0470214843749996
3.0429931640624996
3.0429931640624996
3.043798828125
3.0429931640624996
2.8915283203124997
2.811767578125
2.679638671875
2.4500244140625
2.1624023437499997
1.9706542968749998
1.7934082031249998
2.31708984375
2.3243408203125
2.4161865234374997
2.3549560546875
2.2647216796875
2.0326904296875
1.4783935546875
1.0143310546875
0.543017578125
0.153076171875
0.041088867187499996
0.042700195312499994
0.040283203125
0.0394775390625
0.0555908203125
0.0958740234375
0.4165283203125
0.5736328125
0.7645751953125
1.0409179687499999
1.094091796875
0.5551025390625
0.49790039062499997
0.4793701171875
0.46567382812499997
0.671923828125
1.003857421875
1.61455078125
2.131787109375
2.5499267578125
2.89072265625
3.0486328124999997
3.043798828125
3.0405761718749997
3.0446044921874997
2.9688720703125
2.8319091796875
2.7489257812499996
2.5982666015625
2.4758056640625
2.230078125
2.012548828125
2.3396484374999997
2.5177001953125
2.5313964843749996
2.5088378906249997
2.3340087890625
2.126953125
1.719287109375
1.2697265624999998
0.69287109375
0.4229736328125
0.1474365234375
0.04189453125
0.041088867187499996
0.040283203125
0.041088867187499996
0.15146484375
0.3158203125
0.5115966796875
0.7194580078124999
0.8685058593749999
1.061865234375
0.6751464843749999
0.6018310546875
0.6590332031249999
0.7178466796874999
0.8258056640625
1.0385009765625
1.4155517578124999
2.18173828125
2.6538574218749997
2.9922363281249997
3.0413818359375
3.0421875
3.0462158203125
3.0470214843749996
2.9527587890625
2.8286865234375
2.7102539062499997
2.4999755859375
2.333203125
2.08505859375
1.7652099609374998
2.051220703125
2.2171875
2.1793212890625
2.173681640625
2.11728515625
1.9311767578124999
1.4630859374999998
1.0812011718749999
0.717041015625
0.39396972656249996
0.13857421875
0.040283203125
0.041088867187499996
0.041088867187499996
0.09829101562499999
0.246533203125
0.33193359375
0.48259277343749996
0.6372802734374999
0.8693115234375
1.152099609375
0.9531005859374999
0.8741455078125
1.0530029296874999
1.0892578124999999
1.229443359375
1.4397216796874999
1.8216064453124998
2.518505859375
2.9318115234374997
3.050244140625
3.0421875
3.0462158203125
3.0002929687499997
2.8609130859375
2.8174072265624996
2.63291015625
2.2566650390625
2.03671875
1.8546386718749999
1.7901855468749999
1.5992431640625
1.50498046875
1.815966796875
1.832080078125
1.7748779296875
1.7821289062499999
1.545263671875
1.384130859375
0.928125
0.43425292968749996
0.17241210937499998
0.08942871093749999
0.041088867187499996
0.0394775390625
0.16032714843749998
0.35771484374999996
0.700927734375
1.013525390625
1.281005859375
1.6403320312499998
1.98193359375
2.199462890625
2.338037109375
2.11083984375
2.5950439453125
3.043798828125
2.0415527343749997
0.58330078125
1.3140380859374998
2.0665283203125
1.7740722656249999
1.5944091796875
1.6693359374999999
2.180126953125
2.3001708984375
1.6935058593749999
1.4751708984374998
1.4679199218749999
1.4526123046875
1.3792968749999999
1.5791015625
1.5428466796875
1.4228027343749998
1.4493896484375
1.5017578125
1.445361328125
1.4437499999999999
1.4638916015624999
1.4276367187499999
1.3736572265625
1.3857421875
1.4107177734374998
1.4590576171874998
1.4348876953124998
1.46953125
1.4872558593749998
1.432470703125
1.4622802734375
1.5073974609374998
1.53076171875
1.5154541015624998
1.496923828125
1.50498046875
1.56943359375
1.558154296875
1.522705078125
1.56943359375
1.5355957031249998
1.558154296875
1.6024658203125
1.6201904296874998
1.611328125
1.603271484375
1.6048828124999999
1.5887695312499999
1.577490234375
1.5678222656249998
1.574267578125
1.5541259765625
1.5355957031249998
1.5428466796875
1.554931640625
1.542041015625
1.5484863281249999
1.5283447265624999
1.5331787109375
1.554931640625
1.5218994140625
1.5146484375
1.5017578125
1.49853515625
1.4767822265625
1.4735595703125
1.493701171875
1.48564453125
1.4074951171874999
1.5412353515625
1.5380126953125
1.5267333984375
1.52109375
0.043505859375
0.03544921875
0.9611572265624999
0.6131103515624999
1.5541259765625
1.7047851562499998
1.6653076171874999
1.6645019531249998
1.7281494140625
1.7450683593749998
1.7474853515625
1.7934082031249998
1.8006591796875
1.8119384765625
1.7619873046874999
1.767626953125
1.7362060546875
1.7055908203124999
1.7072021484375
1.6894775390624999
1.6693359374999999
1.6346923828125
1.5605712890624999
1.4872558593749998
1.6282470703124998
1.6048828124999999
1.6234130859375
1.6137451171875
1.6105224609375
1.5968261718749999
1.554931640625
1.5758789062499998
1.546875
1.5565429687499999
1.5331787109375
1.525927734375
1.513037109375
1.522705078125
1.5444580078124999
1.554931640625
1.5654052734375
1.5686279296874999
1.542041015625
1.5815185546875
1.5831298828125
1.6137451171875
1.6556396484375
1.5621826171875
1.5460693359375
1.5605712890624999
1.4993408203124998
1.5670166015625
1.5678222656249998
1.5968261718749999
1.638720703125
1.6483886718749998
1.6588623046875
1.6234130859375
1.6105224609375
1.585546875
1.5654052734375
1.5541259765625
1.5315673828124998
1.546875
1.5509033203125
1.53720703125
1.4953124999999998
1.53720703125
1.545263671875
1.5589599609375
1.5791015625
1.6234130859375
1.546875
1.49853515625
1.5444580078124999
1.5597656249999998
1.5235107421874998
1.5396240234374998
1.4864501953125
1.4888671875
1.49853515625
1.5170654296875
1.5323730468749999
1.5146484375
1.5251220703125
1.5436523437499998
1.545263671875
1.55009765625
1.5267333984375
1.5323730468749999
1.5492919921875
1.5404296874999999
1.538818359375
1.5412353515625
1.56298828125
1.5750732421875
1.622607421875
1.593603515625
1.5968261718749999
1.5911865234375
1.5944091796875
1.5887695312499999
1.571044921875
1.5654052734375
1.5444580078124999
1.5476806640624998
1.5460693359375
1.542041015625
1.542041015625
1.5283447265624999
1.513037109375
1.5106201171875
1.5122314453124999
1.5202880859374999
1.5033691406249998
1.506591796875
1.5025634765625
1.4767822265625
1.48564453125
1.480810546875
1.4759765624999999
1.4783935546875
1.4880615234374999
1.5001464843749999
1.5001464843749999
1.5146484375
1.5315673828124998
1.5041748046874999
1.5275390624999998
1.5557373046874998
1.561376953125
1.561376953125
1.571044921875
1.558154296875
1.5621826171875
1.6435546875
1.6379150390625
1.6105224609375
1.6201904296874998
1.6266357421875
1.6177734375
1.611328125
1.6040771484374998
1.5919921874999998
1.58232421875
1.56298828125
1.5533203125
1.5573486328125
1.55009765625
1.5428466796875
1.5517089843749998
1.55009765625
1.525927734375
1.522705078125
1.5154541015624998
1.5283447265624999
1.5202880859374999
1.4791992187499998
1.4751708984374998
1.4655029296875
1.4880615234374999
1.464697265625
1.46953125
1.4711425781249998
1.4816162109375
1.4961181640624999
1.5122314453124999
1.5235107421874998
1.5315673828124998
1.5396240234374998
1.5404296874999999
1.5355957031249998
1.5444580078124999
1.5436523437499998
1.5525146484374999
1.561376953125
1.5589599609375
1.5686279296874999
1.5758789062499998
1.5718505859374998
1.59521484375
1.6000488281249998
1.6081054687499998
1.6161621093749998
1.6024658203125
1.5927978515624999
1.585546875
1.5654052734375
1.5492919921875
1.546875
1.5525146484374999
1.5476806640624998
1.5460693359375
1.5275390624999998
1.538818359375
1.5380126953125
1.5315673828124998
1.5412353515625
1.5154541015624998
1.5235107421874998
1.5041748046874999
1.506591796875
1.4888671875
1.4864501953125
1.4945068359375
1.4872558593749998
1.4993408203124998
1.506591796875
1.5186767578125
1.4961181640624999
1.509814453125
1.5154541015624998
1.53076171875
1.5331787109375
1.5436523437499998
1.5476806640624998
1.5597656249999998
1.56298828125
1.5525146484374999
1.58232421875
1.5847412109374999
1.60166015625
1.606494140625
1.6121337890624998
1.6169677734374999
1.619384765625
1.6153564453125
1.6048828124999999
1.5879638671874998
1.5750732421875
1.5702392578125
1.5573486328125
1.55009765625
1.5565429687499999
1.5444580078124999
1.5444580078124999
1.53076171875
1.5315673828124998
1.525927734375
1.5315673828124998
1.5218994140625
1.5275390624999998
1.5073974609374998
1.5025634765625
1.4896728515625
1.4880615234374999
1.4783935546875
1.474365234375
1.4920898437499999
1.4953124999999998
1.509814453125
1.5170654296875
1.5380126953125
1.5347900390625
1.5404296874999999
1.5460693359375
1.545263671875
1.5541259765625
1.5517089843749998
1.5557373046874998
1.5565429687499999
1.574267578125
1.574267578125
1.585546875
1.5984375
1.6024658203125
1.6153564453125
1.6089111328124999
1.6081054687499998
1.5911865234375
1.5992431640625
1.5799072265624998
1.5718505859374998
1.5589599609375
1.5525146484374999
1.538818359375
1.5364013671874999
1.5331787109375
1.5283447265624999
1.5460693359375
1.5436523437499998
1.5331787109375
1.522705078125
1.5170654296875
1.5025634765625
1.4953124999999998
1.496923828125
1.4872558593749998
1.4800048828124999
1.477587890625
1.474365234375
1.4945068359375
1.4832275390624998
1.5114257812499998
1.53720703125
1.5380126953125
1.5484863281249999
1.5509033203125
1.546875
1.5533203125
1.5525146484374999
1.55009765625
1.55009765625
1.5670166015625
1.5799072265624998
1.5839355468749998
1.5847412109374999
1.5944091796875
1.60166015625
1.619384765625
1.6242187499999998
1.611328125
1.5944091796875
1.5766845703124999
1.5686279296874999
1.5678222656249998
1.5565429687499999
1.5428466796875
1.5396240234374998
1.5331787109375
1.53720703125
1.5202880859374999
1.5323730468749999
1.5267333984375
1.5315673828124998
1.5138427734375
1.5073974609374998
1.5033691406249998
1.48564453125
1.4800048828124999
1.4767822265625
1.4800048828124999
1.4928955078125
1.4977294921875
1.5009521484375
1.5090087890625
1.5162597656249999
1.5323730468749999
1.5355957031249998
1.5428466796875
1.5460693359375
1.5517089843749998
1.5541259765625
1.5412353515625
1.5557373046874998
1.561376953125
1.5686279296874999
1.5847412109374999
1.6000488281249998
1.6056884765625
1.5992431640625
1.6169677734374999
1.6121337890624998
1.6177734375
1.5895751953125
1.5766845703124999
1.56943359375
1.5533203125
1.5492919921875
1.5444580078124999
1.542041015625
1.5380126953125
1.5412353515625
1.538818359375
1.529150390625
1.53076171875
1.53076171875
1.51787109375
1.5009521484375
1.506591796875
1.496923828125
1.4896728515625
1.4783935546875
1.4800048828124999
1.490478515625
1.493701171875
1.496923828125
1.5138427734375
1.509814453125
1.5315673828124998
1.5428466796875
1.5509033203125
1.55009765625
1.5436523437499998
1.546875
1.5460693359375
1.5412353515625
1.5589599609375
1.5831298828125
1.5960205078124998
1.6056884765625
1.6024658203125
1.6081054687499998
1.6161621093749998
1.619384765625
1.603271484375
1.5895751953125
1.5815185546875
1.5766845703124999
1.5678222656249998
1.5565429687499999
1.5460693359375
1.5476806640624998
1.5396240234374998
1.5404296874999999
1.533984375
1.5323730468749999
1.525927734375
1.5194824218749998
1.5283447265624999
1.5170654296875
1.5033691406249998
1.4896728515625
1.4840332031249999
1.4703369140625
1.4687255859375
1.4735595703125
1.5082031249999999
1.5082031249999999
1.50498046875
1.5194824218749998
1.5186767578125
1.5380126953125
1.5428466796875
1.5428466796875
1.546875
1.5492919921875
1.5637939453124998
1.5573486328125
1.5492919921875
1.5573486328125
1.5758789062499998
1.5919921874999998
1.603271484375
1.6024658203125
1.6185791015625
1.6121337890624998
1.6056884765625
1.5911865234375
1.5839355468749998
1.5678222656249998
1.56298828125
1.5662109375
1.5541259765625
1.5492919921875
1.5404296874999999
1.5331787109375
1.5275390624999998
1.525927734375
1.5355957031249998
1.5275390624999998
1.5243164062499999
1.5146484375
1.5033691406249998
1.496923828125
1.4961181640624999
1.4719482421874999
1.4751708984374998
1.4759765624999999
1.4896728515625
1.4961181640624999
1.5114257812499998
1.5162597656249999
1.5299560546875
1.5412353515625
1.538818359375
1.55009765625
1.5428466796875
1.5444580078124999
1.5662109375
1.56298828125
1.5517089843749998
1.5702392578125
1.5847412109374999
1.590380859375
1.5984375
1.6089111328124999
1.6169677734374999
1.6153564453125
1.61455078125
1.5863525390625
1.5887695312499999
1.5726562499999999
1.5670166015625
1.5654052734375
1.5412353515625
1.5460693359375
1.5460693359375
1.53720703125
1.5315673828124998
1.529150390625
1.5243164062499999
1.529150390625
1.5323730468749999
1.5186767578125
1.4993408203124998
1.480810546875
1.480810546875
1.4751708984374998
1.4751708984374998
1.49853515625
1.5017578125
1.5009521484375
1.5009521484375
1.5138427734375
1.5323730468749999
1.542041015625
1.5404296874999999
1.5444580078124999
1.5484863281249999
1.5565429687499999
1.542041015625
1.5533203125
1.55009765625
1.5605712890624999
1.58232421875
1.5927978515624999
1.5976318359375
1.60166015625
1.611328125
1.61455078125
1.6056884765625
1.6056884765625
1.5887695312499999
1.577490234375
1.5686279296874999
1.5662109375
1.5476806640624998
1.546875
1.533984375
1.53720703125
1.538818359375
1.5323730468749999
1.5283447265624999
1.5275390624999998
1.525927734375
1.5283447265624999
1.506591796875
1.496923828125
1.4840332031249999
1.4767822265625
1.4832275390624998
1.4832275390624998
1.4896728515625
1.4977294921875
1.50498046875
1.5073974609374998
1.525927734375
1.5323730468749999
1.5315673828124998
1.5484863281249999
1.5533203125
1.5509033203125
1.558154296875
1.558154296875
1.554931640625
1.561376953125
1.574267578125
1.5815185546875
1.5927978515624999
1.6000488281249998
1.6056884765625
1.6177734375
1.61455078125
1.6008544921874999
1.5863525390625
1.5734619140625
1.5670166015625
1.5621826171875
1.5565429687499999
1.542041015625
1.538818359375
1.5347900390625
1.5364013671874999
1.5436523437499998
1.545263671875
1.53076171875
1.5275390624999998
1.5202880859374999
1.5001464843749999
1.5009521484375
1.4896728515625
1.482421875
1.4816162109375
1.4783935546875
1.4783935546875
1.493701171875
1.496923828125
1.506591796875
1.5122314453124999
1.533984375
1.5509033203125
1.5492919921875
1.545263671875
1.554931640625
1.5573486328125
1.558154296875
1.5605712890624999
1.554931640625
1.571044921875
1.5831298828125
1.5960205078124998
1.5911865234375
1.6040771484374998
1.6153564453125
1.6137451171875
1.6048828124999999
1.5960205078124998
1.5847412109374999
1.5645996093749999
1.56298828125
1.5605712890624999
1.5412353515625
1.538818359375
1.5315673828124998
1.5331787109375
1.5299560546875
1.5364013671874999
1.5380126953125
1.529150390625
1.5162597656249999
1.513037109375
1.5001464843749999
1.4993408203124998
1.4832275390624998
1.4703369140625
1.4759765624999999
1.4880615234374999
1.4953124999999998
1.4993408203124998
1.509814453125
1.52109375
1.529150390625
1.533984375
1.542041015625
1.5412353515625
1.5541259765625
1.5533203125
1.5637939453124998
1.5533203125
1.5509033203125
1.5678222656249998
1.5782958984375
1.5911865234375
1.59521484375
1.60166015625
1.6169677734374999
1.6072998046875
1.6072998046875
1.593603515625
1.5895751953125
1.56943359375
1.5678222656249998
1.554931640625
1.5428466796875
1.5428466796875
1.5484863281249999
1.5364013671874999
1.5275390624999998
1.5323730468749999
1.529150390625
1.5275390624999998
1.5194824218749998
1.5154541015624998
1.5033691406249998
1.48564453125
1.4880615234374999
1.4912841796874998
1.477587890625
1.4848388671875
1.4872558593749998
1.49853515625
1.5090087890625
1.5138427734375
1.5251220703125
1.5412353515625
1.5541259765625
1.5492919921875
1.5484863281249999
1.5541259765625
1.5565429687499999
1.5637939453124998
1.5597656249999998
1.5605712890624999
1.5791015625
1.5815185546875
1.5911865234375
1.60166015625
1.6129394531249999
1.6121337890624998
1.5968261718749999
1.5960205078124998
1.5863525390625
1.5815185546875
1.561376953125
1.5589599609375
1.5557373046874998
1.5347900390625
1.5404296874999999
1.5380126953125
1.5380126953125
1.5275390624999998
1.5218994140625
1.5283447265624999
1.5267333984375
1.5186767578125
1.5170654296875
1.4953124999999998
1.4912841796874998
1.480810546875
1.4759765624999999
1.480810546875
1.4848388671875
1.4945068359375
1.5025634765625
1.5114257812499998
1.5275390624999998
1.5396240234374998
1.538818359375
1.5404296874999999
1.5533203125
1.5541259765625
1.561376953125
1.558154296875
1.5597656249999998
1.5597656249999998
1.5766845703124999
1.5911865234375
1.5911865234375
1.6089111328124999
1.603271484375
1.611328125
1.6072998046875
1.6000488281249998
1.593603515625
1.5734619140625
1.5702392578125
1.5573486328125
1.5509033203125
1.545263671875
1.5355957031249998
1.5404296874999999
1.5347900390625
1.533984375
1.525927734375
1.5251220703125
1.5299560546875
1.5186767578125
1.496923828125
1.4912841796874998
1.4920898437499999
1.4800048828124999
1.4791992187499998
1.477587890625
1.493701171875
1.4912841796874998
1.5017578125
1.5186767578125
1.5283447265624999
1.525927734375
1.5404296874999999
1.5428466796875
1.5436523437499998
1.546875
1.5484863281249999
1.5525146484374999
1.554931640625
1.5645996093749999
1.5670166015625
1.5847412109374999
1.593603515625
1.6000488281249998
1.6137451171875
1.6105224609375
1.609716796875
1.5960205078124998
1.5976318359375
1.5791015625
1.5621826171875
1.5517089843749998
1.5476806640624998
1.5541259765625
1.542041015625
1.542041015625
1.538818359375
1.529150390625
1.5267333984375
1.5275390624999998
1.5218994140625
1.5267333984375
1.5186767578125
1.4953124999999998
1.4920898437499999
1.4864501953125
1.4759765624999999
1.4800048828124999
1.48564453125
1.5017578125
1.50498046875
1.5082031249999999
1.5194824218749998
1.5331787109375
1.5404296874999999
1.5517089843749998
1.5541259765625
1.5509033203125
1.55009765625
1.5525146484374999
1.5525146484374999
1.5492919921875
1.5686279296874999
1.5863525390625
1.5960205078124998
1.60166015625
1.6089111328124999
1.6137451171875
1.6137451171875
1.6024658203125
1.5895751953125
1.5831298828125
1.5726562499999999
1.56298828125
1.5484863281249999
1.5484863281249999
1.533984375
1.5347900390625
1.5355957031249998
1.5323730468749999
1.522705078125
1.5299560546875
1.5331787109375
1.5218994140625
1.5114257812499998
1.4993408203124998
1.4888671875
1.4840332031249999
1.4783935546875
1.4864501953125
1.4767822265625
1.4864501953125
1.5073974609374998
1.5251220703125
1.5299560546875
1.5275390624999998
1.5347900390625
1.5428466796875
1.5509033203125
1.55009765625
1.546875
1.5517089843749998
1.5541259765625
1.5637939453124998
1.5678222656249998
1.5791015625
1.585546875
1.5927978515624999
1.606494140625
1.6209960937499999
1.611328125
1.6040771484374998
1.59521484375
1.5758789062499998
1.5758789062499998
1.5662109375
1.554931640625
1.5492919921875
1.545263671875
1.5283447265624999
1.5347900390625
1.5315673828124998
1.53076171875
1.5315673828124998
1.5323730468749999
1.5243164062499999
1.5073974609374998
1.49853515625
1.4912841796874998
1.4920898437499999
1.4711425781249998
1.4783935546875
1.48564453125
1.4912841796874998
1.5017578125
1.506591796875
1.5154541015624998
1.5283447265624999
1.53720703125
1.53720703125
1.542041015625
1.554931640625
1.558154296875
1.5525146484374999
1.5637939453124998
1.5589599609375
1.5702392578125
1.577490234375
1.5879638671874998
1.6008544921874999
1.6024658203125
1.6201904296874998
1.6177734375
1.6056884765625
1.5984375
1.5799072265624998
1.5702392578125
1.5589599609375
1.55009765625
1.5533203125
1.545263671875
1.5347900390625
1.5355957031249998
1.5275390624999998
1.5355957031249998
1.5235107421874998
1.53076171875
1.5186767578125
1.522705078125
1.50498046875
1.5001464843749999
1.482421875
1.4679199218749999
1.46953125
1.482421875
1.4880615234374999
1.5017578125
1.5082031249999999
1.5194824218749998
1.5412353515625
1.542041015625
1.5404296874999999
1.55009765625
1.5476806640624998
1.5573486328125
1.5645996093749999
1.5605712890624999
1.5533203125
1.5589599609375
1.5887695312499999
1.5927978515624999
1.5984375
1.6056884765625
1.609716796875
1.6081054687499998
1.5992431640625
1.6008544921874999
1.5887695312499999
1.5678222656249998
1.561376953125
1.5605712890624999
1.55009765625
1.538818359375
1.5380126953125
1.5331787109375
1.5323730468749999
1.5299560546875
1.5194824218749998
1.5299560546875
1.5283447265624999
1.5170654296875
1.5082031249999999
1.4880615234374999
1.4800048828124999
1.4872558593749998
1.4783935546875
1.4912841796874998
1.4800048828124999
1.496923828125
1.5186767578125
1.5186767578125
1.5267333984375
1.5315673828124998
1.5364013671874999
1.5484863281249999
1.5404296874999999
1.5509033203125
1.5597656249999998
1.558154296875
1.5565429687499999
1.5654052734375
1.5758789062499998
1.58232421875
1.593603515625
1.5992431640625
1.6089111328124999
1.6129394531249999
1.6040771484374998
1.603271484375
1.5895751953125
1.5791015625
1.5670166015625
1.5589599609375
1.55009765625
1.5517089843749998
1.542041015625
1.533984375
1.5323730468749999
1.53076171875
1.5275390624999998
1.5275390624999998
1.5267333984375
1.5162597656249999
1.5025634765625
1.4977294921875
1.4896728515625
1.4864501953125
1.4791992187499998
1.46953125
1.4888671875
1.5001464843749999
1.5138427734375
1.5114257812499998
1.53076171875
1.533984375
1.5412353515625
1.5573486328125
1.546875
1.5492919921875
1.554931640625
1.5565429687499999
1.5565429687499999
1.561376953125
1.5702392578125
1.574267578125
1.590380859375
1.6072998046875
1.6129394531249999
1.6169677734374999
1.6072998046875
1.6008544921874999
1.593603515625
1.5702392578125
1.5726562499999999
1.561376953125
1.554931640625
1.5436523437499998
1.5404296874999999
1.5347900390625
1.5355957031249998
1.5331787109375
1.533984375
1.5170654296875
1.5331787109375
1.5235107421874998
1.5162597656249999
1.5017578125
1.4912841796874998
1.474365234375
1.4800048828124999
1.4759765624999999
1.48564453125
1.4896728515625
1.5138427734375
1.5146484375
1.5186767578125
1.5364013671874999
1.5315673828124998
1.542041015625
1.5444580078124999
1.5492919921875
1.5517089843749998
1.5533203125
1.5565429687499999
1.5565429687499999
1.5750732421875
1.5815185546875
1.5911865234375
1.60166015625
1.6137451171875
1.6129394531249999
1.6048828124999999
1.6008544921874999
1.5919921874999998
1.5839355468749998
1.5807128906249999
1.56943359375
1.5525146484374999
1.546875
1.5380126953125
1.5364013671874999
1.5347900390625
1.5299560546875
1.53076171875
1.5283447265624999
1.5299560546875
1.5202880859374999
1.5114257812499998
1.5138427734375
1.4888671875
1.4848388671875
1.48564453125
1.480810546875
1.4832275390624998
1.4953124999999998
1.5025634765625
1.5162597656249999
1.5170654296875
1.5267333984375
1.538818359375
1.5460693359375
1.5396240234374998
1.5533203125
1.5573486328125
1.5565429687499999
1.5589599609375
1.5557373046874998
1.5605712890624999
1.5718505859374998
1.5976318359375
1.6072998046875
1.6089111328124999
1.619384765625
1.6024658203125
1.606494140625
1.5911865234375
1.585546875
1.58232421875
1.5645996093749999
1.5428466796875
1.546875
1.538818359375
1.53720703125
1.5396240234374998
1.5323730468749999
1.5428466796875
1.5331787109375
1.53076171875
1.5194824218749998
1.5114257812499998
1.5073974609374998
1.4977294921875
1.4800048828124999
1.47275390625
1.4791992187499998
1.4880615234374999
1.4872558593749998
1.50498046875
1.5073974609374998
1.522705078125
1.5283447265624999
1.5299560546875
1.5347900390625
1.542041015625
1.5412353515625
1.5517089843749998
1.56298828125
1.5557373046874998
1.554931640625
1.5702392578125
1.5807128906249999
1.5879638671874998
1.5984375
1.6072998046875
1.6129394531249999
1.6089111328124999
1.6072998046875
1.6000488281249998
1.5887695312499999
1.5766845703124999
1.56298828125
1.5637939453124998
1.55009765625
1.5484863281249999
1.5355957031249998
1.5380126953125
1.53076171875
1.5283447265624999
1.53076171875
1.5331787109375
1.5186767578125
1.5138427734375
1.5146484375
1.4953124999999998
1.4848388671875
1.4832275390624998
1.4759765624999999
