1.4888671875
1.4961181640624999
1.4928955078125
1.5082031249999999
1.5114257812499998
1.5218994140625
1.5299560546875
1.5444580078124999
1.538818359375
1.5396240234374998
1.554931640625
1.5517089843749998
1.5533203125
1.5557373046874998
1.5525146484374999
1.5589599609375
1.5782958984375
1.58232421875
1.5895751953125
1.6072998046875
1.6089111328124999
1.603271484375
1.59521484375
1.590380859375
1.574267578125
1.5702392578125
1.5573486328125
1.558154296875
1.5525146484374999
1.546875
1.538818359375
1.5460693359375
1.538818359375
1.5283447265624999
1.533984375
1.5251220703125
1.5275390624999998
1.5106201171875
1.5057861328125
1.49853515625
1.482421875
1.48564453125
1.4800048828124999
1.490478515625
1.4896728515625
1.5041748046874999
1.513037109375
1.5243164062499999
1.5323730468749999
1.5380126953125
1.545263671875
1.5444580078124999
1.5444580078124999
1.5597656249999998
1.5517089843749998
1.554931640625
1.558154296875
1.5670166015625
1.5678222656249998
1.587158203125
1.5944091796875
1.6081054687499998
1.6000488281249998
1.60166015625
1.59521484375
1.5968261718749999
1.577490234375
1.56943359375
1.56298828125
1.5541259765625
1.5492919921875
1.5436523437499998
1.538818359375
1.5331787109375
1.5347900390625
1.5331787109375
1.5323730468749999
1.5299560546875
1.5170654296875
1.5138427734375
1.5025634765625
1.5025634765625
1.4896728515625
1.480810546875
1.4880615234374999
1.490478515625
1.4920898437499999
1.5025634765625
1.5114257812499998
1.5186767578125
1.533984375
1.5315673828124998
1.5460693359375
1.5484863281249999
1.5484863281249999
1.5428466796875
1.5517089843749998
1.5565429687499999
1.5525146484374999
1.5605712890624999
1.574267578125
1.5839355468749998
1.593603515625
1.6008544921874999
1.6081054687499998
1.6056884765625
1.6000488281249998
1.5927978515624999
1.58232421875
1.5718505859374998
1.5637939453124998
1.5517089843749998
1.5533203125
1.53720703125
1.5436523437499998
1.538818359375
1.533984375
1.53076171875
1.53076171875
1.533984375
1.5251220703125
1.5106201171875
1.5162597656249999
1.490478515625
1.49853515625
1.4848388671875
1.480810546875
1.4872558593749998
1.4961181640624999
1.5001464843749999
1.5073974609374998
1.5186767578125
1.53076171875
1.5404296874999999
1.5436523437499998
1.5476806640624998
1.545263671875
1.5484863281249999
1.5597656249999998
1.5533203125
1.5533203125
1.5605712890624999
1.56943359375
1.5895751953125
1.5960205078124998
1.5968261718749999
1.6121337890624998
1.6129394531249999
1.5992431640625
1.590380859375
1.577490234375
1.5734619140625
1.5645996093749999
1.5621826171875
1.5492919921875
1.5476806640624998
1.538818359375
1.538818359375
1.53076171875
1.5323730468749999
1.533984375
1.529150390625
1.5243164062499999
1.5122314453124999
1.5009521484375
1.4977294921875
1.4961181640624999
1.48564453125
1.4864501953125
1.4912841796874998
1.5017578125
1.506591796875
1.513037109375
1.522705078125
1.5194824218749998
1.533984375
1.55009765625
1.538818359375
1.546875
1.5517089843749998
1.5597656249999998
1.5573486328125
1.5525146484374999
1.5645996093749999
1.5662109375
1.5799072265624998
1.5944091796875
1.603271484375
1.6056884765625
1.6072998046875
1.5968261718749999
1.5911865234375
1.5791015625
1.5734619140625
1.571044921875
1.5533203125
1.5565429687499999
1.5412353515625
1.53720703125
1.5364013671874999
1.53720703125
1.5380126953125
1.5323730468749999
1.533984375
1.5251220703125
1.5162597656249999
1.5122314453124999
1.506591796875
1.4872558593749998
1.490478515625
1.4912841796874998
1.4888671875
1.48564453125
1.4953124999999998
1.5122314453124999
1.506591796875
1.5267333984375
1.5347900390625
1.5323730468749999
1.5404296874999999
1.5509033203125
1.5517089843749998
1.5557373046874998
1.5533203125
1.5460693359375
1.558154296875
1.5726562499999999
1.5782958984375
1.5839355468749998
1.5984375
1.6089111328124999
1.6089111328124999
1.6072998046875
1.603271484375
1.5911865234375
1.5807128906249999
1.561376953125
1.5509033203125
1.5557373046874998
1.5541259765625
1.542041015625
1.5404296874999999
1.5331787109375
1.5364013671874999
1.5323730468749999
1.5299560546875
1.5267333984375
1.5202880859374999
1.5073974609374998
1.5057861328125
1.4993408203124998
1.4864501953125
1.4888671875
1.480810546875
1.496923828125
1.49853515625
1.5033691406249998
1.51787109375
1.52109375
1.5380126953125
1.545263671875
1.5428466796875
1.546875
1.5436523437499998
1.5557373046874998
1.5476806640624998
1.5517089843749998
1.5525146484374999
1.5726562499999999
1.5734619140625
1.5919921874999998
1.593603515625
1.6048828124999999
1.60166015625
1.6040771484374998
1.6040771484374998
1.585546875
1.574267578125
1.5686279296874999
1.558154296875
1.5525146484374999
1.5412353515625
1.545263671875
1.538818359375
1.5380126953125
1.5355957031249998
1.529150390625
1.53720703125
1.5347900390625
1.522705078125
1.5073974609374998
1.5090087890625
1.4977294921875
1.48564453125
1.4928955078125
1.47275390625
1.4912841796874998
1.5001464843749999
1.5041748046874999
1.5090087890625
1.5267333984375
1.522705078125
1.5396240234374998
1.55009765625
1.545263671875
1.5476806640624998
1.5565429687499999
1.5597656249999998
1.5597656249999998
1.5565429687499999
1.5726562499999999
1.5791015625
1.5919921874999998
1.5968261718749999
1.6040771484374998
1.6056884765625
1.5960205078124998
1.593603515625
1.5831298828125
1.585546875
1.5597656249999998
1.5565429687499999
1.5597656249999998
1.546875
1.5476806640624998
1.5364013671874999
1.5396240234374998
1.533984375
1.5283447265624999
1.4510009765624998
1.53076171875
1.5235107421874998
1.513037109375
1.50498046875
1.4928955078125
1.4920898437499999
1.4840332031249999
1.4759765624999999
1.4864501953125
1.4977294921875
1.5106201171875
1.5082031249999999
1.5170654296875
1.5323730468749999
1.533984375
1.5380126953125
1.55009765625
1.554931640625
1.5525146484374999
1.5404296874999999
1.5533203125
1.5541259765625
1.571044921875
1.5726562499999999
1.585546875
1.5944091796875
1.6048828124999999
1.6129394531249999
1.6048828124999999
1.590380859375
1.590380859375
1.5782958984375
1.5702392578125
1.5573486328125
1.554931640625
1.5525146484374999
1.542041015625
1.5355957031249998
1.533984375
1.5283447265624999
1.533984375
1.5315673828124998
1.525927734375
1.5170654296875
1.5162597656249999
1.5114257812499998
1.49853515625
1.490478515625
1.482421875
1.4848388671875
1.4961181640624999
1.4953124999999998
1.5025634765625
1.5122314453124999
1.5194824218749998
1.5331787109375
1.538818359375
1.5436523437499998
1.5436523437499998
1.5436523437499998
1.5509033203125
1.5533203125
1.5557373046874998
1.5541259765625
1.5678222656249998
1.5766845703124999
1.58232421875
1.5968261718749999
1.6008544921874999
1.609716796875
1.5992431640625
1.5960205078124998
1.5944091796875
1.577490234375
1.561376953125
1.5605712890624999
1.5597656249999998
1.5476806640624998
1.5380126953125
1.545263671875
1.5347900390625
1.5396240234374998
1.5364013671874999
1.5347900390625
1.53076171875
1.5275390624999998
1.5138427734375
1.49853515625
1.5033691406249998
1.4945068359375
1.4872558593749998
1.4880615234374999
1.4888671875
1.4953124999999998
1.4993408203124998
1.5082031249999999
1.5251220703125
1.5283447265624999
1.5323730468749999
1.5436523437499998
1.55009765625
1.5492919921875
1.5517089843749998
1.55009765625
1.5573486328125
1.5541259765625
1.5670166015625
1.5702392578125
1.585546875
1.5847412109374999
1.609716796875
1.6072998046875
1.606494140625
1.5968261718749999
1.593603515625
1.5791015625
1.5686279296874999
1.56298828125
1.5492919921875
1.5404296874999999
1.542041015625
1.538818359375
1.5412353515625
1.53720703125
1.529150390625
1.533984375
1.5251220703125
1.522705078125
1.5267333984375
1.5033691406249998
1.4993408203124998
1.48564453125
1.4840332031249999
1.48564453125
1.4832275390624998
1.4920898437499999
1.5114257812499998
1.5186767578125
1.5243164062499999
1.529150390625
1.5283447265624999
1.5355957031249998
1.554931640625
1.5444580078124999
1.5533203125
1.55009765625
1.5589599609375
1.5525146484374999
1.5565429687499999
1.5662109375
1.5879638671874998
1.5976318359375
1.5976318359375
1.6089111328124999
1.6089111328124999
1.6024658203125
1.593603515625
1.5807128906249999
1.5686279296874999
1.558154296875
1.5557373046874998
1.55009765625
1.5492919921875
1.5355957031249998
1.5396240234374998
1.5396240234374998
1.5251220703125
1.53076171875
1.53720703125
1.5267333984375
1.522705078125
1.5033691406249998
1.4953124999999998
1.4920898437499999
1.4848388671875
1.480810546875
1.4896728515625
1.496923828125
1.509814453125
1.5146484375
1.5202880859374999
1.5275390624999998
1.5355957031249998
1.542041015625
1.5404296874999999
1.5533203125
1.5509033203125
1.5541259765625
1.55009765625
1.5565429687499999
1.5702392578125
1.5726562499999999
1.5799072265624998
1.5919921874999998
1.5960205078124998
1.6072998046875
1.6040771484374998
1.59521484375
1.5960205078124998
1.5887695312499999
1.574267578125
1.5645996093749999
1.5533203125
1.5484863281249999
1.5404296874999999
1.53720703125
1.5404296874999999
1.533984375
1.5315673828124998
1.5299560546875
1.5347900390625
1.525927734375
1.5186767578125
1.5082031249999999
1.5041748046874999
1.4912841796874998
1.493701171875
1.4840332031249999
1.4848388671875
1.4872558593749998
1.5057861328125
1.5122314453124999
1.5090087890625
1.525927734375
1.53076171875
1.5355957031249998
1.5476806640624998
1.5484863281249999
1.5517089843749998
1.5597656249999998
1.5525146484374999
1.558154296875
1.5589599609375
1.5831298828125
1.5847412109374999
1.587158203125
1.5976318359375
1.6089111328124999
1.6089111328124999
1.5968261718749999
1.5944091796875
1.5847412109374999
1.574267578125
1.5662109375
1.5573486328125
1.5533203125
1.5509033203125
1.5436523437499998
1.5347900390625
1.53720703125
1.533984375
1.5315673828124998
1.529150390625
1.522705078125
1.51787109375
1.5162597656249999
1.4961181640624999
1.4920898437499999
1.4912841796874998
1.4840332031249999
1.4840332031249999
1.4880615234374999
1.496923828125
1.5082031249999999
1.522705078125
1.53076171875
1.5323730468749999
1.5428466796875
1.5380126953125
1.545263671875
1.554931640625
1.5573486328125
1.55009765625
1.554931640625
1.5565429687499999
1.5678222656249998
1.5839355468749998
1.5879638671874998
1.60166015625
1.606494140625
1.5992431640625
1.6072998046875
1.593603515625
1.5799072265624998
1.5758789062499998
1.5726562499999999
1.56298828125
1.5565429687499999
1.5573486328125
1.542041015625
1.5315673828124998
1.5283447265624999
1.5428466796875
1.5315673828124998
1.533984375
1.5251220703125
1.5170654296875
1.5057861328125
1.5001464843749999
1.4928955078125
1.4832275390624998
1.4880615234374999
1.4791992187499998
1.490478515625
1.5033691406249998
1.5082031249999999
1.5170654296875
1.5355957031249998
1.538818359375
1.5460693359375
1.5492919921875
1.542041015625
1.554931640625
1.5476806640624998
1.5476806640624998
1.5509033203125
1.5654052734375
1.5678222656249998
1.5766845703124999
1.574267578125
1.6008544921874999
1.6105224609375
1.61455078125
1.6056884765625
1.5944091796875
1.577490234375
1.5766845703124999
1.5654052734375
1.5557373046874998
1.5436523437499998
1.546875
1.545263671875
1.5404296874999999
1.5396240234374998
1.5283447265624999
1.5283447265624999
1.5355957031249998
1.5251220703125
1.5146484375
1.5114257812499998
1.513037109375
1.509814453125
1.490478515625
1.4872558593749998
1.4840332031249999
1.48564453125
1.4912841796874998
1.5106201171875
1.522705078125
1.529150390625
1.538818359375
1.5404296874999999
1.5404296874999999
1.5428466796875
1.55009765625
1.5517089843749998
1.5509033203125
1.5541259765625
1.5525146484374999
1.56298828125
1.5734619140625
1.585546875
1.5968261718749999
1.60166015625
1.6081054687499998
1.6177734375
1.5960205078124998
1.5847412109374999
1.5799072265624998
1.5621826171875
1.5597656249999998
1.5565429687499999
1.5525146484374999
1.5517089843749998
1.5364013671874999
1.5404296874999999
1.53076171875
1.5323730468749999
1.529150390625
1.529150390625
1.5194824218749998
1.5154541015624998
1.5025634765625
1.4848388671875
1.5009521484375
1.4880615234374999
1.4864501953125
1.4888671875
1.4953124999999998
1.4953124999999998
1.49853515625
1.5146484375
1.5243164062499999
1.533984375
1.5364013671874999
1.5331787109375
1.5364013671874999
1.5460693359375
1.5541259765625
1.5589599609375
1.5758789062499998
1.5839355468749998
1.5944091796875
1.6121337890624998
1.6218017578125
1.6403320312499998
1.6218017578125
1.603271484375
1.59521484375
1.5831298828125
1.5782958984375
1.554931640625
1.5396240234374998
1.5243164062499999
1.5251220703125
1.5331787109375
1.5460693359375
1.53720703125
1.5355957031249998
1.5355957031249998
1.5460693359375
1.5533203125
1.53720703125
1.4888671875
1.4920898437499999
1.4912841796874998
1.4928955078125
1.496923828125
1.5106201171875
1.5315673828124998
1.5138427734375
1.5017578125
1.513037109375
1.5194824218749998
1.5082031249999999
1.5114257812499998
1.525927734375
1.5436523437499998
1.5573486328125
1.554931640625
1.5670166015625
1.5734619140625
1.593603515625
1.5791015625
1.538818359375
1.5428466796875
1.5807128906249999
1.6024658203125
1.6129394531249999
1.6048828124999999
1.5879638671874998
1.5847412109374999
1.5799072265624998
1.5839355468749998
1.5791015625
1.554931640625
1.5355957031249998
1.5404296874999999
1.5645996093749999
1.5573486328125
1.5444580078124999
1.546875
1.5275390624999998
1.522705078125
1.5146484375
1.5082031249999999
1.5009521484375
1.509814453125
1.490478515625
1.4920898437499999
1.458251953125
1.46953125
1.506591796875
1.52109375
1.529150390625
1.5235107421874998
1.5323730468749999
1.5380126953125
1.55009765625
1.5396240234374998
1.5364013671874999
1.5533203125
1.5492919921875
1.5533203125
1.5492919921875
1.5525146484374999
1.5662109375
1.5831298828125
1.6081054687499998
1.606494140625
1.60166015625
1.5895751953125
1.5911865234375
1.5758789062499998
1.5637939453124998
1.5686279296874999
1.5533203125
1.5557373046874998
1.5589599609375
1.5565429687499999
1.5597656249999998
1.5509033203125
1.558154296875
1.5122314453124999
1.5267333984375
1.533984375
1.5202880859374999
1.5041748046874999
1.5146484375
1.509814453125
1.50498046875
1.4953124999999998
1.506591796875
1.4953124999999998
1.4872558593749998
1.4880615234374999
1.5114257812499998
1.5001464843749999
1.5001464843749999
1.5154541015624998
1.5331787109375
1.546875
1.5355957031249998
1.542041015625
1.554931640625
1.554931640625
1.5645996093749999
1.577490234375
1.5815185546875
1.5847412109374999
1.5992431640625
1.6137451171875
1.6427490234375
1.6379150390625
1.6218017578125
1.611328125
1.5758789062499998
1.56943359375
1.5597656249999998
1.56943359375
1.56943359375
1.5726562499999999
1.56943359375
1.5492919921875
1.4912841796874998
1.4679199218749999
1.4816162109375
1.496923828125
1.5122314453124999
1.53076171875
1.542041015625
1.5283447265624999
1.496923828125
1.4703369140625
1.4840332031249999
1.490478515625
1.4920898437499999
1.4961181640624999
1.513037109375
1.5138427734375
1.522705078125
1.5146484375
1.5299560546875
1.53720703125
1.546875
1.5525146484374999
1.56298828125
1.5799072265624998
1.56298828125
1.545263671875
1.5573486328125
1.5791015625
1.5944091796875
1.5791015625
1.5895751953125
1.5968261718749999
1.5944091796875
1.593603515625
1.6290527343749999
1.625830078125
1.6024658203125
1.603271484375
1.5758789062499998
1.558154296875
1.56943359375
1.5621826171875
1.5911865234375
1.5484863281249999
1.538818359375
1.51787109375
1.5218994140625
1.5073974609374998
1.4920898437499999
1.4687255859375
1.464697265625
1.461474609375
1.4759765624999999
1.480810546875
1.4864501953125
1.4953124999999998
1.5001464843749999
1.506591796875
1.5114257812499998
1.5057861328125
1.5218994140625
1.5347900390625
1.5412353515625
1.538818359375
1.542041015625
1.5654052734375
1.5565429687499999
1.5766845703124999
1.593603515625
1.6250244140624999
1.59521484375
1.6153564453125
1.622607421875
1.6081054687499998
1.622607421875
1.5734619140625
1.5573486328125
1.545263671875
1.5565429687499999
1.5476806640624998
1.522705078125
1.5347900390625
1.5396240234374998
1.5605712890624999
1.5726562499999999
1.5758789062499998
1.5750732421875
1.5637939453124998
1.5460693359375
1.51787109375
1.480810546875
1.4961181640624999
1.5017578125
1.490478515625
1.48564453125
1.4896728515625
1.5114257812499998
1.5218994140625
1.5057861328125
1.5154541015624998
1.5202880859374999
1.5323730468749999
1.51787109375
1.5267333984375
1.542041015625
1.55009765625
1.5428466796875
1.558154296875
1.525927734375
1.5396240234374998
1.561376953125
1.5815185546875
1.6121337890624998
1.6056884765625
1.6089111328124999
1.6177734375
1.6475830078125
1.6081054687499998
1.5758789062499998
1.5670166015625
1.5444580078124999
1.5323730468749999
1.5380126953125
1.542041015625
1.5347900390625
1.51787109375
1.525927734375
1.52109375
1.5090087890625
1.5218994140625
1.5460693359375
1.51787109375
1.4896728515625
1.5025634765625
1.5299560546875
1.5412353515625
1.4961181640624999
1.4864501953125
1.490478515625
1.5057861328125
1.5251220703125
1.5436523437499998
1.525927734375
1.5412353515625
1.53720703125
1.538818359375
1.5428466796875
1.561376953125
1.571044921875
1.5831298828125
1.5573486328125
1.5484863281249999
1.5476806640624998
1.5509033203125
1.5734619140625
1.5927978515624999
1.5919921874999998
1.6121337890624998
1.6048828124999999
1.5887695312499999
1.5758789062499998
1.577490234375
1.5782958984375
1.5565429687499999
1.5557373046874998
1.5541259765625
1.545263671875
1.5412353515625
1.55009765625
1.5492919921875
1.5396240234374998
1.5138427734375
1.5106201171875
1.5106201171875
1.5033691406249998
1.4920898437499999
1.49853515625
1.4840332031249999
1.4783935546875
1.4751708984374998
1.493701171875
1.5146484375
1.4993408203124998
1.5122314453124999
1.522705078125
1.53076171875
1.5251220703125
1.5460693359375
1.574267578125
1.5766845703124999
1.5758789062499998
1.5702392578125
1.558154296875
1.5637939453124998
1.5734619140625
1.58232421875
1.574267578125
1.6040771484374998
1.6185791015625
1.641943359375
1.683837890625
1.5887695312499999
1.571044921875
1.5525146484374999
1.56298828125
1.561376953125
1.5565429687499999
1.5194824218749998
1.545263671875
1.5331787109375
1.513037109375
1.50498046875
1.496923828125
1.4783935546875
1.5162597656249999
1.513037109375
1.493701171875
1.4840332031249999
1.4953124999999998
1.49853515625
1.5299560546875
1.5412353515625
1.5718505859374998
1.5347900390625
1.4574462890625
1.4123291015625
1.482421875
1.554931640625
1.58232421875
1.5782958984375
1.5919921874999998
1.5895751953125
1.5815185546875
1.5766845703124999
1.5323730468749999
1.5436523437499998
1.606494140625
1.5589599609375
1.5645996093749999
1.5654052734375
1.5718505859374998
1.5750732421875
1.5807128906249999
1.59521484375
1.611328125
1.5831298828125
1.5919921874999998
1.5919921874999998
1.590380859375
1.5589599609375
1.5484863281249999
1.5557373046874998
1.5565429687499999
1.554931640625
1.5396240234374998
1.4864501953125
1.474365234375
1.4896728515625
1.48564453125
1.474365234375
1.482421875
1.477587890625
1.4759765624999999
1.458251953125
1.4880615234374999
1.4920898437499999
1.5146484375
1.5734619140625
1.6000488281249998
1.6008544921874999
1.5509033203125
1.5146484375
1.509814453125
1.5170654296875
1.5323730468749999
1.5444580078124999
1.5726562499999999
1.5702392578125
1.5662109375
1.5517089843749998
1.5484863281249999
1.5847412109374999
1.6072998046875
1.609716796875
1.5960205078124998
1.5976318359375
1.5799072265624998
1.5879638671874998
1.5791015625
1.5654052734375
1.5557373046874998
1.5484863281249999
1.546875
1.5428466796875
1.5444580078124999
1.5299560546875
1.5243164062499999
1.51787109375
1.558154296875
1.525927734375
1.5057861328125
1.5025634765625
1.5009521484375
1.4961181640624999
1.4880615234374999
1.47275390625
1.4719482421874999
1.4840332031249999
1.5146484375
1.5243164062499999
1.5315673828124998
1.542041015625
1.5428466796875
1.5202880859374999
1.5364013671874999
1.5597656249999998
1.5573486328125
1.558154296875
1.5726562499999999
1.5525146484374999
1.5525146484374999
1.5645996093749999
1.5686279296874999
1.5766845703124999
1.5863525390625
1.6000488281249998
1.6000488281249998
1.59521484375
1.5734619140625
1.5678222656249998
1.5541259765625
1.5565429687499999
1.5589599609375
1.5799072265624998
1.56298828125
1.5605712890624999
1.5565429687499999
1.5662109375
1.5315673828124998
1.5154541015624998
1.5364013671874999
1.529150390625
1.52109375
1.5073974609374998
1.4961181640624999
1.4993408203124998
1.4920898437499999
1.4832275390624998
1.4912841796874998
1.509814453125
1.529150390625
1.52109375
1.52109375
1.53076171875
1.525927734375
1.529150390625
1.5315673828124998
1.545263671875
1.5509033203125
1.5565429687499999
1.5541259765625
1.5621826171875
1.5662109375
1.56298828125
1.5726562499999999
1.585546875
1.5799072265624998
1.6000488281249998
1.6072998046875
1.60166015625
1.593603515625
1.5831298828125
1.529150390625
1.538818359375
1.5517089843749998
1.546875
1.5573486328125
1.6024658203125
1.554931640625
1.5525146484374999
1.5686279296874999
1.5484863281249999
1.5364013671874999
1.5218994140625
1.5218994140625
1.4961181640624999
1.4977294921875
1.4783935546875
1.4751708984374998
1.4888671875
1.5057861328125
1.4977294921875
1.4977294921875
1.5355957031249998
1.53076171875
1.538818359375
1.5364013671874999
1.5251220703125
1.55009765625
1.56298828125
1.5984375
1.6177734375
1.5960205078124998
1.5412353515625
1.5138427734375
1.529150390625
1.5396240234374998
1.5662109375
1.5750732421875
1.5758789062499998
1.611328125
1.619384765625
1.606494140625
1.5782958984375
1.5484863281249999
1.5589599609375
1.5879638671874998
1.6008544921874999
1.6056884765625
1.5782958984375
1.5396240234374998
1.5202880859374999
1.5033691406249998
1.513037109375
1.5170654296875
1.4896728515625
1.50498046875
1.5146484375
1.513037109375
1.5218994140625
1.5033691406249998
1.482421875
1.4655029296875
1.4912841796874998
1.5154541015624998
1.5170654296875
1.5275390624999998
1.5799072265624998
1.5734619140625
1.558154296875
1.558154296875
1.5533203125
1.5355957031249998
1.5396240234374998
1.5380126953125
1.546875
1.5605712890624999
1.5621826171875
1.5702392578125
1.577490234375
1.6000488281249998
1.609716796875
1.611328125
1.5976318359375
1.5726562499999999
1.5589599609375
1.5573486328125
1.5517089843749998
1.5492919921875
1.5460693359375
1.546875
1.5355957031249998
1.53076171875
1.5355957031249998
1.5436523437499998
1.542041015625
1.545263671875
1.55009765625
1.53720703125
1.5218994140625
1.509814453125
1.496923828125
1.4816162109375
1.4920898437499999
1.4912841796874998
1.490478515625
1.5025634765625
1.5090087890625
1.52109375
1.533984375
1.5299560546875
1.5347900390625
1.538818359375
1.53720703125
1.5243164062499999
1.5396240234374998
1.5573486328125
1.5460693359375
1.5525146484374999
1.5492919921875
1.56298828125
1.5670166015625
1.5847412109374999
1.5847412109374999
1.6024658203125
1.5960205078124998
1.6000488281249998
1.60166015625
1.5726562499999999
1.5637939453124998
1.558154296875
1.5541259765625
1.5645996093749999
1.5412353515625
1.5509033203125
1.5396240234374998
1.5251220703125
1.5194824218749998
1.5347900390625
1.5355957031249998
1.5275390624999998
1.529150390625
1.5114257812499998
1.5033691406249998
1.496923828125
1.4888671875
1.4800048828124999
1.4920898437499999
1.5057861328125
1.5114257812499998
1.529150390625
1.5299560546875
1.5396240234374998
1.538818359375
1.5436523437499998
1.538818359375
1.5541259765625
1.5589599609375
1.56298828125
1.5525146484374999
1.5404296874999999
1.5573486328125
1.558154296875
1.574267578125
1.5895751953125
1.5944091796875
1.5758789062499998
1.5718505859374998
1.5960205078124998
1.5782958984375
1.571044921875
1.56298828125
1.5726562499999999
1.5702392578125
1.5662109375
1.571044921875
1.5460693359375
1.5267333984375
1.5275390624999998
1.5170654296875
1.53720703125
1.5476806640624998
1.5186767578125
1.5267333984375
1.5202880859374999
1.5122314453124999
1.49853515625
1.496923828125
1.4920898437499999
1.4864501953125
1.4928955078125
1.5122314453124999
1.5267333984375
1.529150390625
1.5355957031249998
1.529150390625
1.5347900390625
1.5412353515625
1.5444580078124999
1.558154296875
1.5557373046874998
1.5347900390625
1.5315673828124998
1.558154296875
1.5678222656249998
1.5895751953125
1.577490234375
1.606494140625
1.6105224609375
1.5847412109374999
1.6008544921874999
1.5815185546875
1.5243164062499999
1.53720703125
1.5766845703124999
1.5621826171875
1.5323730468749999
1.533984375
1.52109375
1.571044921875
1.593603515625
1.6040771484374998
1.5702392578125
1.5726562499999999
1.4953124999999998
1.4896728515625
1.5251220703125
1.51787109375
1.509814453125
1.4953124999999998
1.480810546875
1.4735595703125
1.4872558593749998
1.50498046875
1.506591796875
1.5170654296875
1.5251220703125
1.529150390625
1.51787109375
1.5509033203125
1.5517089843749998
1.5525146484374999
1.5605712890624999
1.56298828125
1.545263671875
1.53720703125
1.5517089843749998
1.5670166015625
1.5726562499999999
1.5815185546875
1.6008544921874999
1.6000488281249998
1.6081054687499998
1.5815185546875
1.5791015625
1.56298828125
1.56298828125
1.558154296875
1.5702392578125
1.542041015625
1.5492919921875
1.5380126953125
1.522705078125
1.5315673828124998
1.5251220703125
1.5533203125
1.538818359375
1.5267333984375
1.5323730468749999
1.5444580078124999
1.5235107421874998
1.4993408203124998
1.464697265625
1.4945068359375
1.50498046875
1.4928955078125
1.4920898437499999
1.5009521484375
1.5162597656249999
1.52109375
1.525927734375
1.55009765625
1.5412353515625
1.5509033203125
1.5509033203125
1.5678222656249998
1.5525146484374999
1.5597656249999998
1.542041015625
1.5597656249999998
1.6218017578125
1.625830078125
1.590380859375
1.5847412109374999
1.5944091796875
1.5887695312499999
1.5766845703124999
1.5895751953125
1.585546875
1.5758789062499998
1.5750732421875
1.5702392578125
1.5202880859374999
1.5033691406249998
1.5355957031249998
1.5243164062499999
1.533984375
1.577490234375
1.558154296875
1.5364013671874999
1.4977294921875
1.4928955078125
1.4888671875
1.4655029296875
1.461474609375
1.4791992187499998
1.5082031249999999
1.5114257812499998
1.5525146484374999
1.5597656249999998
1.51787109375
1.5436523437499998
1.546875
1.5847412109374999
1.625830078125
1.545263671875
1.493701171875
1.5251220703125
1.509814453125
1.5436523437499998
1.5766845703124999
1.56298828125
1.5533203125
1.571044921875
1.593603515625
1.635498046875
1.6298583984375
1.6346923828125
1.6540283203125
1.6395263671875
1.60166015625
1.5662109375
1.53720703125
1.5122314453124999
1.5331787109375
1.5251220703125
1.5170654296875
1.5428466796875
1.542041015625
1.5347900390625
1.5476806640624998
1.5380126953125
1.5235107421874998
1.52109375
1.5283447265624999
1.4832275390624998
1.522705078125
1.5726562499999999
1.5380126953125
1.4767822265625
1.45341796875
1.464697265625
1.4791992187499998
1.533984375
1.667724609375
1.6733642578124999
1.6636962890625
1.561376953125
1.5146484375
1.5347900390625
1.5984375
1.5944091796875
1.5847412109374999
1.603271484375
1.5750732421875
1.5887695312499999
1.5831298828125
1.5984375
1.6089111328124999
1.590380859375
1.5589599609375
1.554931640625
1.5557373046874998
1.5525146484374999
1.5412353515625
1.7208984374999998
3.0429931640624996
2.2880859375
1.8707519531249999
1.6943115234375
1.6048828124999999
1.5517089843749998
1.5114257812499998
1.46953125
1.4501953125
1.4244140625
1.4042724609375
1.3865478515624998
1.3559326171875
1.380908203125
1.3954101562499999
1.3994384765624999
1.4123291015625
1.40830078125
1.4252197265625
1.4429443359374998
1.4518066406249999
1.46953125
1.4703369140625
1.4679199218749999
1.482421875
1.4719482421874999
1.474365234375
1.4848388671875
1.506591796875
1.5154541015624998
1.5251220703125
1.533984375
1.5476806640624998
1.5541259765625
1.545263671875
1.53076171875
1.5323730468749999
1.546875
1.5202880859374999
1.53076171875
1.5138427734375
1.5218994140625
1.5122314453124999
1.5114257812499998
1.5122314453124999
1.52109375
1.5275390624999998
1.5146484375
1.4961181640624999
1.4783935546875
1.4888671875
1.4542236328125
1.4518066406249999
1.4687255859375
1.4751708984374998
1.49853515625
1.5275390624999998
1.5146484375
1.4800048828124999
1.5122314453124999
1.5331787109375
1.5146484375
1.52109375
1.5283447265624999
1.5315673828124998
1.5686279296874999
1.5670166015625
1.5911865234375
1.5517089843749998
1.5275390624999998
1.5299560546875
1.558154296875
1.5863525390625
1.6137451171875
1.6000488281249998
1.5847412109374999
1.5766845703124999
1.5541259765625
1.5645996093749999
1.5484863281249999
1.5444580078124999
1.4864501953125
1.5654052734375
1.6427490234375
1.6532226562499999
1.6129394531249999
1.493701171875
1.5202880859374999
1.5355957031249998
1.493701171875
1.464697265625
1.5090087890625
1.538818359375
1.5460693359375
1.477587890625
1.4501953125
1.4429443359374998
1.4816162109375
1.5976318359375
1.5718505859374998
1.5927978515624999
1.6218017578125
1.53076171875
1.4300537109375
1.4437499999999999
1.46630859375
1.525927734375
1.5364013671874999
1.5565429687499999
1.5597656249999998
1.5492919921875
1.529150390625
1.56298828125
1.56943359375
1.5807128906249999
1.5863525390625
1.5919921874999998
1.6121337890624998
1.6040771484374998
1.6040771484374998
1.587158203125
1.5968261718749999
1.5807128906249999
1.56943359375
1.5573486328125
1.5919921874999998
1.5750732421875
1.5484863281249999
1.52109375
1.513037109375
1.5251220703125
1.545263671875
1.53720703125
1.529150390625
1.493701171875
1.4679199218749999
1.4679199218749999
1.4880615234374999
1.5331787109375
1.5162597656249999
1.554931640625
1.6645019531249998
1.6161621093749998
1.4501953125
1.380908203125
1.4437499999999999
1.4848388671875
1.4953124999999998
1.5170654296875
1.5654052734375
1.5645996093749999
1.546875
1.5686279296874999
1.542041015625
1.5073974609374998
1.5323730468749999
1.5436523437499998
1.5565429687499999
1.577490234375
1.577490234375
1.574267578125
1.6379150390625
1.5863525390625
1.5484863281249999
1.554931640625
1.571044921875
1.5654052734375
1.5565429687499999
1.5589599609375
1.5509033203125
1.5444580078124999
1.5243164062499999
1.5460693359375
1.5355957031249998
1.5589599609375
1.5364013671874999
1.5347900390625
1.533984375
1.496923828125
1.506591796875
1.4928955078125
1.5090087890625
1.5073974609374998
1.4920898437499999
1.506591796875
1.51787109375
1.5347900390625
1.5428466796875
1.5533203125
1.5412353515625
1.5404296874999999
1.554931640625
1.480810546875
1.5404296874999999
1.5428466796875
1.5218994140625
1.561376953125
1.5565429687499999
1.55009765625
1.5758789062499998
1.61455078125
1.6266357421875
1.65
1.635498046875
1.5766845703124999
1.56298828125
1.5791015625
1.5847412109374999
1.5839355468749998
1.5734619140625
1.561376953125
1.5637939453124998
1.56298828125
1.5726562499999999
1.5605712890624999
1.5645996093749999
1.5976318359375
1.5637939453124998
1.5517089843749998
1.533984375
1.5267333984375
1.5186767578125
1.4993408203124998
1.5033691406249998
1.5299560546875
1.49853515625
1.496923828125
1.51787109375
1.5218994140625
1.529150390625
1.513037109375
1.5331787109375
1.509814453125
1.5243164062499999
1.5444580078124999
1.5782958984375
1.6153564453125
1.5863525390625
1.6282470703124998
1.67578125
1.606494140625
1.5380126953125
1.5718505859374998
1.5911865234375
1.6363037109374998
1.6483886718749998
1.6620849609375
1.6645019531249998
1.6781982421875
1.6564453124999998
1.662890625
1.6781982421875
1.7072021484375
1.73056640625
1.7587646484375
1.8425537109374999
1.6765869140624998
1.542041015625
1.482421875
1.36962890625
1.3575439453125
1.3728515625
1.3631835937499999
1.3752685546874999
1.3728515625
1.3881591796875
1.40830078125
1.4228027343749998
1.4203857421875
1.4332763671875
1.4381103515625
1.4719482421874999
1.5106201171875
1.525927734375
1.4816162109375
1.46630859375
1.4928955078125
1.5331787109375
1.53076171875
1.480810546875
1.5218994140625
1.5476806640624998
1.5960205078124998
1.50498046875
1.13115234375
0.9369873046874999
1.1351806640625
1.2157470703125
1.2640869140625
1.3543212890624998
1.3873535156249999
1.4493896484375
1.5670166015625
1.62744140625
1.6854492187499999
1.6234130859375
1.5976318359375
1.6081054687499998
1.545263671875
1.5557373046874998
1.754736328125
2.0971435546875
2.2566650390625
2.4282714843749997
2.392822265625
2.3960449218749997
2.2228271484374997
1.9658203125
1.6072998046875
1.2463623046874999
0.9998291015624999
0.8838134765625
0.6566162109375
0.5607421874999999
0.613916015625
0.5647705078124999
0.5647705078124999
0.514013671875
0.530126953125
0.6985107421875
0.8032470703125
0.6759521484375
0.459228515625
0.38913574218749997
0.38188476562499996
0.4189453125
0.6453369140624999
0.84111328125
1.429248046875
1.9231201171874999
2.3138671875
2.5885986328125
2.8399658203125
3.029296875
3.0381591796875
3.043798828125
3.0147949218749996
2.9737060546875
2.9237548828124997
2.79404296875
2.6240478515624996
2.537841796875
2.46533203125
2.8029052734374997
2.8375488281249996
2.824658203125
2.8754150390624997
2.695751953125
2.4943359375
2.0826416015625
1.546875
1.2181640624999999
0.9498779296875
0.5768554687499999
0.4439208984375
0.28037109374999997
0.169189453125
0.06606445312499999
0.042700195312499994
0.0362548828125
0.0459228515625
0.088623046875
0.2102783203125
0.2441162109375
0.0378662109375
0.040283203125
0.03544921875
0.07009277343749999
0.1957763671875
0.420556640625
0.910400390625
1.5009521484375
1.8981445312499998
2.222021484375
2.487890625
2.7191162109375
2.85849609375
2.9156982421874997
2.9785400390624996
3.043798828125
3.0123779296874997
3.0147949218749996
2.940673828125
2.9438964843749997
2.7771240234374996
3.0421875
3.043798828125
3.043798828125
2.9261718749999996
2.9422851562499996
2.7932373046874996
2.2437744140625
1.8796142578125
1.5114257812499998
1.1287353515625
0.881396484375
0.6678955078125
0.4970947265625
0.35368652343749996
0.2731201171875
0.1651611328125
0.2199462890625
0.24169921875
0.2360595703125
0.2892333984375
0.394775390625
0.045117187499999996
0.040283203125
0.0394775390625
0.042700195312499994
0.133740234375
0.2779541015625
0.7935791015625
1.2608642578125
1.6363037109374998
2.0576660156249997
2.350927734375
2.5394531249999996
2.615185546875
2.7336181640625
2.89072265625
2.8560791015625
2.8423828125
2.818212890625
2.760205078125
2.6280761718749996
2.5636230468749996
2.840771484375
3.0002929687499997
2.9575927734375
2.96484375
2.9326171875
2.7183105468749997
2.4451904296875
2.1100341796874997
1.5815185546875
1.2906738281249999
1.019970703125
0.863671875
0.6131103515624999
0.5132080078125
0.42136230468749997
0.240087890625
0.29648437499999997
0.310986328125
0.269091796875
0.323876953125
0.378662109375
0.04189453125
0.0394775390625
0.03544921875
0.040283203125
0.0394775390625
0.23928222656249998
0.43747558593749997
1.0723388671875
1.6814208984374999
1.9585693359374998
2.160791015625
2.2510253906249997
2.40087890625
2.4846679687499997
2.5612060546874997
2.6941406249999997
2.7932373046874996
2.9342285156249996
2.8464111328125
2.7908203124999997
2.705419921875
2.8576904296874996
3.0421875
3.037353515625
3.0421875
2.9366455078125
2.8319091796875
2.6466064453125
2.0890869140625
1.7370117187499998
1.4671142578124998
1.2850341796875
0.881396484375
0.7001220703125
0.4729248046875
0.29648437499999997
0.20463867187499998
0.21511230468749998
0.24089355468749998
0.246533203125
0.3150146484375
0.3955810546875
0.12568359375
0.03544921875
0.0394775390625
0.042700195312499994
0.10634765624999999
0.23122558593749998
0.46970214843749997
1.1964111328125
1.5662109375
1.9078125
2.257470703125
2.4524414062499997
2.63291015625
2.7303955078124997
2.7521484375
2.7505371093749997
2.76181640625
2.7062255859374997
2.7811523437499996
2.6925292968749996
2.666748046875
2.75537109375
2.953564453125
3.043798828125
3.0268798828124996
3.0067382812499996
2.8141845703125
2.6594970703125
2.2985595703125
1.9553466796874999
1.4437499999999999
1.0272216796875
0.7855224609375
0.4833984375
0.26748046875
0.1861083984375
0.1087646484375
0.1168212890625
0.1458251953125
0.1780517578125
0.24814453125
0.29648437499999997
0.10634765624999999
0.040283203125
0.041088867187499996
0.0378662109375
0.041088867187499996
0.1458251953125
0.3802734375
0.978076171875
1.426025390625
1.8667236328124999
2.2502197265625
2.4564697265624997
2.618408203125
2.7384521484374997
2.76181640625
2.8286865234375
2.8141845703125
2.7585937499999997
2.8335205078124996
2.72314453125
2.6780273437499997
2.534619140625
2.9173095703125
3.0236572265625
3.018017578125
2.995458984375
2.905224609375
2.7086425781249996
2.30419921875
1.767626953125
1.3994384765624999
1.090869140625
0.833056640625
0.62841796875
0.46647949218749996
0.32548828124999996
0.1426025390625
0.136962890625
0.11359863281249999
0.104736328125
0.15227050781249998
0.2376708984375
0.388330078125
0.0443115234375
0.038671874999999994
0.0394775390625
0.0443115234375
0.1699951171875
0.356103515625
0.7178466796874999
1.2850341796875
1.606494140625
1.9271484374999999
2.2276611328125
2.46533203125
2.6321044921874996
2.8657470703124996
2.9044189453125
2.9269775390625
2.9463134765624996
2.9269775390625
2.79404296875
2.8141845703125
2.7030029296875
3.018017578125
3.043798828125
3.0381591796875
3.0446044921874997
2.9519531249999997
2.7972656249999996
2.4532470703125
2.0818359374999997
1.7345947265625
1.2616699218749998
0.9216796875
0.684814453125
0.5003173828124999
0.459228515625
0.36899414062499997
0.2570068359375
0.2038330078125
0.2827880859375
0.2940673828125
0.323876953125
0.4004150390625
0.0394775390625
0.043505859375
0.0394775390625
0.040283203125
0.0362548828125
0.2425048828125
0.6912597656249999
1.135986328125
1.5251220703125
1.9625976562499998
2.157568359375
2.4322998046874997
2.6232421875
2.7674560546875
2.8431884765624997
2.8955566406249997
2.848828125
2.808544921875
2.7465087890624997
2.663525390625
2.4451904296875
2.721533203125
2.8786376953125
2.9946533203124996
2.9664550781249996
2.931005859375
2.8391601562499997
2.5708740234375
2.1889892578125
1.6435546875
1.3470703124999999
1.0932861328124999
0.7702148437499999
0.5051513671875
0.38591308593749996
0.37705078124999997
0.20463867187499998
0.2296142578125
0.29326171875
0.37302246093749997
0.4004150390625
0.49064941406249996
0.0394775390625
0.042700195312499994
0.041088867187499996
0.037060546874999996
0.0394775390625
0.1941650390625
0.48178710937499997
1.0119140625
1.4800048828124999
1.73056640625
2.0689453125
2.3307861328125
2.5201171875
2.62646484375
2.663525390625
2.6885009765624996
2.7489257812499996
2.73603515625
2.6764160156249996
2.5483154296875
2.56845703125
2.9205322265625
3.0429931640624996
3.0405761718749997
3.043798828125
3.0429931640624996
2.9825683593749996
2.744091796875
2.255859375
1.8989501953124999
1.5702392578125
1.1577392578124999
0.9224853515625
0.652587890625
0.44150390624999997
0.294873046875
0.32871093749999997
0.2715087890625
0.23686523437499998
0.2505615234375
0.32145996093749996
0.3391845703125
0.07814941406249999
0.040283203125
0.03544921875
0.043505859375
0.040283203125
0.19255371093749998
0.46728515625
0.9893554687499999
1.3720458984375
1.65966796875
1.972265625
2.247802734375
2.4041015624999997
2.5571777343749997
2.6876953125
2.7908203124999997
2.811767578125
2.7747070312499997
2.785986328125
2.70380859375
2.62646484375
2.8037109375
3.0107666015624996
3.0397705078125
3.0446044921874997
3.0446044921874997
2.92294921875
2.72314453125
2.3960449218749997
1.9827392578124998
1.5541259765625
1.3269287109374999
1.0086914062499999
0.7194580078124999
0.581689453125
0.5285156249999999
0.43022460937499996
0.2795654296875
0.330322265625
0.31259765624999997
0.323876953125
0.42216796874999996
0.19497070312499998
0.02900390625
0.040283203125
0.042700195312499994
0.04189453125
0.1313232421875
0.32548828124999996
0.9224853515625
1.2624755859374999
1.716064453125
1.9891845703125
2.1986572265624997
2.3871826171875
2.5338134765625
2.6739990234374997
2.7827636718749997
2.7755126953125
2.7545654296874997
2.7384521484374997
2.6965576171874996
2.6401611328124996
2.5676513671874996
3.0228515624999996
3.0397705078125
3.0446044921874997
2.9583984374999996
2.9326171875
2.8230468749999997
2.4903076171875
1.8417480468749998
1.4872558593749998
1.1480712890625
0.9152343749999999
0.733154296875
0.514013671875
0.42619628906249996
0.2537841796875
0.17080078124999998
0.21511230468749998
0.1329345703125
0.11923828125
0.18369140625
0.291650390625
0.045117187499999996
0.0394775390625
0.0394775390625
0.040283203125
0.15871582031249998
0.362548828125
0.8830078124999999
1.490478515625
1.8240234375
2.135009765625
2.473388671875
2.56845703125
2.73603515625
2.7980712890625
2.876220703125
2.8222412109375
2.86494140625
2.8190185546874997
2.79404296875
2.719921875
2.5789306640625
2.9946533203124996
2.9825683593749996
3.0236572265625
2.9841796874999997
2.9189208984375
2.771484375
2.3501220703125
1.9601806640625
1.5919921874999998
1.2495849609374998
0.966796875
0.6807861328125
0.4390869140625
0.3424072265625
0.270703125
0.21672363281249998
0.16032714843749998
0.1796630859375
0.22236328125
0.3424072265625
0.38994140624999996
0.040283203125
0.043505859375
0.040283203125
0.041088867187499996
0.09023437499999999
0.34885253906249997
0.758935546875
1.2447509765625
1.6459716796875
1.98837890625
2.2671386718749997
2.4016845703125
2.7175048828125
2.785986328125
2.7779296875
2.779541015625
2.7730957031249996
2.7344238281249997
2.7247558593749996
2.60712890625
2.5797363281249996
2.9390625
3.0317138671875
3.0429931640624996
3.0413818359375
2.9914306640625
2.7432861328125
2.376708984375
2.0874755859375
1.6306640625
1.380908203125
1.13115234375
0.8282226562499999
0.5583251953125
0.572021484375
0.49467773437499996
0.41008300781249996
0.410888671875
0.40202636718749996
0.33273925781249997
0.399609375
0.5035400390625
0.18369140625
0.037060546874999996
0.03544921875
0.040283203125
0.043505859375
0.18449707031249998
0.5808837890624999
1.0626708984375
1.5879638671874998
1.9013671875
2.1543457031249997
2.3404541015625
2.4290771484375
2.5193115234374996
2.5354248046874996
2.6135742187499997
2.6860839843749997
2.640966796875
2.5652343749999997
2.5249511718749997
2.5201171875
2.8037109375
2.9495361328125
3.0389648437499996
3.037353515625
2.9358398437499997
2.8166015625
2.463720703125
2.167236328125
1.6773925781249999
1.3736572265625
1.00224609375
0.8193603515625
0.6662841796875
0.5373779296875
0.4084716796875
0.3762451171875
0.29970703125
0.3101806640625
0.44956054687499997
0.43022460937499996
0.4600341796875
0.0604248046875
0.041088867187499996
0.038671874999999994
0.045117187499999996
0.0378662109375
0.1635498046875
0.6010253906249999
1.168212890625
1.6363037109374998
1.8489990234375
2.14951171875
2.32998046875
2.6039062499999996
2.6836669921875
2.7722900390625
2.8480224609375
2.811767578125
2.808544921875
2.7932373046874996
2.7489257812499996
2.65869140625
2.8915283203124997
3.0268798828124996
3.029296875
2.9688720703125
2.96484375
2.850439453125
2.5112548828124996
2.17529296875
1.7772949218749998
1.255224609375
0.9474609374999999
0.6936767578124999
0.399609375
0.25217285156249997
0.17241210937499998
0.0459228515625
0.0394775390625
0.0475341796875
0.1651611328125
0.1998046875
0.30856933593749997
0.143408203125
0.040283203125
0.038671874999999994
0.0958740234375
0.0966796875
0.2618408203125
0.47453613281249996
1.0433349609375
1.5299560546875
1.9513183593749999
2.196240234375
2.4484130859374997
2.5885986328125
2.631298828125
2.6925292968749996
2.7005859374999996
2.7569824218749996
2.7287841796874996
2.7158935546875
2.650634765625
2.6240478515624996
2.5813476562499997
3.0164062499999997
3.043798828125
3.043798828125
3.0123779296874997
2.850439453125
2.695751953125
2.341259765625
1.8981445312499998
1.5525146484374999
1.2286376953125
0.9289306640624999
0.6751464843749999
0.546240234375
0.4519775390625
0.2586181640625
0.21108398437499998
0.21672363281249998
0.28439941406249997
0.31259765624999997
0.33757324218749996
0.399609375
0.0362548828125
0.038671874999999994
0.04189453125
0.1007080078125
0.1506591796875
0.35368652343749996
0.8507812499999999
1.3559326171875
1.796630859375
1.980322265625
2.34287109375
2.553955078125
2.6111572265625
2.6981689453124997
2.7263671874999997
2.7779296875
2.7134765625
2.6844726562499996
2.6272705078125
2.6611083984375
2.56845703125
2.9197265624999997
3.0091552734375
3.0421875
3.0421875
3.0389648437499996
2.8625244140625
2.4596923828125
2.0713623046875
1.7039794921875
1.3478759765625
1.1110107421875
0.8403076171874999
0.6670898437499999
0.4406982421875
0.39316406249999997
0.2900390625
0.26748046875
0.20947265625
0.25620117187499997
0.217529296875
0.343212890625
0.0394775390625
0.038671874999999994
0.038671874999999994
0.03544921875
0.064453125
0.17080078124999998
0.59619140625
1.1110107421875
1.4759765624999999
1.8683349609375
2.1197021484375
2.2437744140625
2.4468017578125
2.5322021484375
2.6119628906249996
2.7408691406249996
2.7134765625
2.69091796875
2.65546875
2.663525390625
2.599072265625
2.9116699218749997
3.0397705078125
3.0397705078125
3.043798828125
3.0381591796875
2.9140869140624996
2.6135742187499997
2.238134765625
1.6959228515625
1.409912109375
1.15048828125
0.8950927734374999
0.6098876953125
0.5792724609375
0.4809814453125
0.322265625
0.33757324218749996
0.291650390625
0.28359375
0.35771484374999996
0.3746337890625
0.0717041015625
0.0443115234375
0.038671874999999994
0.0362548828125
0.0717041015625
0.193359375
0.4713134765625
1.0320556640625
1.513037109375
1.7982421874999999
2.1116455078125
2.39443359375
2.5676513671874996
2.6619140624999997
2.6925292968749996
2.8609130859375
2.8770263671875
2.872998046875
2.7980712890625
2.7416748046875
2.6885009765624996
2.9285888671875
3.034130859375
3.0446044921874997
3.04541015625
3.003515625
2.8818603515624996
2.6014892578124997
2.1503173828124997
1.7732666015624998
1.3752685546874999
0.966796875
0.6912597656249999
0.526904296875
0.41330566406249997
0.2296142578125
0.1732177734375
0.09345703124999999
0.22236328125
0.240087890625
0.28439941406249997
0.4068603515625
0.24169921875
0.091845703125
0.042700195312499994
0.041088867187499996
0.1264892578125
0.1812744140625
0.37382812499999996
1.1021484375
1.4042724609375
1.7168701171874998
2.1068115234375
2.3130615234375
2.487890625
2.537841796875
2.7166992187499996
2.7771240234374996
2.78759765625
2.7384521484374997
2.70380859375
2.705419921875
2.6514404296875
2.7867919921874997
3.001904296875
2.979345703125
3.0325195312499997
3.0405761718749997
2.91650390625
2.737646484375
2.3710693359375
2.002880859375
1.58232421875
1.3414306640625
1.0062744140625
0.7412109375
0.6243896484375
0.5164306640624999
0.3673828125
0.3182373046875
0.2505615234375
0.291650390625
0.246533203125
0.3544921875
0.0878173828125
0.037060546874999996
0.043505859375
0.0362548828125
0.0362548828125
0.041088867187499996
0.322265625
0.8322509765624999
1.2374999999999998
1.6798095703125
1.960986328125
2.2196044921875
2.431494140625
2.5289794921874997
2.6135742187499997
2.6691650390625
2.7884033203125
2.7569824218749996
2.6788330078125
2.7191162109375
2.7303955078124997
2.6240478515624996
3.0429931640624996
3.037353515625
3.043798828125
3.0429931640624996
3.0397705078125
2.827880859375
2.489501953125
1.869140625
1.4687255859375
1.1923828125
1.03447265625
0.6485595703125
0.5244873046874999
0.3802734375
0.2578125
0.33193359375
0.2666748046875
0.35690917968749997
0.346435546875
0.43022460937499996
0.4165283203125
0.0362548828125
0.0378662109375
0.040283203125
0.0394775390625
0.040283203125
0.233642578125
0.66064453125
1.3390136718749999
1.7289550781249998
2.0197998046875
2.2131591796875
2.4814453125
2.6401611328124996
2.63935546875
2.7102539062499997
2.7497314453125
2.856884765625
2.760205078125
2.7626220703124997
2.67158203125
2.5877929687499996
3.0421875
3.0446044921874997
3.0405761718749997
3.043798828125
3.005126953125
2.856884765625
2.3775146484375
1.9440673828125
1.5863525390625
1.268115234375
0.9893554687499999
0.8209716796875
0.5937744140625
0.47453613281249996
0.423779296875
0.35288085937499997
0.32951660156249996
0.34079589843749997
0.322265625
0.40202636718749996
0.58330078125
0.049951171875
0.0378662109375
0.03544921875
0.0523681640625
0.0378662109375
0.10957031249999999
0.7637695312499999
1.27294921875
1.538818359375
1.8780029296874998
2.01416015625
2.157568359375
2.312255859375
2.5088378906249997
2.528173828125
2.6111572265625
2.67158203125
2.6530517578125
2.6176025390624997
2.5257568359375
2.447607421875
2.7932373046874996
2.9680664062499997
3.037353515625
3.0421875
3.0027099609374996
2.86494140625
2.512060546875
2.0955322265625
1.6330810546874999
1.4107177734374998
1.1722412109375
0.9901611328125
0.7307373046875
0.5728271484374999
0.47050781249999996
0.36416015625
0.2892333984375
0.3198486328125
0.3714111328125
0.41813964843749996
0.4358642578125
0.058813476562499994
0.045117187499999996
0.03544921875
0.040283203125
0.0443115234375
0.1313232421875
0.47373046874999997
0.9555175781249999
1.4767822265625
1.77568359375
2.0657226562499997
2.3017822265625
2.54267578125
2.6482177734374996
2.771484375
2.876220703125
2.8222412109375
2.8874999999999997
2.8899169921874996
2.771484375
2.7078369140625
2.8713867187499997
3.043798828125
3.0421875
3.043798828125
3.0268798828124996
2.8133789062499996
2.6756103515625
2.17529296875
1.8336914062499998
1.4397216796874999
1.2238037109375
0.9015380859375
0.6670898437499999
0.5260986328125
0.32548828124999996
0.23686523437499998
0.20705566406249998
0.1861083984375
0.193359375
0.19255371093749998
0.2513671875
0.040283203125
0.040283203125
0.045117187499999996
0.040283203125
0.042700195312499994
0.141796875
0.31340332031249996
1.0094970703125
1.4501953125
1.7200927734375
2.0093261718749997
2.3050048828125
2.4041015624999997
2.42666015625
2.6103515625
2.7303955078124997
2.7489257812499996
2.7996826171875
2.795654296875
2.8077392578125
2.7408691406249996
2.9189208984375
3.0470214843749996
3.0446044921874997
3.0397705078125
3.0188232421874996
2.914892578125
2.6369384765625
2.2453857421875
1.735400390625
1.3083984375
1.0111083984375
0.82177734375
0.6662841796875
0.36496582031249997
0.2940673828125
0.2376708984375
0.23283691406249998
0.18852539062499998
0.24895019531249998
0.2900390625
0.42136230468749997
0.23686523437499998
0.041088867187499996
0.0443115234375
0.045117187499999996
0.0394775390625
0.1619384765625
0.399609375
0.974853515625
1.3897705078125
1.9343994140624998
2.1680419921875
2.41376953125
2.4967529296874997
2.6433837890625
2.840771484375
2.8133789062499996
2.7432861328125
2.6490234375
2.5885986328125
2.560400390625
2.5475097656249996
2.5048095703124997
2.8423828125
2.956787109375
3.0333251953125
3.003515625
2.9277832031249997
2.8053222656249996
2.4306884765625
1.8812255859375
1.5476806640624998
1.2979248046874998
1.0078857421875
0.8580322265625
0.71220703125
0.5921630859375
0.48178710937499997
0.4552001953125
0.423779296875
0.420556640625
0.46245117187499996
0.4729248046875
0.5341552734375
0.041088867187499996
0.041088867187499996
0.042700195312499994
0.040283203125
0.1119873046875
0.18691406249999998
0.58974609375
1.106982421875
1.4461669921875
1.7289550781249998
2.064111328125
2.292919921875
2.4749999999999996
2.608740234375
2.7384521484374997
2.7465087890624997
2.808544921875
2.7465087890624997
2.7110595703125
2.6224365234375
2.6014892578124997
2.9745117187499996
3.0429931640624996
3.0429931640624996
3.0421875
3.0002929687499997
2.8270751953124997
2.46533203125
2.0665283203125
1.7442626953125
1.2777832031249998
0.978076171875
0.7146240234375
0.4519775390625
0.281982421875
0.233642578125
0.23525390624999998
0.2022216796875
0.17080078124999998
0.19255371093749998
0.270703125
0.3923583984375
0.040283203125
0.03544921875
0.04189453125
0.041088867187499996
0.1490478515625
0.34965820312499996
0.9627685546875
1.464697265625
1.8336914062499998
2.20107421875
2.3549560546875
2.5152832031249996
2.6675537109375
2.7263671874999997
2.760205078125
2.8391601562499997
2.8319091796875
2.8190185546874997
2.763427734375
2.6764160156249996
2.5692626953124997
2.931005859375
3.0147949218749996
3.043798828125
3.0429931640624996
2.9285888671875
2.70703125
2.3307861328125
1.9617919921875
1.40830078125
1.106982421875
0.8225830078124999
0.5768554687499999
0.2715087890625
0.18369140625
0.167578125
0.0910400390625
0.069287109375
0.1796630859375
0.1506591796875
0.36174316406249996
0.46567382812499997
0.040283203125
0.041088867187499996
0.041088867187499996
0.040283203125
0.13615722656249998
0.38510742187499997
0.829833984375
1.4219970703125
1.9166748046875
2.23330078125
2.5080322265625
2.7263671874999997
2.840771484375
2.9430908203125
3.001904296875
3.0421875
3.0421875
2.9970703125
2.8012939453124996
2.6901123046874997
2.5732910156249997
2.81015625
2.921337890625
2.9197265624999997
2.82626953125
2.808544921875
2.6490234375
2.341259765625
1.6701416015625
1.3148437499999999
0.974853515625
0.58330078125
0.3875244140625
0.2255859375
0.175634765625
0.0708984375
0.111181640625
0.1119873046875
0.21108398437499998
0.2827880859375
0.3826904296875
0.5349609375
0.24492187499999998
0.111181640625
0.149853515625
0.217529296875
0.24331054687499998
0.36577148437499996
0.6646728515625
1.4469726562499998
1.867529296875
2.2389404296874997
2.5869873046875
2.8512451171874997
2.9906249999999996
3.0421875
3.043798828125
3.0429931640624996
3.0389648437499996
2.8810546875
2.72314453125
2.6014892578124997
2.4886962890624997
2.5386474609375
2.7005859374999996
2.6981689453124997
2.68125
2.6256591796874997
2.4741943359375
2.141455078125
1.7450683593749998
1.24072265625
0.7033447265624999
0.46647949218749996
0.21591796875
0.041088867187499996
0.040283203125
0.0378662109375
0.043505859375
0.06606445312499999
0.22880859374999998
0.323876953125
0.4874267578125
0.717041015625
0.543017578125
0.394775390625
0.2537841796875
0.3923583984375
0.48178710937499997
0.7887451171875
0.992578125
1.6475830078125
2.2260498046875
2.6417724609374997
2.9036132812499997
3.0421875
3.0413818359375
3.0421875
3.0470214843749996
3.0002929687499997
2.9350341796875
2.76181640625
2.544287109375
2.3138671875
2.1567626953125
2.0496093749999997
2.43310546875
2.4298828125
2.447607421875
2.4016845703125
2.1535400390625
1.9166748046875
1.48564453125
0.8999267578125
0.6090820312499999
0.3520751953125
0.056396484375
0.03544921875
0.038671874999999994
0.075732421875
0.0749267578125
0.7065673828125
1.5863525390625
2.42666015625
2.6135742187499997
2.5249511718749997
2.1825439453124997
1.2665039062499999
0.9788818359375
0.8451416015625
1.090869140625
1.3446533203125
1.6209960937499999
2.1954345703125
2.3597900390624997
2.157568359375
1.7418457031249999
1.364794921875
1.1351806640625
1.2584472656249999
1.4139404296875
1.5283447265624999
1.4953124999999998
1.44052734375
1.4848388671875
1.4961181640624999
1.5396240234374998
1.4719482421874999
1.506591796875
1.5645996093749999
1.4751708984374998
1.4711425781249998
1.4518066406249999
1.43408203125
1.345458984375
1.2310546875
1.3833251953124999
1.4832275390624998
1.477587890625
1.4429443359374998
1.5154541015624998
1.5315673828124998
1.5597656249999998
1.5404296874999999
1.5645996093749999
1.56298828125
1.5589599609375
1.5637939453124998
1.5645996093749999
1.5275390624999998
1.5597656249999998
1.5718505859374998
1.5815185546875
1.593603515625
1.606494140625
1.6153564453125
1.6169677734374999
1.6008544921874999
1.59521484375
1.5750732421875
1.577490234375
1.5251220703125
1.53720703125
1.5557373046874998
1.5476806640624998
1.5484863281249999
1.5428466796875
1.554931640625
1.5380126953125
1.53076171875
1.5654052734375
1.5251220703125
1.5194824218749998
1.513037109375
1.5082031249999999
1.5106201171875
1.482421875
1.4832275390624998
1.4872558593749998
1.5082031249999999
1.4920898437499999
1.5235107421874998
1.5146484375
1.353515625
1.3986328124999998
1.4928955078125
1.5645996093749999
1.5678222656249998
1.5533203125
1.571044921875
1.5758789062499998
1.3905761718749998
0.8032470703125
1.14404296875
1.4107177734374998
1.0965087890625
0.41572265625
0.0443115234375
1.5976318359375
1.4236083984374999
1.619384765625
1.6943115234375
1.740234375
1.7217041015624999
1.7579589843749999
1.7418457031249999
1.7345947265625
1.7507080078125
1.7603759765625
1.7579589843749999
1.7080078125
1.7297607421874999
1.7313720703125
1.6951171875
1.6645019531249998
1.651611328125
1.667724609375
1.5960205078124998
1.5678222656249998
1.5686279296874999
1.5750732421875
1.5807128906249999
1.5525146484374999
1.5758789062499998
1.6056884765625
1.593603515625
1.5686279296874999
1.4945068359375
1.5509033203125
1.6089111328124999
1.4816162109375
1.6177734375
1.7200927734375
1.654833984375
1.611328125
1.593603515625
1.6121337890624998
1.654833984375
1.638720703125
1.6612792968749999
1.654833984375
1.6250244140624999
1.606494140625
1.5847412109374999
1.5863525390625
1.5863525390625
1.5782958984375
1.55009765625
1.5396240234374998
1.5396240234374998
1.5396240234374998
1.5396240234374998
1.5444580078124999
1.542041015625
1.5517089843749998
1.6000488281249998
1.574267578125
1.5073974609374998
1.493701171875
1.4767822265625
1.456640625
1.4751708984374998
1.4977294921875
1.5114257812499998
1.513037109375
1.538818359375
1.5960205078124998
1.574267578125
1.5557373046874998
1.554931640625
1.558154296875
1.5484863281249999
1.5557373046874998
1.5396240234374998
1.5412353515625
1.5444580078124999
1.574267578125
1.5702392578125
1.5637939453124998
1.587158203125
1.5895751953125
1.590380859375
1.5984375
1.6072998046875
1.5517089843749998
1.5645996093749999
1.5839355468749998
1.5662109375
1.5517089843749998
1.5428466796875
1.5541259765625
1.5476806640624998
1.5235107421874998
1.5299560546875
1.5396240234374998
1.5331787109375
1.6645019531249998
1.7748779296875
1.6242187499999998
1.5726562499999999
1.513037109375
1.47275390625
1.4816162109375
1.4888671875
1.480810546875
1.4840332031249999
1.496923828125
1.4928955078125
1.5734619140625
1.5218994140625
1.4872558593749998
1.53076171875
1.5355957031249998
1.525927734375
1.53720703125
1.5331787109375
1.525927734375
1.5541259765625
1.55009765625
1.55009765625
1.5605712890624999
1.5791015625
1.5919921874999998
1.5887695312499999
1.5984375
1.5992431640625
1.5734619140625
1.5807128906249999
1.5807128906249999
1.5645996093749999
1.5525146484374999
1.5605712890624999
1.545263671875
1.5323730468749999
1.5355957031249998
1.5170654296875
1.5299560546875
1.5154541015624998
1.5404296874999999
1.53076171875
1.513037109375
1.5001464843749999
1.4953124999999998
1.4888671875
1.4735595703125
1.480810546875
1.4767822265625
1.4767822265625
1.5017578125
1.5106201171875
1.5057861328125
1.5162597656249999
1.5235107421874998
1.5275390624999998
1.5315673828124998
1.5331787109375
1.542041015625
1.5364013671874999
1.5347900390625
1.5517089843749998
1.554931640625
1.5686279296874999
1.585546875
1.5887695312499999
1.5944091796875
1.6081054687499998
1.6121337890624998
1.6024658203125
1.59521484375
1.5879638671874998
1.58232421875
1.56943359375
1.5573486328125
1.5444580078124999
1.5267333984375
1.5355957031249998
1.5331787109375
1.5404296874999999
1.5460693359375
1.525927734375
1.525927734375
1.5235107421874998
1.5041748046874999
1.4880615234374999
1.47275390625
1.458251953125
1.48564453125
1.4816162109375
1.48564453125
1.4655029296875
1.46630859375
1.4880615234374999
1.5106201171875
1.5170654296875
1.5267333984375
1.533984375
1.5380126953125
1.5492919921875
1.5533203125
1.558154296875
1.55009765625
1.5533203125
1.5541259765625
1.5621826171875
1.5718505859374998
1.6048828124999999
1.5895751953125
1.5919921874999998
1.5960205078124998
1.6081054687499998
1.6000488281249998
1.585546875
1.5734619140625
1.5726562499999999
1.5597656249999998
1.558154296875
1.5484863281249999
1.5565429687499999
1.5444580078124999
1.53720703125
1.5331787109375
1.5315673828124998
1.5073974609374998
1.5170654296875
1.52109375
1.513037109375
1.5122314453124999
1.4977294921875
1.4928955078125
1.4848388671875
1.4888671875
1.5082031249999999
1.5347900390625
1.5138427734375
1.5106201171875
1.522705078125
1.5364013671874999
1.5331787109375
1.5476806640624998
1.5428466796875
1.5380126953125
1.5533203125
1.5557373046874998
1.5517089843749998
1.546875
1.561376953125
1.574267578125
1.585546875
1.5831298828125
1.5887695312499999
1.611328125
1.6121337890624998
1.5984375
1.5968261718749999
1.587158203125
1.5726562499999999
1.561376953125
1.5557373046874998
1.5436523437499998
1.5517089843749998
1.5484863281249999
1.5412353515625
1.5323730468749999
1.5283447265624999
1.5243164062499999
1.529150390625
1.5251220703125
1.5235107421874998
1.506591796875
1.50498046875
1.49853515625
1.4800048828124999
1.4679199218749999
1.4816162109375
1.4896728515625
1.5041748046874999
1.5146484375
1.53076171875
1.5428466796875
1.561376953125
1.545263671875
1.5460693359375
1.5517089843749998
1.5557373046874998
1.5484863281249999
1.554931640625
1.5557373046874998
1.56298828125
1.56943359375
1.5734619140625
1.5887695312499999
1.5992431640625
1.6105224609375
1.6024658203125
1.5992431640625
1.577490234375
1.5782958984375
1.5766845703124999
1.5654052734375
1.5509033203125
1.5541259765625
1.546875
1.542041015625
1.53720703125
1.5355957031249998
1.53076171875
1.5347900390625
1.5380126953125
1.53076171875
1.5162597656249999
1.5090087890625
1.4920898437499999
1.4928955078125
1.4864501953125
1.48564453125
1.4840332031249999
1.4888671875
1.5025634765625
1.5082031249999999
1.513037109375
1.5243164062499999
1.525927734375
1.533984375
1.53720703125
1.546875
1.5484863281249999
1.5573486328125
1.5597656249999998
1.55009765625
1.5573486328125
1.5726562499999999
1.5791015625
1.5879638671874998
1.6024658203125
1.6056884765625
1.6121337890624998
1.6081054687499998
1.5976318359375
1.5839355468749998
1.571044921875
1.5621826171875
1.5533203125
1.545263671875
1.538818359375
1.546875
1.5283447265624999
1.5347900390625
1.5267333984375
1.5412353515625
1.5323730468749999
1.5218994140625
1.5243164062499999
1.5114257812499998
1.5009521484375
1.490478515625
1.4920898437499999
1.4759765624999999
1.4912841796874998
1.4928955078125
1.4961181640624999
1.5033691406249998
1.5106201171875
1.5283447265624999
1.533984375
1.5380126953125
1.5404296874999999
1.5484863281249999
1.5525146484374999
1.5541259765625
1.55009765625
1.5533203125
1.5573486328125
1.5734619140625
1.58232421875
1.5839355468749998
1.5927978515624999
1.60166015625
1.611328125
1.5992431640625
1.5919921874999998
1.5807128906249999
1.5799072265624998
1.5758789062499998
1.5597656249999998
1.5509033203125
1.542041015625
1.53720703125
1.5404296874999999
1.5347900390625
1.5436523437499998
1.5218994140625
1.5331787109375
1.53076171875
1.5202880859374999
1.506591796875
1.5025634765625
1.4977294921875
1.48564453125
1.48564453125
1.4864501953125
1.4953124999999998
1.5001464843749999
1.5033691406249998
1.5162597656249999
1.5243164062499999
1.5355957031249998
1.5364013671874999
1.5460693359375
1.5484863281249999
1.5436523437499998
1.5565429687499999
1.5597656249999998
1.5557373046874998
1.5605712890624999
1.58232421875
1.5726562499999999
1.5927978515624999
1.593603515625
1.5976318359375
1.611328125
1.6024658203125
1.5984375
1.5847412109374999
1.577490234375
1.5573486328125
1.554931640625
1.554931640625
1.5533203125
1.545263671875
1.5404296874999999
1.53720703125
1.5323730468749999
1.533984375
1.5331787109375
1.5218994140625
1.5162597656249999
1.5162597656249999
1.513037109375
1.50498046875
1.490478515625
1.4840332031249999
1.482421875
1.4840332031249999
1.49853515625
1.5033691406249998
1.5106201171875
1.5243164062499999
1.5283447265624999
1.5355957031249998
1.5315673828124998
1.5597656249999998
1.5444580078124999
1.5484863281249999
1.5597656249999998
1.55009765625
1.5621826171875
1.561376953125
1.5726562499999999
1.5791015625
1.5919921874999998
1.6040771484374998
1.6048828124999999
1.6040771484374998
1.5960205078124998
1.5815185546875
1.5807128906249999
1.574267578125
1.5645996093749999
1.5517089843749998
1.545263671875
1.5380126953125
1.5428466796875
1.5476806640624998
1.5404296874999999
1.5299560546875
1.5364013671874999
1.5364013671874999
1.5275390624999998
1.5082031249999999
1.509814453125
1.4953124999999998
1.4848388671875
1.4832275390624998
1.4832275390624998
1.4783935546875
1.493701171875
1.5041748046874999
1.5106201171875
1.5251220703125
1.53076171875
1.5355957031249998
1.5428466796875
1.5517089843749998
1.5670166015625
1.5605712890624999
1.5565429687499999
1.5533203125
1.55009765625
1.5605712890624999
1.5750732421875
1.5911865234375
1.5919921874999998
1.59521484375
1.6121337890624998
1.6089111328124999
1.6040771484374998
1.5887695312499999
1.5734619140625
1.571044921875
1.561376953125
1.5492919921875
1.5525146484374999
1.5476806640624998
1.542041015625
1.5412353515625
1.5323730468749999
1.5315673828124998
1.5275390624999998
1.525927734375
1.522705078125
1.5114257812499998
1.50498046875
1.5009521484375
1.4953124999999998
1.4880615234374999
1.4840332031249999
1.48564453125
1.4953124999999998
1.5025634765625
1.5082031249999999
1.52109375
1.5347900390625
1.5347900390625
1.5436523437499998
1.5565429687499999
1.5509033203125
1.5525146484374999
1.5557373046874998
1.55009765625
1.5533203125
1.5654052734375
1.56943359375
1.5887695312499999
1.5976318359375
1.60166015625
1.606494140625
1.606494140625
1.6024658203125
1.5807128906249999
1.58232421875
1.5662109375
1.5645996093749999
1.5645996093749999
1.5509033203125
1.5525146484374999
1.542041015625
1.5355957031249998
1.5331787109375
1.5347900390625
1.5331787109375
1.5299560546875
1.52109375
1.513037109375
1.5033691406249998
1.493701171875
1.48564453125
1.490478515625
1.482421875
1.4872558593749998
1.4993408203124998
1.509814453125
1.5090087890625
1.52109375
1.5235107421874998
1.5323730468749999
1.5299560546875
1.5436523437499998
1.5541259765625
1.5573486328125
1.5541259765625
1.5557373046874998
1.5533203125
1.5670166015625
1.5654052734375
1.5807128906249999
1.5944091796875
1.6008544921874999
1.6089111328124999
1.6048828124999999
1.5984375
1.5895751953125
1.5766845703124999
1.577490234375
1.5645996093749999
1.5573486328125
1.5492919921875
1.545263671875
1.538818359375
1.5412353515625
1.53720703125
1.5315673828124998
1.5283447265624999
1.5347900390625
1.5267333984375
1.5186767578125
1.509814453125
1.5033691406249998
1.482421875
1.4800048828124999
1.482421875
1.4864501953125
1.4953124999999998
1.5017578125
1.513037109375
1.5162597656249999
1.5251220703125
1.533984375
1.5428466796875
1.5396240234374998
1.5492919921875
1.5597656249999998
1.5541259765625
1.5565429687499999
1.55009765625
1.558154296875
1.56943359375
1.5807128906249999
1.5911865234375
1.5984375
1.6089111328124999
1.6024658203125
1.5984375
1.6008544921874999
1.590380859375
1.577490234375
1.5621826171875
1.5509033203125
1.5541259765625
1.545263671875
1.545263671875
1.538818359375
1.5380126953125
1.5355957031249998
1.5323730468749999
1.5275390624999998
1.5194824218749998
1.52109375
1.5057861328125
1.506591796875
1.4888671875
1.4816162109375
1.4791992187499998
1.4880615234374999
1.4888671875
1.50498046875
1.509814453125
1.5090087890625
1.5251220703125
1.538818359375
1.538818359375
1.5484863281249999
1.554931640625
1.5517089843749998
1.5533203125
1.5492919921875
1.5460693359375
1.5662109375
1.5718505859374998
1.5750732421875
1.58232421875
1.606494140625
1.603271484375
1.6081054687499998
1.6008544921874999
1.59521484375
1.58232421875
1.571044921875
1.5670166015625
1.5557373046874998
1.5662109375
1.5436523437499998
1.53720703125
1.53076171875
1.5380126953125
1.5355957031249998
1.5355957031249998
1.53076171875
1.52109375
1.5251220703125
1.5194824218749998
1.49853515625
1.496923828125
1.490478515625
1.4832275390624998
1.4816162109375
1.4872558593749998
1.4953124999999998
1.5090087890625
1.5138427734375
1.525927734375
1.5323730468749999
1.542041015625
1.538818359375
1.5436523437499998
1.5533203125
1.5460693359375
1.5533203125
1.5492919921875
1.5654052734375
1.5702392578125
1.5799072265624998
1.5927978515624999
1.5911865234375
1.6048828124999999
1.6008544921874999
1.611328125
1.603271484375
1.577490234375
1.5887695312499999
1.5702392578125
1.5541259765625
1.5484863281249999
1.5436523437499998
1.5476806640624998
1.5364013671874999
1.5355957031249998
1.5347900390625
1.5347900390625
1.529150390625
1.529150390625
1.5194824218749998
1.5114257812499998
1.506591796875
1.4928955078125
1.493701171875
1.4840332031249999
1.48564453125
1.4912841796874998
1.4928955078125
1.5017578125
1.5138427734375
1.52109375
1.5283447265624999
1.5404296874999999
1.55009765625
1.5533203125
1.546875
