1.4912841796874998
1.48564453125
1.4800048828124999
1.4832275390624998
1.4953124999999998
1.4977294921875
1.5090087890625
1.52109375
1.5218994140625
1.5347900390625
1.5355957031249998
1.5460693359375
1.5428466796875
1.5565429687499999
1.5517089843749998
1.561376953125
1.5517089843749998
1.5597656249999998
1.5662109375
1.5887695312499999
1.6008544921874999
1.5992431640625
1.5960205078124998
1.6040771484374998
1.5992431640625
1.593603515625
1.5847412109374999
1.5726562499999999
1.5645996093749999
1.56298828125
1.55009765625
1.5476806640624998
1.5476806640624998
1.5331787109375
1.5323730468749999
1.53076171875
1.5323730468749999
1.5315673828124998
1.529150390625
1.5202880859374999
1.5170654296875
1.5033691406249998
1.4953124999999998
1.4961181640624999
1.482421875
1.4840332031249999
1.5001464843749999
1.4953124999999998
1.513037109375
1.5186767578125
1.51787109375
1.5283447265624999
1.538818359375
1.5412353515625
1.5404296874999999
1.5525146484374999
1.5484863281249999
1.558154296875
1.554931640625
1.56943359375
1.56943359375
1.5815185546875
1.5879638671874998
1.5927978515624999
1.6129394531249999
1.6121337890624998
1.6024658203125
1.5960205078124998
1.5750732421875
1.574267578125
1.5726562499999999
1.5565429687499999
1.5557373046874998
1.5436523437499998
1.5404296874999999
1.5412353515625
1.525927734375
1.533984375
1.53076171875
1.5299560546875
1.533984375
1.5194824218749998
1.5090087890625
1.5017578125
1.490478515625
1.482421875
1.4880615234374999
1.4872558593749998
1.4977294921875
1.4945068359375
1.5114257812499998
1.522705078125
1.5323730468749999
1.5275390624999998
1.5444580078124999
1.5428466796875
1.5525146484374999
1.5492919921875
1.5533203125
1.55009765625
1.5404296874999999
1.5589599609375
1.5662109375
1.574267578125
1.587158203125
1.6008544921874999
1.6048828124999999
1.6081054687499998
1.6000488281249998
1.5984375
1.5895751953125
1.5726562499999999
1.5637939453124998
1.5686279296874999
1.5670166015625
1.554931640625
1.5428466796875
1.5331787109375
1.5396240234374998
1.5315673828124998
1.5235107421874998
1.53076171875
1.5315673828124998
1.5218994140625
1.5090087890625
1.50498046875
1.4977294921875
1.4832275390624998
1.48564453125
1.4791992187499998
1.4945068359375
1.5017578125
1.509814453125
1.5138427734375
1.5235107421874998
1.5275390624999998
1.538818359375
1.542041015625
1.545263671875
1.5476806640624998
1.5533203125
1.5492919921875
1.5589599609375
1.561376953125
1.571044921875
1.58232421875
1.58232421875
1.5968261718749999
1.609716796875
1.6129394531249999
1.5992431640625
1.5984375
1.587158203125
1.577490234375
1.5597656249999998
1.5533203125
1.5492919921875
1.5533203125
1.545263671875
1.5517089843749998
1.5380126953125
1.5323730468749999
1.533984375
1.533984375
1.53076171875
1.5186767578125
1.5146484375
1.5009521484375
1.4993408203124998
1.4912841796874998
1.4800048828124999
1.48564453125
1.4896728515625
1.496923828125
1.5025634765625
1.5082031249999999
1.52109375
1.5355957031249998
1.529150390625
1.5412353515625
1.5509033203125
1.5492919921875
1.5517089843749998
1.5589599609375
1.5460693359375
1.5557373046874998
1.5678222656249998
1.5791015625
1.5863525390625
1.5911865234375
1.606494140625
1.6105224609375
1.6105224609375
1.593603515625
1.5863525390625
1.5726562499999999
1.571044921875
1.5621826171875
1.5541259765625
1.554931640625
1.5380126953125
1.5355957031249998
1.5323730468749999
1.53076171875
1.5299560546875
1.533984375
1.5364013671874999
1.5235107421874998
1.513037109375
1.5057861328125
1.5001464843749999
1.490478515625
1.4832275390624998
1.4791992187499998
1.4912841796874998
1.5009521484375
1.5017578125
1.513037109375
1.5186767578125
1.5299560546875
1.533984375
1.5460693359375
1.5436523437499998
1.5428466796875
1.5541259765625
1.5557373046874998
1.5565429687499999
1.5509033203125
1.5637939453124998
1.5750732421875
1.59521484375
1.6000488281249998
1.5984375
1.6048828124999999
1.603271484375
1.6000488281249998
1.590380859375
1.5791015625
1.571044921875
1.571044921875
1.5436523437499998
1.5517089843749998
1.5428466796875
1.5412353515625
1.5396240234374998
1.5355957031249998
1.5331787109375
1.5315673828124998
1.5283447265624999
1.5243164062499999
1.509814453125
1.5057861328125
1.5001464843749999
1.4888671875
1.4783935546875
1.4767822265625
1.4840332031249999
1.4993408203124998
1.5041748046874999
1.5122314453124999
1.5218994140625
1.5235107421874998
1.5299560546875
1.538818359375
1.5444580078124999
1.5525146484374999
1.5517089843749998
1.554931640625
1.5597656249999998
1.554931640625
1.5597656249999998
1.5718505859374998
1.5863525390625
1.5927978515624999
1.6072998046875
1.6024658203125
1.6089111328124999
1.6000488281249998
1.5863525390625
1.5895751953125
1.5678222656249998
1.5589599609375
1.5573486328125
1.5476806640624998
1.5444580078124999
1.5404296874999999
1.538818359375
1.5299560546875
1.5347900390625
1.5331787109375
1.5299560546875
1.5162597656249999
1.509814453125
1.5090087890625
1.4961181640624999
1.4912841796874998
1.4896728515625
1.480810546875
1.4888671875
1.4945068359375
1.509814453125
1.5057861328125
1.5146484375
1.5380126953125
1.5412353515625
1.5412353515625
1.5380126953125
1.55009765625
1.5476806640624998
1.5557373046874998
1.5533203125
1.5509033203125
1.558154296875
1.56943359375
1.5815185546875
1.59521484375
1.60166015625
1.611328125
1.609716796875
1.5968261718749999
1.5887695312499999
1.58232421875
1.574267578125
1.5678222656249998
1.5517089843749998
1.5517089843749998
1.5428466796875
1.53720703125
1.5364013671874999
1.5436523437499998
1.533984375
1.5380126953125
1.529150390625
1.5243164062499999
1.5186767578125
1.509814453125
1.4961181640624999
1.4928955078125
1.482421875
1.4816162109375
1.4864501953125
1.4920898437499999
1.4993408203124998
1.5106201171875
1.5194824218749998
1.53076171875
1.5283447265624999
1.5396240234374998
1.5476806640624998
1.554931640625
1.5541259765625
1.5573486328125
1.5533203125
1.5541259765625
1.558154296875
1.571044921875
1.5807128906249999
1.5927978515624999
1.6000488281249998
1.606494140625
1.6048828124999999
1.5976318359375
1.5879638671874998
1.5831298828125
1.5718505859374998
1.5597656249999998
1.561376953125
1.5573486328125
1.5484863281249999
1.53720703125
1.545263671875
1.5275390624999998
1.5331787109375
1.4542236328125
1.5299560546875
1.5315673828124998
1.51787109375
1.5057861328125
1.4928955078125
1.49853515625
1.4848388671875
1.4840332031249999
1.4832275390624998
1.4864501953125
1.5017578125
1.5114257812499998
1.51787109375
1.52109375
1.5299560546875
1.542041015625
1.546875
1.546875
1.5396240234374998
1.5509033203125
1.561376953125
1.5541259765625
1.5573486328125
1.5702392578125
1.5758789062499998
1.5944091796875
1.6000488281249998
1.6089111328124999
1.611328125
1.60166015625
1.590380859375
1.5839355468749998
1.5807128906249999
1.5605712890624999
1.5573486328125
1.5460693359375
1.542041015625
1.5412353515625
1.53720703125
1.5412353515625
1.533984375
1.5299560546875
1.5364013671874999
1.5267333984375
1.5218994140625
1.5114257812499998
1.5001464843749999
1.493701171875
1.490478515625
1.4928955078125
1.4896728515625
1.4928955078125
1.5001464843749999
1.5146484375
1.509814453125
1.5170654296875
1.5364013671874999
1.5396240234374998
1.5412353515625
1.5428466796875
1.55009765625
1.561376953125
1.5565429687499999
1.546875
1.5541259765625
1.5718505859374998
1.5782958984375
1.590380859375
1.6000488281249998
1.6008544921874999
1.6081054687499998
1.5992431640625
1.5919921874999998
1.5815185546875
1.5686279296874999
1.5686279296874999
1.5654052734375
1.5525146484374999
1.55009765625
1.5396240234374998
1.533984375
1.53076171875
1.5331787109375
1.5275390624999998
1.53720703125
1.53076171875
1.51787109375
1.5114257812499998
1.4977294921875
1.4953124999999998
1.4912841796874998
1.4751708984374998
1.4888671875
1.4864501953125
1.496923828125
1.5090087890625
1.5186767578125
1.5235107421874998
1.5299560546875
1.5380126953125
1.5404296874999999
1.5484863281249999
1.55009765625
1.5589599609375
1.5517089843749998
1.5517089843749998
1.5621826171875
1.571044921875
1.574267578125
1.5879638671874998
1.5968261718749999
1.5968261718749999
1.6161621093749998
1.5944091796875
1.5887695312499999
1.587158203125
1.5686279296874999
1.5702392578125
1.5621826171875
1.561376953125
1.5428466796875
1.5476806640624998
1.5364013671874999
1.5355957031249998
1.5347900390625
1.533984375
1.5355957031249998
1.5275390624999998
1.5170654296875
1.5073974609374998
1.5017578125
1.493701171875
1.490478515625
1.4896728515625
1.4961181640624999
1.4888671875
1.5009521484375
1.509814453125
1.5146484375
1.5194824218749998
1.525927734375
1.5364013671874999
1.542041015625
1.5509033203125
1.5476806640624998
1.554931640625
1.5476806640624998
1.5476806640624998
1.56943359375
1.5766845703124999
1.5782958984375
1.590380859375
1.593603515625
1.606494140625
1.609716796875
1.6048828124999999
1.5911865234375
1.5750732421875
1.5726562499999999
1.56943359375
1.5702392578125
1.5492919921875
1.545263671875
1.542041015625
1.5380126953125
1.53720703125
1.525927734375
1.5347900390625
1.5267333984375
1.5275390624999998
1.5138427734375
1.5114257812499998
1.506591796875
1.4961181640624999
1.493701171875
1.4896728515625
1.4880615234374999
1.4912841796874998
1.5009521484375
1.4993408203124998
1.52109375
1.52109375
1.5267333984375
1.53076171875
1.5509033203125
1.5436523437499998
1.546875
1.5533203125
1.5541259765625
1.5533203125
1.5533203125
1.56943359375
1.5750732421875
1.590380859375
1.5927978515624999
1.6024658203125
1.6161621093749998
1.6024658203125
1.593603515625
1.5895751953125
1.5766845703124999
1.5678222656249998
1.561376953125
1.5533203125
1.5444580078124999
1.5509033203125
1.5436523437499998
1.542041015625
1.5267333984375
1.5412353515625
1.5243164062499999
1.5283447265624999
1.5186767578125
1.5138427734375
1.5033691406249998
1.5001464843749999
1.4961181640624999
1.477587890625
1.480810546875
1.4832275390624998
1.5009521484375
1.5001464843749999
1.5122314453124999
1.52109375
1.5355957031249998
1.538818359375
1.538818359375
1.5412353515625
1.5484863281249999
1.5557373046874998
1.5557373046874998
1.55009765625
1.5541259765625
1.571044921875
1.5766845703124999
1.5895751953125
1.5919921874999998
1.6040771484374998
1.6121337890624998
1.606494140625
1.593603515625
1.5887695312499999
1.5839355468749998
1.5670166015625
1.5670166015625
1.5565429687499999
1.55009765625
1.542041015625
1.53720703125
1.5364013671874999
1.5355957031249998
1.5364013671874999
1.5283447265624999
1.533984375
1.5186767578125
1.5170654296875
1.5041748046874999
1.4993408203124998
1.493701171875
1.48564453125
1.48564453125
1.482421875
1.493701171875
1.5090087890625
1.5186767578125
1.525927734375
1.525927734375
1.5331787109375
1.5331787109375
1.55009765625
1.5484863281249999
1.5565429687499999
1.5525146484374999
1.558154296875
1.5589599609375
1.5621826171875
1.5718505859374998
1.5807128906249999
1.5960205078124998
1.5879638671874998
1.6040771484374998
1.6081054687499998
1.593603515625
1.590380859375
1.574267578125
1.5702392578125
1.5637939453124998
1.56298828125
1.55009765625
1.545263671875
1.5436523437499998
1.5315673828124998
1.5299560546875
1.5355957031249998
1.5355957031249998
1.5331787109375
1.522705078125
1.5138427734375
1.5073974609374998
1.49853515625
1.4928955078125
1.480810546875
1.4912841796874998
1.4896728515625
1.4872558593749998
1.5033691406249998
1.5082031249999999
1.522705078125
1.533984375
1.529150390625
1.5428466796875
1.5428466796875
1.5476806640624998
1.546875
1.55009765625
1.5605712890624999
1.5517089843749998
1.5621826171875
1.5645996093749999
1.58232421875
1.5992431640625
1.60166015625
1.606494140625
1.606494140625
1.5944091796875
1.5927978515624999
1.5807128906249999
1.5734619140625
1.5678222656249998
1.5573486328125
1.5436523437499998
1.5476806640624998
1.533984375
1.5476806640624998
1.5299560546875
1.5364013671874999
1.5315673828124998
1.5355957031249998
1.5122314453124999
1.5146484375
1.5033691406249998
1.5001464843749999
1.4912841796874998
1.4840332031249999
1.4848388671875
1.48564453125
1.493701171875
1.5017578125
1.5146484375
1.522705078125
1.538818359375
1.5315673828124998
1.5444580078124999
1.5484863281249999
1.5573486328125
1.5557373046874998
1.546875
1.5517089843749998
1.5484863281249999
1.5541259765625
1.5791015625
1.5879638671874998
1.5927978515624999
1.5968261718749999
1.5984375
1.6129394531249999
1.5968261718749999
1.5992431640625
1.5839355468749998
1.5734619140625
1.5662109375
1.5517089843749998
1.5517089843749998
1.5533203125
1.5476806640624998
1.5347900390625
1.5275390624999998
1.5283447265624999
1.53720703125
1.53076171875
1.5218994140625
1.51787109375
1.5106201171875
1.506591796875
1.4896728515625
1.4953124999999998
1.4840332031249999
1.4945068359375
1.4993408203124998
1.4961181640624999
1.5122314453124999
1.5194824218749998
1.525927734375
1.533984375
1.5404296874999999
1.542041015625
1.5484863281249999
1.5517089843749998
1.5517089843749998
1.5597656249999998
1.5573486328125
1.5597656249999998
1.5734619140625
1.5799072265624998
1.5911865234375
1.5960205078124998
1.6072998046875
1.6056884765625
1.60166015625
1.6000488281249998
1.574267578125
1.5766845703124999
1.5589599609375
1.5533203125
1.5444580078124999
1.5436523437499998
1.538818359375
1.5315673828124998
1.5331787109375
1.53076171875
1.5283447265624999
1.545263671875
1.529150390625
1.5146484375
1.5073974609374998
1.5009521484375
1.4993408203124998
1.4848388671875
1.4864501953125
1.4864501953125
1.4928955078125
1.5001464843749999
1.50498046875
1.5162597656249999
1.533984375
1.5299560546875
1.5460693359375
1.546875
1.546875
1.554931640625
1.546875
1.5573486328125
1.5380126953125
1.561376953125
1.577490234375
1.5766845703124999
1.587158203125
1.60166015625
1.6048828124999999
1.609716796875
1.5919921874999998
1.5960205078124998
1.5791015625
1.5734619140625
1.5621826171875
1.5605712890624999
1.5517089843749998
1.546875
1.545263671875
1.5380126953125
1.5364013671874999
1.5331787109375
1.5275390624999998
1.5251220703125
1.5251220703125
1.5162597656249999
1.5162597656249999
1.5017578125
1.490478515625
1.5001464843749999
1.4800048828124999
1.474365234375
1.4888671875
1.4928955078125
1.5057861328125
1.5202880859374999
1.5275390624999998
1.5275390624999998
1.538818359375
1.542041015625
1.5541259765625
1.545263671875
1.5541259765625
1.5557373046874998
1.5404296874999999
1.5533203125
1.5670166015625
1.5726562499999999
1.58232421875
1.5911865234375
1.6048828124999999
1.611328125
1.5984375
1.5927978515624999
1.5960205078124998
1.5799072265624998
1.5831298828125
1.58232421875
1.5815185546875
1.5533203125
1.5331787109375
1.5283447265624999
1.5235107421874998
1.5251220703125
1.5355957031249998
1.53720703125
1.5299560546875
1.5267333984375
1.5202880859374999
1.49853515625
1.4783935546875
1.482421875
1.4864501953125
1.4840332031249999
1.480810546875
1.4928955078125
1.5154541015624998
1.5186767578125
1.5267333984375
1.5283447265624999
1.5460693359375
1.554931640625
1.5517089843749998
1.5460693359375
1.5645996093749999
1.5654052734375
1.5412353515625
1.5484863281249999
1.5533203125
1.5758789062499998
1.593603515625
1.59521484375
1.6121337890624998
1.6105224609375
1.6024658203125
1.59521484375
1.58232421875
1.5815185546875
1.5815185546875
1.5517089843749998
1.546875
1.5492919921875
1.5436523437499998
1.538818359375
1.5347900390625
1.5299560546875
1.529150390625
1.53076171875
1.529150390625
1.5235107421874998
1.5162597656249999
1.5041748046874999
1.4864501953125
1.4791992187499998
1.4751708984374998
1.4783935546875
1.4920898437499999
1.5033691406249998
1.5082031249999999
1.51787109375
1.5299560546875
1.5299560546875
1.538818359375
1.55009765625
1.5444580078124999
1.5509033203125
1.5573486328125
1.5533203125
1.5476806640624998
1.5597656249999998
1.5670166015625
1.577490234375
1.585546875
1.59521484375
1.5992431640625
1.6081054687499998
1.5895751953125
1.5960205078124998
1.590380859375
1.5766845703124999
1.56943359375
1.5702392578125
1.5517089843749998
1.5364013671874999
1.5355957031249998
1.5323730468749999
1.545263671875
1.545263671875
1.5444580078124999
1.5364013671874999
1.529150390625
1.5082031249999999
1.513037109375
1.5138427734375
1.5041748046874999
1.4896728515625
1.46630859375
1.4816162109375
1.474365234375
1.4872558593749998
1.5033691406249998
1.5194824218749998
1.53076171875
1.5484863281249999
1.5670166015625
1.558154296875
1.533984375
1.53720703125
1.5444580078124999
1.554931640625
1.5654052734375
1.56298828125
1.558154296875
1.5670166015625
1.587158203125
1.5895751953125
1.6048828124999999
1.61455078125
1.5984375
1.5968261718749999
1.587158203125
1.5686279296874999
1.5702392578125
1.56298828125
1.55009765625
1.5460693359375
1.5299560546875
1.5243164062499999
1.525927734375
1.5283447265624999
1.525927734375
1.525927734375
1.5283447265624999
1.51787109375
1.5106201171875
1.5146484375
1.5073974609374998
1.5114257812499998
1.5082031249999999
1.493701171875
1.48564453125
1.50498046875
1.5073974609374998
1.5114257812499998
1.5299560546875
1.52109375
1.538818359375
1.5404296874999999
1.542041015625
1.5380126953125
1.545263671875
1.56298828125
1.593603515625
1.58232421875
1.5444580078124999
1.55009765625
1.5758789062499998
1.585546875
1.5831298828125
1.6161621093749998
1.6072998046875
1.5984375
1.5879638671874998
1.5621826171875
1.5662109375
1.577490234375
1.5702392578125
1.5960205078124998
1.55009765625
1.5251220703125
1.5146484375
1.522705078125
1.5162597656249999
1.5146484375
1.5218994140625
1.5106201171875
1.4953124999999998
1.5009521484375
1.5323730468749999
1.5541259765625
1.4783935546875
1.4711425781249998
1.46953125
1.4953124999999998
1.5017578125
1.5073974609374998
1.522705078125
1.5597656249999998
1.58232421875
1.5662109375
1.5662109375
1.5364013671874999
1.546875
1.5718505859374998
1.5492919921875
1.5726562499999999
1.5758789062499998
1.5734619140625
1.574267578125
1.5895751953125
1.5960205078124998
1.5960205078124998
1.609716796875
1.6040771484374998
1.5960205078124998
1.5718505859374998
1.561376953125
1.5380126953125
1.5444580078124999
1.5517089843749998
1.5436523437499998
1.542041015625
1.5412353515625
1.5621826171875
1.5428466796875
1.5404296874999999
1.533984375
1.5283447265624999
1.5146484375
1.5146484375
1.4896728515625
1.4864501953125
1.4759765624999999
1.48564453125
1.4928955078125
1.4961181640624999
1.5057861328125
1.5186767578125
1.5194824218749998
1.525927734375
1.53076171875
1.5355957031249998
1.5637939453124998
1.5525146484374999
1.5331787109375
1.5355957031249998
1.5541259765625
1.5509033203125
1.56298828125
1.5573486328125
1.585546875
1.593603515625
1.5984375
1.6089111328124999
1.6072998046875
1.60166015625
1.59521484375
1.593603515625
1.5887695312499999
1.5799072265624998
1.5541259765625
1.542041015625
1.5364013671874999
1.5364013671874999
1.5404296874999999
1.5436523437499998
1.5170654296875
1.5162597656249999
1.51787109375
1.5138427734375
1.5057861328125
1.522705078125
1.5267333984375
1.5106201171875
1.5009521484375
1.4912841796874998
1.4953124999999998
1.4864501953125
1.474365234375
1.482421875
1.4928955078125
1.5146484375
1.5202880859374999
1.5541259765625
1.5605712890624999
1.5557373046874998
1.5702392578125
1.5670166015625
1.5621826171875
1.56943359375
1.56943359375
1.571044921875
1.5597656249999998
1.5831298828125
1.5976318359375
1.606494140625
1.5919921874999998
1.5879638671874998
1.5919921874999998
1.5847412109374999
1.5686279296874999
1.5597656249999998
1.5654052734375
1.5718505859374998
1.542041015625
1.5396240234374998
1.5541259765625
1.5509033203125
1.5380126953125
1.533984375
1.5476806640624998
1.533984375
1.5146484375
1.513037109375
1.4920898437499999
1.4993408203124998
1.4888671875
1.4590576171874998
1.4606689453125
1.4671142578124998
1.4872558593749998
1.4977294921875
1.5202880859374999
1.5267333984375
1.5275390624999998
1.5364013671874999
1.554931640625
1.5702392578125
1.5879638671874998
1.5645996093749999
1.5911865234375
1.638720703125
1.6201904296874998
1.6024658203125
1.5919921874999998
1.5605712890624999
1.5702392578125
1.5573486328125
1.5831298828125
1.5791015625
1.5863525390625
1.5670166015625
1.5686279296874999
1.5492919921875
1.545263671875
1.5331787109375
1.5428466796875
1.5605712890624999
1.5766845703124999
1.5637939453124998
1.5404296874999999
1.5589599609375
1.5662109375
1.5299560546875
1.5033691406249998
1.522705078125
1.5299560546875
1.5235107421874998
1.4896728515625
1.4598632812499999
1.480810546875
1.4816162109375
1.4888671875
1.490478515625
1.5218994140625
1.5235107421874998
1.53076171875
1.546875
1.5565429687499999
1.5299560546875
1.5243164062499999
1.538818359375
1.5686279296874999
1.5557373046874998
1.5645996093749999
1.5863525390625
1.5782958984375
1.58232421875
1.6161621093749998
1.6346923828125
1.6234130859375
1.5839355468749998
1.6209960937499999
1.6185791015625
1.5702392578125
1.5404296874999999
1.5444580078124999
1.5492919921875
1.5492919921875
1.5428466796875
1.542041015625
1.5460693359375
1.5331787109375
1.5315673828124998
1.52109375
1.51787109375
1.525927734375
1.5323730468749999
1.5170654296875
1.5025634765625
1.4735595703125
1.4759765624999999
1.46630859375
1.482421875
1.4945068359375
1.5033691406249998
1.5073974609374998
1.52109375
1.5251220703125
1.5299560546875
1.5557373046874998
1.5396240234374998
1.55009765625
1.5718505859374998
1.58232421875
1.5734619140625
1.5766845703124999
1.5791015625
1.5782958984375
1.5839355468749998
1.6008544921874999
1.5976318359375
1.5976318359375
1.5509033203125
1.5791015625
1.5839355468749998
1.5766845703124999
1.5662109375
1.56298828125
1.5565429687499999
1.558154296875
1.5597656249999998
1.5460693359375
1.533984375
1.5267333984375
1.5235107421874998
1.5194824218749998
1.522705078125
1.5170654296875
1.513037109375
1.5073974609374998
1.5041748046874999
1.490478515625
1.4872558593749998
1.4864501953125
1.4791992187499998
1.51787109375
1.50498046875
1.5090087890625
1.5323730468749999
1.5702392578125
1.5637939453124998
1.5492919921875
1.5436523437499998
1.554931640625
1.561376953125
1.56943359375
1.571044921875
1.5436523437499998
1.5355957031249998
1.545263671875
1.5678222656249998
1.5799072265624998
1.5887695312499999
1.5968261718749999
1.6298583984375
1.6242187499999998
1.606494140625
1.6089111328124999
1.6056884765625
1.5331787109375
1.51787109375
1.5347900390625
1.5484863281249999
1.5138427734375
1.5154541015624998
1.5436523437499998
1.5404296874999999
1.5283447265624999
1.5275390624999998
1.5146484375
1.5106201171875
1.4993408203124998
1.4896728515625
1.4977294921875
1.4912841796874998
1.4630859374999998
1.461474609375
1.4751708984374998
1.4896728515625
1.5194824218749998
1.5331787109375
1.5589599609375
1.577490234375
1.5364013671874999
1.55009765625
1.5791015625
1.5404296874999999
1.5162597656249999
1.5355957031249998
1.5525146484374999
1.561376953125
1.58232421875
1.5799072265624998
1.585546875
1.585546875
1.590380859375
1.6000488281249998
1.6040771484374998
1.6105224609375
1.5879638671874998
1.574267578125
1.574267578125
1.587158203125
1.5702392578125
1.542041015625
1.5299560546875
1.5509033203125
1.5484863281249999
1.5323730468749999
1.529150390625
1.5331787109375
1.5283447265624999
1.50498046875
1.482421875
1.4735595703125
1.4832275390624998
1.4840332031249999
1.474365234375
1.4751708984374998
1.48564453125
1.51787109375
1.52109375
1.4840332031249999
1.5017578125
1.5283447265624999
1.558154296875
1.5799072265624998
1.5879638671874998
1.5791015625
1.593603515625
1.5911865234375
1.577490234375
1.522705078125
1.5017578125
1.525927734375
1.5670166015625
1.6314697265625
1.6242187499999998
1.5645996093749999
1.5791015625
1.590380859375
1.5976318359375
1.5702392578125
1.5815185546875
1.5662109375
1.5380126953125
1.5331787109375
1.5154541015624998
1.5251220703125
1.5347900390625
1.533984375
1.561376953125
1.5863525390625
1.5509033203125
1.5146484375
1.5025634765625
1.4759765624999999
1.48564453125
1.490478515625
1.5017578125
1.5114257812499998
1.4928955078125
1.4977294921875
1.5001464843749999
1.5090087890625
1.5355957031249998
1.5541259765625
1.561376953125
1.5509033203125
1.5670166015625
1.577490234375
1.5533203125
1.529150390625
1.5275390624999998
1.5517089843749998
1.5718505859374998
1.5758789062499998
1.5605712890624999
1.577490234375
1.6000488281249998
1.6008544921874999
1.5847412109374999
1.60166015625
1.5919921874999998
1.590380859375
1.6024658203125
1.5895751953125
1.5847412109374999
1.577490234375
1.5106201171875
1.380908203125
1.4864501953125
1.5194824218749998
1.5243164062499999
1.525927734375
1.52109375
1.529150390625
1.5299560546875
1.51787109375
1.4800048828124999
1.4751708984374998
1.47275390625
1.4880615234374999
1.48564453125
1.50498046875
1.513037109375
1.4638916015624999
1.5114257812499998
1.5533203125
1.542041015625
1.5726562499999999
1.5863525390625
1.5919921874999998
1.561376953125
1.5509033203125
1.5404296874999999
1.5645996093749999
1.585546875
1.6008544921874999
1.60166015625
1.6024658203125
1.5847412109374999
1.6024658203125
1.6137451171875
1.6089111328124999
1.587158203125
1.585546875
1.5847412109374999
1.5799072265624998
1.56943359375
1.5621826171875
1.5460693359375
1.5517089843749998
1.5436523437499998
1.5533203125
1.5645996093749999
1.5492919921875
1.5380126953125
1.5364013671874999
1.5299560546875
1.5243164062499999
1.5009521484375
1.480810546875
1.4928955078125
1.5057861328125
1.4920898437499999
1.5267333984375
1.4461669921875
1.4848388671875
1.587158203125
1.571044921875
1.5017578125
1.51787109375
1.55009765625
1.5686279296874999
1.5670166015625
1.5686279296874999
1.5726562499999999
1.5557373046874998
1.5758789062499998
1.5847412109374999
1.5984375
1.5944091796875
1.6209960937499999
1.6322753906249998
1.6242187499999998
1.6089111328124999
1.6185791015625
1.6306640625
1.8046875
1.6749755859375
1.603271484375
1.5831298828125
1.59521484375
1.5605712890624999
1.5243164062499999
1.525927734375
1.50498046875
2.6941406249999997
2.592626953125
1.9408447265625
1.6935058593749999
1.5702392578125
1.5082031249999999
1.4550292968749998
1.4252197265625
1.4244140625
1.4091064453125
1.384130859375
1.3599609375
1.3704345703124998
1.400244140625
1.4252197265625
1.426025390625
1.4437499999999999
1.4332763671875
1.445361328125
1.448583984375
1.4759765624999999
1.4469726562499998
1.49853515625
1.493701171875
1.5017578125
1.5138427734375
1.5299560546875
1.5460693359375
1.545263671875
1.53720703125
1.53720703125
1.525927734375
1.5082031249999999
1.5146484375
1.496923828125
1.480810546875
1.4848388671875
1.4993408203124998
1.529150390625
1.5364013671874999
1.542041015625
1.5347900390625
1.5299560546875
1.5146484375
1.5073974609374998
1.4848388671875
1.4687255859375
1.464697265625
1.4574462890625
1.480810546875
1.46630859375
1.4638916015624999
1.482421875
1.490478515625
1.490478515625
1.5106201171875
1.51787109375
1.5654052734375
1.525927734375
1.5645996093749999
1.56943359375
1.56943359375
1.5323730468749999
1.5251220703125
1.5670166015625
1.571044921875
1.5621826171875
1.574267578125
1.5863525390625
1.5992431640625
1.603271484375
1.5879638671874998
1.574267578125
1.58232421875
1.58232421875
1.5509033203125
1.5645996093749999
1.5364013671874999
1.5436523437499998
1.538818359375
1.509814453125
1.5073974609374998
1.5396240234374998
1.5444580078124999
1.5919921874999998
1.56943359375
1.546875
1.525927734375
1.49853515625
1.4719482421874999
1.456640625
1.4832275390624998
1.4783935546875
1.4832275390624998
1.5146484375
1.5315673828124998
1.5090087890625
1.5090087890625
1.5243164062499999
1.545263671875
1.5557373046874998
1.5686279296874999
1.5637939453124998
1.5734619140625
1.5476806640624998
1.5380126953125
1.5380126953125
1.5984375
1.5927978515624999
1.554931640625
1.5839355468749998
1.6169677734374999
1.6612792968749999
1.658056640625
1.6322753906249998
1.5678222656249998
1.5404296874999999
1.5355957031249998
1.5275390624999998
1.606494140625
1.6475830078125
1.545263671875
1.55009765625
1.5533203125
1.5484863281249999
1.513037109375
1.5686279296874999
1.62744140625
1.558154296875
1.5235107421874998
1.50498046875
1.4816162109375
1.4630859374999998
1.4759765624999999
1.5025634765625
1.5460693359375
1.5509033203125
1.5863525390625
1.5960205078124998
1.6282470703124998
1.6290527343749999
1.6314697265625
1.670947265625
1.6781982421875
1.6749755859375
1.5686279296874999
1.5009521484375
1.4252197265625
1.4558349609374999
1.4606689453125
1.48564453125
1.509814453125
1.5517089843749998
1.529150390625
1.5251220703125
1.522705078125
1.513037109375
1.5235107421874998
1.5243164062499999
1.5162597656249999
1.5275390624999998
1.5122314453124999
1.53076171875
1.5251220703125
1.496923828125
1.4977294921875
1.5154541015624998
1.5009521484375
1.5267333984375
1.545263671875
1.5073974609374998
1.496923828125
1.4832275390624998
1.4558349609374999
1.4469726562499998
1.45341796875
1.4510009765624998
1.4493896484375
1.4679199218749999
1.513037109375
1.5186767578125
1.5621826171875
1.558154296875
1.5460693359375
1.5275390624999998
1.5347900390625
1.5791015625
1.5605712890624999
1.5106201171875
1.4703369140625
1.4880615234374999
1.6153564453125
1.5919921874999998
1.6177734375
1.6242187499999998
1.61455078125
1.662890625
1.6105224609375
1.5791015625
1.409912109375
1.4912841796874998
1.5645996093749999
1.5686279296874999
1.5984375
1.5678222656249998
1.5380126953125
1.5146484375
1.5154541015624998
1.5364013671874999
1.5194824218749998
1.5605712890624999
1.9730712890625
1.9086181640625
1.687060546875
1.558154296875
1.3188720703124999
1.2447509765625
1.1029541015625
1.0505859375
1.0836181640625
1.2624755859374999
1.5275390624999998
1.67900390625
1.7152587890625
1.7531249999999998
1.7901855468749999
1.6218017578125
1.59521484375
1.5202880859374999
1.5404296874999999
1.4920898437499999
1.3333740234375
1.0965087890625
1.1190673828125
1.3865478515624998
1.5428466796875
1.7845458984375
1.9279541015625
2.384765625
2.43310546875
2.3009765625
1.998046875
1.6330810546874999
1.3309570312499999
1.1061767578125
1.0755615234375
1.1625732421875
1.2826171874999999
1.4800048828124999
1.6363037109374998
1.6910888671875
1.6991455078125
1.6024658203125
1.9142578124999998
1.9279541015625
1.8739746093749998
1.6475830078125
1.480810546875
1.24716796875
0.992578125
0.82177734375
0.6952880859374999
0.708984375
0.636474609375
0.5953857421875
0.71865234375
0.8000244140624999
0.8427246093749999
1.1335693359374999
1.2044677734375
1.3075927734375
1.558154296875
1.65966796875
1.832080078125
1.3607666015625
1.2689208984375
1.1996337890625
1.1577392578124999
1.1931884765625
1.3897705078125
1.7781005859374999
2.2349121093749997
2.5112548828124996
2.727978515625
2.9156982421874997
2.9922363281249997
2.9334228515625
2.7513427734375
2.6103515625
2.4564697265624997
2.2840576171875
2.1213134765625
1.9593749999999999
1.8393310546875
1.7748779296875
2.0794189453125
2.102783203125
2.112451171875
2.1205078125
2.0423583984375
1.9303710937499998
1.651611328125
1.2238037109375
0.8983154296875
0.6356689453125
0.3343505859375
0.217529296875
0.18449707031249998
0.217529296875
0.281982421875
0.33515625
0.3746337890625
0.3826904296875
0.517236328125
0.68642578125
0.849169921875
0.46164550781249997
0.38107910156249997
0.3343505859375
0.37705078124999997
0.46728515625
0.7001220703125
1.168212890625
1.7176757812499999
2.0439697265625
2.3952392578125
2.6200195312499996
2.8544677734375
2.8794433593749997
3.0043212890624997
3.043798828125
2.98095703125
2.9978759765625
2.784375
2.7328124999999996
2.5966552734375
2.470166015625
2.6594970703125
2.8294921874999996
2.8447998046875
2.8576904296874996
2.7980712890625
2.5877929687499996
2.257470703125
1.9013671875
1.5106201171875
1.058642578125
0.765380859375
0.5470458984375
0.39396972656249996
0.2827880859375
0.16838378906249998
0.0072509765625
0.0717041015625
0.095068359375
0.2022216796875
0.3101806640625
0.3746337890625
0.1168212890625
0.04189453125
0.040283203125
0.037060546874999996
0.037060546874999996
0.20866699218749998
0.591357421875
1.110205078125
1.6008544921874999
1.9706542968749998
2.205908203125
2.4202148437499997
2.6764160156249996
2.7207275390624996
2.850439453125
2.9036132812499997
2.9455078125
2.8738037109374996
2.892333984375
2.7481201171875
2.6377441406249997
2.7247558593749996
3.02607421875
3.0446044921874997
3.0429931640624996
3.043798828125
2.9092529296875
2.6014892578124997
2.19140625
1.7450683593749998
1.4195800781249999
1.187548828125
0.8757568359375
0.6171386718749999
0.443115234375
0.298095703125
0.18046874999999998
0.2054443359375
0.24169921875
0.2634521484375
0.30615234375
0.39719238281249997
0.10634765624999999
0.043505859375
0.040283203125
0.0394775390625
0.0910400390625
0.18449707031249998
0.3262939453125
1.0505859375
1.464697265625
1.8256347656249998
2.1487060546875
2.405712890625
2.5515380859374996
2.640966796875
2.8061279296875
2.9414794921875
2.9704833984374996
2.8899169921874996
2.771484375
2.6885009765624996
2.5370361328124997
2.5845703125
2.882666015625
2.9181152343749996
3.0421875
3.0301025390625
2.96162109375
2.5789306640625
2.2872802734374997
1.925537109375
1.587158203125
1.18916015625
0.9901611328125
0.7178466796874999
0.515625
0.439892578125
0.39719238281249997
0.33354492187499996
0.3101806640625
0.3101806640625
0.356103515625
0.42539062499999997
0.26748046875
0.040283203125
0.040283203125
0.0394775390625
0.0459228515625
0.12568359375
0.40122070312499997
0.8830078124999999
1.2898681640624998
1.7362060546875
1.9078125
2.1205078125
2.2937255859375
2.5031982421874996
2.5338134765625
2.6683593749999996
2.5531494140624997
2.586181640625
2.5612060546874997
2.6288818359375
2.5636230468749996
2.4870849609374996
2.914892578125
3.0478271484375
3.0462158203125
3.043798828125
2.9366455078125
2.8149902343749997
2.5168945312499997
2.0165771484375
1.6475830078125
1.3825195312499998
1.1222900390625
0.8902587890625
0.6904541015625
0.5277099609375
0.47856445312499996
0.40605468749999996
0.46164550781249997
0.476953125
0.37060546875
0.42539062499999997
0.4954833984375
0.040283203125
0.040283203125
0.040283203125
0.04189453125
0.0910400390625
0.22719726562499998
0.6743408203125
1.200439453125
1.4872558593749998
1.719287109375
1.960986328125
2.1245361328125
2.1938232421875
2.302587890625
2.4202148437499997
2.5418701171875
2.52978515625
2.5410644531249997
2.55234375
2.5410644531249997
2.4661376953125
2.8858886718749996
3.0397705078125
3.0478271484375
3.043798828125
3.0429931640624996
2.8995849609374997
2.5048095703124997
2.1140624999999997
1.77890625
1.5218994140625
1.09892578125
0.9015380859375
0.8016357421875
0.7001220703125
0.620361328125
0.555908203125
0.610693359375
0.5365722656249999
0.6171386718749999
0.7404052734375
0.7218749999999999
0.24733886718749998
0.043505859375
0.0394775390625
0.043505859375
0.0378662109375
0.1039306640625
0.5148193359375
0.9176513671875
1.2624755859374999
1.5194824218749998
1.77890625
1.989990234375
2.20107421875
2.334814453125
2.4298828125
2.489501953125
2.5555664062499996
2.5966552734375
2.578125
2.5289794921874997
2.4306884765625
2.8053222656249996
3.0268798828124996
3.0462158203125
3.0446044921874997
3.043798828125
2.9575927734375
2.7739013671875
2.4758056640625
1.9988525390624998
1.7531249999999998
1.4381103515625
1.1577392578124999
0.9531005859374999
0.8056640625
0.6509765624999999
0.549462890625
0.472119140625
0.4390869140625
0.472119140625
0.3843017578125
0.39638671875
0.2102783203125
0.038671874999999994
0.04189453125
0.0394775390625
0.041088867187499996
0.111181640625
0.3029296875
0.81533203125
1.2536132812499998
1.5299560546875
1.7555419921875
1.9996582031249999
2.18173828125
2.312255859375
2.3912109375
2.4564697265624997
2.4371337890625
2.4081298828124997
2.4814453125
2.4758056640625
2.4927246093749997
2.8012939453124996
2.9914306640625
3.0421875
3.0421875
3.0301025390625
2.9656494140625
2.8754150390624997
2.4226318359375
2.1084228515625
1.791796875
1.4356933593749999
1.2302490234374999
1.042529296875
0.8910644531249999
0.7460449218749999
0.572021484375
0.5663818359375
0.42941894531249997
0.5124023437499999
0.5115966796875
0.588134765625
0.18691406249999998
0.040283203125
0.0394775390625
0.041088867187499996
0.040283203125
0.043505859375
0.301318359375
0.7871337890625
1.173046875
1.4244140625
1.8626953124999999
2.0665283203125
2.1978515625
2.3315917968749997
2.425048828125
2.5636230468749996
2.52978515625
2.5515380859374996
2.5434814453124996
2.5467041015625
2.4685546874999997
2.69091796875
2.91650390625
3.001904296875
3.04541015625
3.04541015625
3.043798828125
2.8931396484375
2.592626953125
2.1906005859374997
1.786962890625
1.5186767578125
1.2906738281249999
0.9676025390624999
0.7718261718749999
0.6759521484375
0.5986083984375
0.530126953125
0.5196533203125
0.49790039062499997
0.47050781249999996
0.5526855468749999
0.3440185546875
0.050756835937499994
0.0378662109375
0.037060546874999996
0.040283203125
0.07734374999999999
0.185302734375
0.49790039062499997
0.8773681640625
1.27939453125
1.5090087890625
1.7217041015624999
2.0496093749999997
2.247802734375
2.360595703125
2.4830566406249996
2.4661376953125
2.512060546875
2.49755859375
2.5209228515624997
2.4484130859374997
2.405712890625
2.947119140625
3.0164062499999997
3.0389648437499996
3.043798828125
2.9825683593749996
2.9124755859375
2.5934326171874997
2.099560546875
1.783740234375
1.53720703125
1.3478759765625
1.1545166015625
1.0014404296875
0.81533203125
0.7549072265625
0.6405029296875
0.562353515625
0.4471435546875
0.510791015625
0.533349609375
0.47856445312499996
0.14824218749999998
0.038671874999999994
0.0378662109375
0.038671874999999994
0.0443115234375
0.0958740234375
0.6791748046874999
1.110205078125
1.4332763671875
1.65
1.931982421875
2.1003662109375
2.2107421874999997
2.3162841796875
2.4177978515625
2.466943359375
2.4749999999999996
2.4967529296874997
2.4556640625
2.4113525390625
2.3259521484375
2.7932373046874996
2.889111328125
3.0413818359375
3.043798828125
3.0429931640624996
2.9559814453124997
2.6860839843749997
2.2969482421875
2.0197998046875
1.6733642578124999
1.4236083984374999
1.248779296875
0.929736328125
0.8354736328125
0.7178466796874999
0.6791748046874999
0.6090820312499999
0.6429199218749999
0.6211669921874999
0.6260009765625
0.6711181640624999
0.17241210937499998
0.040283203125
0.042700195312499994
0.043505859375
0.0394775390625
0.0829833984375
0.43425292968749996
0.9160400390625
1.2914794921875
1.4751708984374998
1.7507080078125
1.9440673828125
2.1624023437499997
2.292919921875
2.2776123046875
2.4000732421874997
2.4242431640624997
2.4645263671874997
2.495947265625
2.4234375
2.441162109375
2.7585937499999997
2.9318115234374997
3.0421875
3.0462158203125
3.0381591796875
3.037353515625
2.7626220703124997
2.280029296875
1.9625976562499998
1.6854492187499999
1.3704345703124998
1.16015625
0.984521484375
0.8701171875
0.6888427734375
0.6388916015624999
0.5865234375
0.52529296875
0.5365722656249999
0.5365722656249999
0.6066650390625
0.1232666015625
0.042700195312499994
0.038671874999999994
0.04189453125
0.0394775390625
0.19899902343749998
0.594580078125
1.0223876953125
1.3986328124999998
1.6701416015625
1.9134521484375
2.1213134765625
2.193017578125
2.3517333984374997
2.47822265625
2.3879882812499997
2.4121582031249997
2.373486328125
2.4113525390625
2.3984619140625
2.2792236328124997
2.650634765625
2.860107421875
2.9865966796874996
3.0010986328125
3.005126953125
2.9640380859374997
2.6369384765625
2.31708984375
1.9585693359374998
1.5033691406249998
1.3108154296874999
1.0973144531249999
0.837890625
0.6840087890625
0.60263671875
0.5647705078124999
0.539794921875
0.510791015625
0.5180419921875
0.5744384765625
0.565576171875
0.207861328125
0.0394775390625
0.037060546874999996
0.0443115234375
0.04189453125
0.09426269531249999
0.1796630859375
0.8040527343749999
1.2898681640624998
1.509814453125
1.7394287109375
1.9505126953124998
2.1076171875
2.1849609375
2.2614990234375
2.43310546875
2.5072265624999996
2.553955078125
2.53623046875
2.5555664062499996
2.4983642578125
2.5885986328125
2.9978759765625
3.0478271484375
3.0462158203125
3.0462158203125
3.0325195312499997
2.900390625
2.5112548828124996
2.1583740234374997
1.8498046874999998
1.6250244140624999
1.2979248046874998
1.116650390625
1.100537109375
0.9313476562499999
0.825
0.82177734375
0.752490234375
0.7412109375
0.6936767578124999
0.6292236328124999
0.3150146484375
0.037060546874999996
0.0362548828125
0.0346435546875
0.037060546874999996
0.049145507812499996
0.11923828125
0.7323486328125
1.0884521484375
1.3559326171875
1.6459716796875
1.7603759765625
1.92392578125
2.128564453125
2.2308837890624997
2.3203125
2.3533447265625
2.3517333984374997
2.2985595703125
2.2405517578125
2.2349121093749997
2.3154785156249997
2.6844726562499996
2.8029052734374997
2.9036132812499997
2.9624267578124996
2.9463134765624996
2.7336181640625
2.5048095703124997
2.215576171875
1.8143554687499999
1.5702392578125
1.3857421875
1.216552734375
1.0167480468749999
0.9232910156249999
0.9531005859374999
0.768603515625
0.758935546875
0.7500732421874999
0.7420166015624999
0.7798828124999999
0.5776611328125
0.22719726562499998
0.0749267578125
0.040283203125
0.040283203125
0.11279296875
0.15468749999999998
0.554296875
0.8805908203124999
1.2890625
1.5396240234374998
1.706396484375
1.8820312499999998
2.0173828124999997
2.0987548828125
2.1857666015625
2.3452880859375
2.389599609375
2.4282714843749997
2.4685546874999997
2.4234375
2.3227294921875
2.727978515625
2.9640380859374997
3.043798828125
3.04541015625
3.0429931640624996
2.86494140625
2.6240478515624996
2.1277587890625
1.79501953125
1.593603515625
1.429248046875
1.1931884765625
1.0892578124999999
0.9402099609375
0.95068359375
0.862060546875
0.7702148437499999
0.6678955078125
0.62841796875
0.5478515625
0.56396484375
0.042700195312499994
0.037060546874999996
0.045117187499999996
0.0394775390625
0.0443115234375
0.0515625
0.4874267578125
1.018359375
1.3253173828125
1.5686279296874999
1.7523193359375
1.9078125
2.1052001953125
2.2751953124999997
2.4065185546875
2.4846679687499997
2.518505859375
2.495947265625
2.4927246093749997
2.5048095703124997
2.4951416015624996
2.9438964843749997
3.0421875
3.0413818359375
3.0421875
3.04541015625
2.9978759765625
2.6321044921874996
2.3195068359374997
2.023828125
1.641943359375
1.464697265625
1.2044677734375
0.942626953125
0.839501953125
0.8668945312499999
0.78310546875
0.8830078124999999
0.7734375
0.7387939453125
0.6993164062499999
0.7565185546875
0.20705566406249998
0.042700195312499994
0.0394775390625
0.0394775390625
0.038671874999999994
0.09829101562499999
0.45358886718749997
0.8427246093749999
1.126318359375
1.3639892578125
1.5436523437499998
1.7531249999999998
1.9553466796874999
2.01416015625
2.0898925781249997
2.183349609375
2.204296875
2.2679443359375
2.3565673828125
2.4129638671875
2.40732421875
2.65546875
2.9366455078125
3.0413818359375
3.0236572265625
3.0462158203125
2.9970703125
2.719921875
2.4838623046875
2.1076171875
1.848193359375
1.611328125
1.2399169921875
0.9635742187499999
0.90234375
0.7516845703124999
0.67998046875
0.646142578125
0.5768554687499999
0.604248046875
0.6340576171875
0.6654785156249999
0.33273925781249997
0.1007080078125
0.041088867187499996
0.0346435546875
0.0378662109375
0.046728515624999994
0.1861083984375
0.8467529296874999
1.224609375
1.445361328125
1.69189453125
1.9650146484375
2.0584716796875
2.183349609375
2.3323974609375
2.421826171875
2.4443847656249997
2.4693603515625
2.4830566406249996
2.441162109375
2.37509765625
2.6063232421875
2.8560791015625
3.034130859375
3.0405761718749997
3.0429931640624996
2.9761230468749997
2.753759765625
2.4451904296875
2.1374267578125
1.8151611328125
1.4115234374999999
1.2576416015624998
1.1150390625
0.9240966796875
0.7677978515624999
0.6243896484375
0.75087890625
0.620361328125
0.5534912109375
0.55107421875
0.575244140625
0.2054443359375
0.041088867187499996
0.0394775390625
0.04189453125
0.042700195312499994
0.064453125
0.278759765625
0.7726318359375
1.0610595703124999
1.477587890625
1.716064453125
1.8369140625
1.9779052734375
2.1342041015624997
2.2695556640625
2.357373046875
2.4226318359375
2.399267578125
2.431494140625
2.421826171875
2.4290771484375
2.5233398437499996
2.9044189453125
3.0446044921874997
3.04541015625
3.0446044921874997
3.037353515625
2.9922363281249997
2.719921875
2.3162841796875
2.0085205078125
1.7740722656249999
1.50498046875
1.2528076171875
1.071533203125
0.9555175781249999
0.67998046875
0.6582275390625
0.6082763671875
0.6034423828125
0.5124023437499999
0.47453613281249996
0.3391845703125
0.04189453125
0.040283203125
0.033837890625
0.04189453125
0.0362548828125
0.20705566406249998
0.7565185546875
1.14404296875
1.4719482421874999
1.6935058593749999
1.9062011718749998
2.0874755859375
2.1245361328125
2.2365234375
2.3195068359374997
2.3638183593749997
2.3597900390624997
2.3791259765625
2.4121582031249997
2.3630126953125
2.3887939453125
2.8633300781249997
3.0421875
3.0421875
3.043798828125
3.003515625
2.8915283203124997
2.5732910156249997
2.27197265625
1.9134521484375
1.5194824218749998
1.2995361328125
1.1367919921875
0.9708251953125
0.8773681640625
0.800830078125
0.7476562499999999
0.655810546875
0.6163330078125
0.6276123046875
0.700927734375
0.6050537109374999
0.0966796875
0.04189453125
0.040283203125
0.040283203125
0.124072265625
0.1426025390625
0.620361328125
1.003857421875
1.213330078125
1.4574462890625
1.662890625
1.8546386718749999
1.964208984375
2.1076171875
2.21396484375
2.254248046875
2.30419921875
2.31064453125
2.26552734375
2.3436767578124997
2.3178955078125
2.7892089843749996
2.9865966796874996
3.0429931640624996
3.043798828125
2.9833740234375
2.921337890625
2.737646484375
2.431494140625
1.8876708984375
1.7088134765624998
1.4526123046875
0.9490722656249999
0.8886474609374999
0.84111328125
0.765380859375
0.72509765625
0.6614501953124999
0.6598388671875
0.7097900390624999
0.6711181640624999
0.6348632812499999
0.1007080078125
0.040283203125
0.0394775390625
0.041088867187499996
0.0362548828125
0.08942871093749999
0.5043457031249999
1.0368896484374999
1.3607666015625
1.64677734375
1.87236328125
1.9553466796874999
2.167236328125
2.209130859375
2.318701171875
2.367041015625
2.42666015625
2.3533447265625
2.3597900390624997
2.3533447265625
2.3009765625
2.6546630859375
2.771484375
2.874609375
3.0397705078125
3.0446044921874997
3.003515625
2.6804443359374996
2.3912109375
2.0898925781249997
1.8296630859374998
1.5589599609375
1.340625
1.139208984375
1.0401123046875
0.9788818359375
0.9313476562499999
0.837890625
0.77666015625
0.7242919921875
0.768603515625
0.833056640625
0.3681884765625
0.182080078125
0.0555908203125
0.0362548828125
0.0394775390625
0.15227050781249998
0.57041015625
1.0078857421875
1.4187744140624998
1.72412109375
1.8232177734375
1.912646484375
2.0842529296875
2.0971435546875
2.1849609375
2.2083251953125
2.230078125
2.3404541015625
2.2751953124999997
2.257470703125
2.2550537109374997
2.5483154296875
2.7642333984375
2.9342285156249996
3.0421875
3.029296875
2.9978759765625
2.784375
2.4749999999999996
2.1333984375
1.8280517578125
1.6121337890624998
1.3744628906249998
1.2423339843749999
1.1134277343749999
0.9329589843749999
0.9232910156249999
0.839501953125
0.8024414062499999
0.82177734375
0.7887451171875
0.791162109375
0.34965820312499996
0.143408203125
0.050756835937499994
0.04189453125
0.03544921875
0.20705566406249998
0.47775878906249997
1.1786865234375
1.5428466796875
1.861083984375
2.2002685546875
2.40732421875
2.5660400390625
2.67158203125
2.7303955078124997
2.6788330078125
2.6949462890625
2.6764160156249996
2.5072265624999996
2.4242431640624997
2.2792236328124997
2.4194091796875
2.4371337890625
2.3315917968749997
2.2147705078124997
2.1140624999999997
1.9545410156249998
1.5791015625
1.232666015625
0.8048583984375
0.37785644531249996
0.18369140625
0.041088867187499996
0.043505859375
0.041088867187499996
1.106982421875
2.4041015624999997
2.1728759765625
1.571044921875
1.2697265624999998
1.1899658203124999
1.3462646484374998
1.2955078125
1.3873535156249999
1.6048828124999999
1.5597656249999998
1.542041015625
1.545263671875
1.5911865234375
1.6620849609375
1.5839355468749998
1.6177734375
1.5565429687499999
1.5525146484374999
1.5654052734375
1.554931640625
1.5557373046874998
1.5662109375
1.5009521484375
1.51787109375
1.509814453125
3.043798828125
3.0405761718749997
0.9144287109375
1.6266357421875
1.5605712890624999
1.477587890625
1.5283447265624999
1.4139404296875
1.6153564453125
1.7748779296875
1.3212890625
1.2906738281249999
1.46953125
1.3092041015625
1.33740234375
1.3559326171875
1.348681640625
1.3736572265625
1.4010498046875
1.4091064453125
1.405078125
1.4364990234375
1.4461669921875
1.4437499999999999
1.4445556640625
1.46630859375
1.4961181640624999
1.5082031249999999
1.52109375
1.506591796875
1.5476806640624998
1.5299560546875
1.529150390625
1.5114257812499998
1.5146484375
1.5041748046874999
1.49853515625
1.4832275390624998
1.458251953125
1.4961181640624999
1.5194824218749998
1.5597656249999998
1.5460693359375
1.5033691406249998
1.5146484375
1.529150390625
1.5154541015624998
1.5114257812499998
1.4920898437499999
1.5146484375
1.4445556640625
1.456640625
1.4389160156249998
1.47275390625
1.5001464843749999
1.496923828125
1.4912841796874998
1.5194824218749998
1.5170654296875
1.5114257812499998
1.5235107421874998
1.506591796875
1.5347900390625
1.53720703125
1.5525146484374999
1.5331787109375
1.5355957031249998
1.5202880859374999
1.5436523437499998
1.5734619140625
1.606494140625
1.6403320312499998
1.619384765625
1.6185791015625
1.603271484375
1.5887695312499999
1.606494140625
1.5847412109374999
1.60166015625
1.5758789062499998
1.5444580078124999
1.5476806640624998
1.546875
1.525927734375
1.5138427734375
1.5412353515625
1.5186767578125
1.571044921875
1.5678222656249998
1.5637939453124998
1.5146484375
1.5033691406249998
1.5758789062499998
1.5009521484375
1.4767822265625
1.4912841796874998
1.4888671875
1.5243164062499999
1.5267333984375
1.5162597656249999
1.5170654296875
1.496923828125
1.5154541015624998
1.5509033203125
1.5476806640624998
1.5565429687499999
1.5428466796875
1.7619873046874999
1.740234375
1.5927978515624999
1.5637939453124998
1.5863525390625
1.5815185546875
1.5992431640625
1.6024658203125
1.58232421875
1.5758789062499998
1.5662109375
1.5782958984375
1.5791015625
1.5355957031249998
1.5509033203125
1.5404296874999999
1.5275390624999998
1.5202880859374999
1.5162597656249999
1.50498046875
1.5146484375
1.5235107421874998
1.5436523437499998
1.683837890625
1.7901855468749999
1.5879638671874998
1.4840332031249999
1.45341796875
1.442138671875
1.45341796875
1.4445556640625
1.4574462890625
1.482421875
1.4711425781249998
1.474365234375
1.5041748046874999
1.5001464843749999
1.5186767578125
1.5364013671874999
1.5396240234374998
1.5355957031249998
1.53076171875
1.529150390625
1.538818359375
1.6556396484375
1.6000488281249998
1.6081054687499998
1.6266357421875
1.5960205078124998
1.606494140625
1.5750732421875
1.5718505859374998
1.5766845703124999
1.6314697265625
1.5927978515624999
1.5525146484374999
1.5460693359375
1.5573486328125
1.5589599609375
1.5380126953125
1.5283447265624999
1.5251220703125
1.52109375
1.5186767578125
1.5162597656249999
1.5146484375
1.5057861328125
1.5017578125
1.48564453125
1.4816162109375
1.4848388671875
1.4961181640624999
1.493701171875
1.4888671875
1.5033691406249998
1.5114257812499998
1.5122314453124999
1.522705078125
1.51787109375
1.5323730468749999
1.5331787109375
1.5444580078124999
1.546875
1.5573486328125
1.5533203125
1.55009765625
1.5645996093749999
1.5597656249999998
1.56298828125
1.5750732421875
1.5879638671874998
1.6209960937499999
1.609716796875
1.5944091796875
1.5831298828125
1.5758789062499998
1.5702392578125
1.5533203125
1.5476806640624998
1.5444580078124999
1.5428466796875
1.5364013671874999
1.529150390625
1.5315673828124998
1.525927734375
1.5355957031249998
1.53076171875
1.522705078125
1.5106201171875
1.56298828125
1.5404296874999999
1.4864501953125
1.480810546875
1.4880615234374999
1.4872558593749998
1.4848388671875
1.4791992187499998
1.5025634765625
1.5114257812499998
1.52109375
1.5267333984375
1.5315673828124998
1.538818359375
1.5404296874999999
1.546875
1.5573486328125
1.55009765625
1.5396240234374998
1.554931640625
1.561376953125
1.5758789062499998
1.5815185546875
1.6000488281249998
1.5960205078124998
1.5992431640625
1.5911865234375
1.58232421875
1.5782958984375
1.5670166015625
1.5557373046874998
1.5525146484374999
1.5436523437499998
1.5436523437499998
1.5404296874999999
1.542041015625
1.5380126953125
1.5364013671874999
1.53076171875
1.5380126953125
1.5412353515625
1.509814453125
1.5001464843749999
1.4864501953125
1.48564453125
1.4816162109375
1.490478515625
1.4945068359375
1.4928955078125
1.5001464843749999
1.506591796875
1.5138427734375
1.5202880859374999
1.5194824218749998
1.5460693359375
1.5412353515625
1.542041015625
1.5315673828124998
1.546875
1.5541259765625
1.5589599609375
1.5726562499999999
1.574267578125
1.577490234375
1.590380859375
1.5968261718749999
1.6056884765625
1.6250244140624999
1.6089111328124999
1.6129394531249999
1.593603515625
1.571044921875
1.5645996093749999
1.5589599609375
1.5597656249999998
1.5476806640624998
1.5444580078124999
1.5355957031249998
1.538818359375
1.5412353515625
1.525927734375
1.5299560546875
1.53076171875
1.5001464843749999
1.5017578125
1.4920898437499999
1.4993408203124998
1.4816162109375
1.482421875
1.4840332031249999
1.49853515625
1.50498046875
1.4961181640624999
1.5033691406249998
1.5251220703125
1.5331787109375
1.533984375
1.5525146484374999
1.5436523437499998
1.554931640625
1.558154296875
1.5517089843749998
1.5492919921875
1.558154296875
1.5670166015625
1.5734619140625
1.587158203125
1.6008544921874999
1.6000488281249998
1.61455078125
1.6056884765625
1.5968261718749999
1.587158203125
1.5750732421875
1.56943359375
1.5589599609375
1.5565429687499999
1.5492919921875
1.545263671875
1.5412353515625
1.542041015625
1.53720703125
1.53076171875
1.5315673828124998
1.529150390625
1.5170654296875
1.5082031249999999
1.5001464843749999
1.5033691406249998
1.48564453125
1.4816162109375
1.4872558593749998
1.4840332031249999
1.5001464843749999
1.506591796875
1.5146484375
1.51787109375
1.5396240234374998
1.5412353515625
1.538818359375
1.5460693359375
1.55009765625
1.546875
1.55009765625
1.546875
1.5541259765625
1.5541259765625
1.577490234375
1.5879638671874998
1.5919921874999998
1.60166015625
1.6081054687499998
1.6040771484374998
1.5927978515624999
1.58232421875
1.5678222656249998
1.5645996093749999
1.5484863281249999
1.5509033203125
1.5484863281249999
1.5436523437499998
1.53720703125
1.5364013671874999
1.5380126953125
1.5283447265624999
1.5283447265624999
1.53076171875
1.5170654296875
1.513037109375
1.49853515625
1.4977294921875
1.493701171875
1.4791992187499998
1.4928955078125
1.5001464843749999
1.4961181640624999
1.5025634765625
1.5122314453124999
1.5235107421874998
1.5186767578125
1.5347900390625
1.546875
1.5436523437499998
1.5509033203125
1.5364013671874999
1.5484863281249999
1.5460693359375
1.5517089843749998
1.5678222656249998
1.5750732421875
1.5863525390625
1.5911865234375
1.6072998046875
1.6089111328124999
1.6008544921874999
1.5992431640625
1.5879638671874998
1.571044921875
1.571044921875
1.5597656249999998
1.5565429687499999
1.5436523437499998
1.542041015625
1.542041015625
1.5315673828124998
1.5347900390625
1.5275390624999998
1.5347900390625
1.5299560546875
1.51787109375
1.52109375
1.5025634765625
1.5025634765625
1.4880615234374999
1.482421875
1.4791992187499998
1.4912841796874998
1.4961181640624999
1.5017578125
1.5082031249999999
1.5154541015624998
1.529150390625
1.5355957031249998
1.545263671875
1.5404296874999999
1.55009765625
1.5428466796875
1.5557373046874998
1.5484863281249999
1.5484863281249999
1.571044921875
1.5726562499999999
1.5895751953125
1.5992431640625
1.5976318359375
1.6129394531249999
1.6089111328124999
1.6048828124999999
1.5984375
1.5815185546875
1.5718505859374998
1.5621826171875
1.554931640625
1.5517089843749998
1.546875
1.5396240234374998
1.53720703125
1.5347900390625
1.5364013671874999
1.53076171875
1.529150390625
1.5251220703125
1.5138427734375
1.50498046875
1.5033691406249998
1.4928955078125
1.4953124999999998
1.4888671875
1.4848388671875
1.4896728515625
1.5025634765625
1.5146484375
1.5202880859374999
1.5315673828124998
1.5355957031249998
1.5404296874999999
1.5436523437499998
1.546875
1.5533203125
1.5533203125
1.5492919921875
1.5517089843749998
1.5557373046874998
1.5758789062499998
1.5791015625
1.590380859375
1.5944091796875
1.6153564453125
1.6040771484374998
1.5944091796875
1.5799072265624998
1.5791015625
1.56943359375
1.5678222656249998
1.5565429687499999
1.546875
1.5444580078124999
1.5380126953125
1.5364013671874999
1.5315673828124998
1.525927734375
1.53720703125
1.5355957031249998
1.5202880859374999
1.5170654296875
1.5057861328125
1.496923828125
1.4912841796874998
1.4864501953125
1.482421875
1.4888671875
1.4977294921875
1.50498046875
1.5138427734375
1.5146484375
1.5235107421874998
1.542041015625
1.53720703125
1.5509033203125
1.545263671875
1.554931640625
1.554931640625
1.5533203125
1.5436523437499998
1.56298828125
1.5678222656249998
1.574267578125
1.5831298828125
1.606494140625
1.6081054687499998
1.611328125
1.59521484375
1.5887695312499999
1.5839355468749998
1.5645996093749999
1.5573486328125
1.5573486328125
1.5541259765625
1.545263671875
1.5428466796875
1.53720703125
1.5331787109375
1.5380126953125
1.5267333984375
1.5331787109375
1.522705078125
1.5235107421874998
1.5162597656249999
1.4945068359375
1.4961181640624999
1.4880615234374999
1.4800048828124999
1.4880615234374999
1.49853515625
1.49853515625
1.5114257812499998
1.513037109375
1.53076171875
1.5315673828124998
1.5396240234374998
1.545263671875
1.5460693359375
1.55009765625
1.5509033203125
1.558154296875
1.5533203125
1.5605712890624999
1.561376953125
1.58232421875
1.5911865234375
1.60166015625
1.6072998046875
1.6161621093749998
1.60166015625
1.593603515625
1.5847412109374999
1.5702392578125
1.5637939453124998
1.5589599609375
1.5492919921875
1.5460693359375
1.5444580078124999
1.5476806640624998
1.5380126953125
1.5283447265624999
1.5315673828124998
1.533984375
1.5267333984375
1.5235107421874998
1.5106201171875
1.5033691406249998
1.4840332031249999
1.4832275390624998
1.482421875
1.490478515625
1.4953124999999998
1.496923828125
1.5090087890625
1.509814453125
1.5283447265624999
1.5275390624999998
1.53720703125
1.545263671875
1.546875
1.5436523437499998
1.554931640625
1.5573486328125
1.5605712890624999
1.5662109375
1.5621826171875
1.5887695312499999
1.5887695312499999
1.59521484375
1.6024658203125
1.6153564453125
1.5984375
1.5984375
1.5750732421875
1.574267578125
1.5678222656249998
1.5597656249999998
1.554931640625
1.5541259765625
1.538818359375
1.5315673828124998
1.53720703125
1.5315673828124998
1.5315673828124998
1.5315673828124998
1.522705078125
1.5146484375
1.5154541015624998
1.5033691406249998
1.4888671875
1.4872558593749998
1.4848388671875
1.4896728515625
1.4872558593749998
1.4848388671875
1.5001464843749999
1.52109375
1.5251220703125
1.5315673828124998
1.5412353515625
1.5428466796875
1.546875
1.5444580078124999
1.5509033203125
1.5533203125
1.55009765625
1.5565429687499999
1.5662109375
1.577490234375
1.59521484375
1.5976318359375
1.5984375
1.6008544921874999
1.6048828124999999
1.5944091796875
1.5919921874999998
1.5791015625
1.577490234375
1.554931640625
1.5509033203125
1.5517089843749998
1.545263671875
1.5364013671874999
1.5251220703125
1.5380126953125
1.5299560546875
1.529150390625
1.5275390624999998
1.5202880859374999
1.506591796875
1.5082031249999999
1.49853515625
1.490478515625
1.4848388671875
1.4783935546875
1.4977294921875
1.493701171875
1.5033691406249998
1.5154541015624998
1.522705078125
1.5364013671874999
1.5347900390625
1.542041015625
1.5412353515625
1.5525146484374999
1.5412353515625
1.5565429687499999
1.545263671875
1.55009765625
1.577490234375
1.5758789062499998
1.58232421875
1.590380859375
1.606494140625
1.6129394531249999
1.606494140625
1.5927978515624999
1.5919921874999998
1.58232421875
1.5637939453124998
1.561376953125
1.554931640625
1.554931640625
1.5380126953125
1.5444580078124999
1.53720703125
1.5315673828124998
1.538818359375
1.5323730468749999
1.5275390624999998
1.5138427734375
1.5106201171875
1.50498046875
1.4993408203124998
1.480810546875
1.4864501953125
1.4848388671875
1.48564453125
1.5009521484375
1.509814453125
1.5186767578125
1.5202880859374999
1.52109375
1.5347900390625
1.5347900390625
1.5436523437499998
1.5533203125
1.5533203125
1.5565429687499999
1.5517089843749998
1.561376953125
1.571044921875
1.574267578125
1.5847412109374999
1.6024658203125
1.5976318359375
1.6040771484374998
1.6008544921874999
1.593603515625
1.5919921874999998
1.5807128906249999
1.56298828125
1.5645996093749999
1.554931640625
1.542041015625
1.5509033203125
1.5396240234374998
1.538818359375
1.5323730468749999
1.529150390625
1.5364013671874999
1.5412353515625
1.5235107421874998
1.5235107421874998
1.5057861328125
1.4993408203124998
1.4864501953125
1.480810546875
1.4848388671875
1.4791992187499998
1.49853515625
1.5073974609374998
1.51787109375
1.522705078125
1.53076171875
1.5323730468749999
1.542041015625
1.55009765625
1.55009765625
1.5492919921875
1.55009765625
1.5565429687499999
1.554931640625
1.5597656249999998
1.5791015625
1.5839355468749998
1.593603515625
1.60166015625
1.6081054687499998
1.611328125
1.5968261718749999
1.5919921874999998
1.5758789062499998
1.571044921875
1.5637939453124998
1.5565429687499999
1.5436523437499998
1.55009765625
1.53720703125
1.5364013671874999
1.53076171875
1.533984375
1.533984375
1.533984375
1.5202880859374999
1.5186767578125
1.506591796875
1.5017578125
1.4872558593749998
1.477587890625
1.4896728515625
1.4864501953125
1.493701171875
1.5017578125
1.5283447265624999
1.5186767578125
1.5323730468749999
1.53076171875
1.53720703125
1.542041015625
1.55009765625
1.542041015625
1.5484863281249999
1.5492919921875
1.5605712890624999
1.5662109375
1.5718505859374998
1.5799072265624998
1.5887695312499999
1.609716796875
1.6177734375
1.6056884765625
1.593603515625
1.5960205078124998
1.5799072265624998
1.5662109375
1.5637939453124998
1.554931640625
1.5476806640624998
1.546875
1.5436523437499998
1.5347900390625
1.5315673828124998
1.5202880859374999
1.5251220703125
1.5364013671874999
1.53076171875
1.5146484375
1.5073974609374998
1.5082031249999999
1.5001464843749999
1.4800048828124999
1.48564453125
1.493701171875
1.490478515625
1.5001464843749999
1.5114257812499998
1.5170654296875
1.5243164062499999
1.5355957031249998
1.5412353515625
1.546875
1.5444580078124999
1.5525146484374999
1.5484863281249999
1.5557373046874998
1.546875
1.5605712890624999
1.574267578125
1.587158203125
1.5895751953125
1.6089111328124999
1.5315673828124998
1.6056884765625
1.6008544921874999
1.5976318359375
1.58232421875
1.5750732421875
1.5654052734375
1.554931640625
1.5525146484374999
1.546875
1.5444580078124999
1.533984375
1.5323730468749999
1.53720703125
1.5315673828124998
1.5396240234374998
1.5275390624999998
1.5170654296875
1.506591796875
1.4945068359375
1.4872558593749998
1.4872558593749998
1.477587890625
1.490478515625
1.4928955078125
1.5001464843749999
1.506591796875
1.51787109375
1.5315673828124998
1.529150390625
1.5396240234374998
1.55009765625
1.542041015625
1.5460693359375
1.5573486328125
1.5541259765625
1.5517089843749998
1.5637939453124998
1.571044921875
1.5815185546875
1.5927978515624999
1.5992431640625
1.6040771484374998
1.6000488281249998
1.60166015625
1.6000488281249998
1.5839355468749998
1.5750732421875
1.56298828125
1.558154296875
1.554931640625
1.5412353515625
1.5404296874999999
1.5436523437499998
1.525927734375
1.5299560546875
1.53076171875
1.5331787109375
1.5355957031249998
1.525927734375
1.5170654296875
1.5057861328125
1.4888671875
1.4791992187499998
1.4864501953125
1.4896728515625
1.496923828125
1.5033691406249998
1.5073974609374998
1.5275390624999998
1.5202880859374999
1.5315673828124998
1.5347900390625
1.545263671875
1.5517089843749998
1.545263671875
1.5557373046874998
1.5557373046874998
1.5476806640624998
1.5597656249999998
1.5734619140625
1.5839355468749998
1.5863525390625
1.5960205078124998
1.6008544921874999
1.6105224609375
1.606494140625
1.5887695312499999
1.5863525390625
1.577490234375
1.5718505859374998
1.5573486328125
1.5517089843749998
1.5444580078124999
1.545263671875
1.5444580078124999
1.53720703125
1.5323730468749999
1.5331787109375
1.5315673828124998
1.5283447265624999
1.5146484375
1.509814453125
1.5001464843749999
1.4953124999999998
1.4888671875
1.48564453125
1.480810546875
1.480810546875
1.49853515625
1.513037109375
1.5275390624999998
1.533984375
1.5355957031249998
1.5299560546875
1.5428466796875
1.5380126953125
1.5557373046874998
1.5533203125
1.5605712890624999
1.546875
1.554931640625
1.5662109375
1.5879638671874998
1.5960205078124998
1.59521484375
1.6000488281249998
1.609716796875
1.603271484375
1.5879638671874998
1.585546875
1.5726562499999999
1.5637939453124998
1.5573486328125
1.5476806640624998
1.5557373046874998
1.5444580078124999
1.5355957031249998
1.5355957031249998
1.5347900390625
1.53720703125
1.5323730468749999
1.53076171875
1.5218994140625
1.5090087890625
1.49853515625
1.4880615234374999
1.490478515625
1.4896728515625
1.4840332031249999
1.4888671875
1.493701171875
1.5090087890625
1.5090087890625
1.53076171875
1.5243164062499999
1.542041015625
1.5364013671874999
1.5460693359375
1.5492919921875
1.5557373046874998
1.5605712890624999
1.5533203125
1.5605712890624999
1.5654052734375
1.574267578125
1.5847412109374999
1.60166015625
1.60166015625
1.60166015625
1.6089111328124999
1.6024658203125
1.5887695312499999
1.5750732421875
1.56943359375
1.554931640625
1.5541259765625
1.5484863281249999
1.546875
1.545263671875
1.5347900390625
1.5355957031249998
1.5283447265624999
1.533984375
1.5267333984375
1.5243164062499999
1.51787109375
1.5041748046874999
1.4912841796874998
1.4872558593749998
1.477587890625
1.4888671875
1.490478515625
1.496923828125
1.5073974609374998
1.5146484375
1.5267333984375
1.5275390624999998
1.53720703125
1.542041015625
1.5460693359375
1.5533203125
1.5476806640624998
1.554931640625
1.5492919921875
1.56298828125
1.5654052734375
1.577490234375
1.5879638671874998
1.5944091796875
1.6000488281249998
1.6081054687499998
1.6089111328124999
1.593603515625
1.5895751953125
1.5807128906249999
1.5686279296874999
1.5702392578125
1.5525146484374999
1.5436523437499998
1.542041015625
1.5364013671874999
1.5364013671874999
1.5347900390625
1.5380126953125
1.5267333984375
1.525927734375
1.522705078125
1.51787109375
1.5033691406249998
1.50498046875
1.48564453125
1.4880615234374999
1.4832275390624998
1.4840332031249999
1.49853515625
1.49853515625
1.5194824218749998
1.5275390624999998
1.5315673828124998
1.529150390625
1.53720703125
1.5484863281249999
1.5509033203125
1.558154296875
1.546875
1.558154296875
1.554931640625
1.5654052734375
1.5662109375
1.5847412109374999
1.6000488281249998
1.60166015625
1.611328125
1.6000488281249998
1.60166015625
1.5984375
1.574267578125
1.561376953125
1.558154296875
1.554931640625
1.5517089843749998
1.542041015625
1.5380126953125
1.538818359375
1.5251220703125
1.53076171875
1.5299560546875
1.53076171875
1.5170654296875
1.5138427734375
1.5041748046874999
1.4928955078125
1.49853515625
1.4832275390624998
1.4880615234374999
1.480810546875
1.496923828125
1.5041748046874999
1.5170654296875
1.52109375
1.52109375
1.5396240234374998
1.542041015625
1.546875
1.5484863281249999
1.5492919921875
1.5484863281249999
1.5645996093749999
1.5565429687499999
1.5637939453124998
1.5807128906249999
1.5807128906249999
1.59521484375
1.606494140625
1.6072998046875
1.6040771484374998
1.6000488281249998
1.5984375
1.58232421875
1.5702392578125
1.5645996093749999
1.5565429687499999
1.55009765625
1.546875
1.5404296874999999
1.538818359375
1.529150390625
1.5331787109375
1.5315673828124998
1.533984375
1.5251220703125
1.5218994140625
1.5073974609374998
1.4912841796874998
1.4953124999999998
1.4791992187499998
1.4872558593749998
1.48564453125
1.4961181640624999
1.5001464843749999
1.506591796875
1.5154541015624998
1.53076171875
1.5218994140625
1.5444580078124999
1.5460693359375
1.5509033203125
