1.5323730468749999
1.5347900390625
1.5299560546875
1.513037109375
1.5146484375
1.4993408203124998
1.5001464843749999
1.4888671875
1.4800048828124999
1.4872558593749998
1.4888671875
1.4961181640624999
1.509814453125
1.5154541015624998
1.5267333984375
1.5243164062499999
1.53720703125
1.542041015625
1.55009765625
1.5484863281249999
1.5557373046874998
1.55009765625
1.5533203125
1.5525146484374999
1.5718505859374998
1.574267578125
1.5839355468749998
1.6008544921874999
1.5984375
1.609716796875
1.6056884765625
1.60166015625
1.5847412109374999
1.5815185546875
1.5605712890624999
1.56298828125
1.5637939453124998
1.5565429687499999
1.546875
1.5355957031249998
1.5315673828124998
1.533984375
1.5299560546875
1.5323730468749999
1.4526123046875
1.5146484375
1.5243164062499999
1.50498046875
1.4993408203124998
1.48564453125
1.4832275390624998
1.480810546875
1.4912841796874998
1.496923828125
1.5033691406249998
1.5154541015624998
1.5218994140625
1.533984375
1.5323730468749999
1.53720703125
1.5509033203125
1.5484863281249999
1.5460693359375
1.5533203125
1.5533203125
1.55009765625
1.5750732421875
1.5718505859374998
1.5831298828125
1.6000488281249998
1.60166015625
1.6129394531249999
1.6040771484374998
1.6000488281249998
1.5887695312499999
1.5799072265624998
1.5670166015625
1.5589599609375
1.5541259765625
1.5533203125
1.5509033203125
1.5380126953125
1.5436523437499998
1.5275390624999998
1.5331787109375
1.5355957031249998
1.5355957031249998
1.5235107421874998
1.5146484375
1.51787109375
1.4945068359375
1.4920898437499999
1.4872558593749998
1.4816162109375
1.480810546875
1.4880615234374999
1.5025634765625
1.5146484375
1.5186767578125
1.5331787109375
1.5355957031249998
1.5412353515625
1.5484863281249999
1.5444580078124999
1.5525146484374999
1.554931640625
1.55009765625
1.5517089843749998
1.5678222656249998
1.56943359375
1.5807128906249999
1.587158203125
1.6008544921874999
1.6056884765625
1.611328125
1.6000488281249998
1.60166015625
1.5799072265624998
1.5670166015625
1.5637939453124998
1.5541259765625
1.5436523437499998
1.5517089843749998
1.546875
1.5396240234374998
1.5347900390625
1.5299560546875
1.5355957031249998
1.525927734375
1.5218994140625
1.52109375
1.49853515625
1.4993408203124998
1.4993408203124998
1.4840332031249999
1.4848388671875
1.4920898437499999
1.48564453125
1.5017578125
1.513037109375
1.5251220703125
1.5235107421874998
1.5275390624999998
1.5436523437499998
1.53720703125
1.5436523437499998
1.55009765625
1.5637939453124998
1.5734619140625
1.56298828125
1.5637939453124998
1.5686279296874999
1.5887695312499999
1.5895751953125
1.5976318359375
1.6081054687499998
1.611328125
1.5992431640625
1.590380859375
1.5799072265624998
1.5782958984375
1.558154296875
1.5533203125
1.5484863281249999
1.5436523437499998
1.5460693359375
1.5347900390625
1.533984375
1.533984375
1.5315673828124998
1.529150390625
1.5251220703125
1.52109375
1.5146484375
1.5025634765625
1.4953124999999998
1.4920898437499999
1.4759765624999999
1.4832275390624998
1.49853515625
1.4993408203124998
1.50498046875
1.5202880859374999
1.5267333984375
1.53076171875
1.538818359375
1.5476806640624998
1.5517089843749998
1.5509033203125
1.545263671875
1.55009765625
1.5476806640624998
1.5670166015625
1.5662109375
1.5863525390625
1.5911865234375
1.593603515625
1.5984375
1.6089111328124999
1.6000488281249998
1.590380859375
1.58232421875
1.577490234375
1.5662109375
1.5557373046874998
1.5517089843749998
1.5404296874999999
1.5428466796875
1.5396240234374998
1.5396240234374998
1.5331787109375
1.53720703125
1.5299560546875
1.5251220703125
1.5235107421874998
1.509814453125
1.5001464843749999
1.4945068359375
1.482421875
1.4896728515625
1.482421875
1.4880615234374999
1.50498046875
1.5073974609374998
1.51787109375
1.525927734375
1.5283447265624999
1.5323730468749999
1.5396240234374998
1.5460693359375
1.5476806640624998
1.5509033203125
1.5573486328125
1.558154296875
1.5702392578125
1.5670166015625
1.571044921875
1.5831298828125
1.5968261718749999
1.5968261718749999
1.609716796875
1.6040771484374998
1.5911865234375
1.5887695312499999
1.5782958984375
1.5670166015625
1.5533203125
1.545263671875
1.542041015625
1.542041015625
1.5444580078124999
1.533984375
1.5315673828124998
1.52109375
1.5267333984375
1.533984375
1.5186767578125
1.5154541015624998
1.5025634765625
1.4920898437499999
1.4864501953125
1.482421875
1.4840332031249999
1.4896728515625
1.496923828125
1.5073974609374998
1.5122314453124999
1.5275390624999998
1.5364013671874999
1.5331787109375
1.5404296874999999
1.5428466796875
1.545263671875
1.5541259765625
1.554931640625
1.5484863281249999
1.5621826171875
1.5726562499999999
1.5807128906249999
1.58232421875
1.6000488281249998
1.606494140625
1.6105224609375
1.6048828124999999
1.6056884765625
1.5815185546875
1.5766845703124999
1.56943359375
1.5670166015625
1.5525146484374999
1.542041015625
1.5492919921875
1.5396240234374998
1.5355957031249998
1.53720703125
1.5283447265624999
1.53720703125
1.5267333984375
1.5202880859374999
1.5090087890625
1.5106201171875
1.4896728515625
1.493701171875
1.482421875
1.4791992187499998
1.490478515625
1.493701171875
1.5073974609374998
1.5170654296875
1.5235107421874998
1.5283447265624999
1.53720703125
1.5412353515625
1.545263671875
1.5525146484374999
1.5509033203125
1.558154296875
1.5492919921875
1.5541259765625
1.5678222656249998
1.5782958984375
1.58232421875
1.5919921874999998
1.5992431640625
1.6105224609375
1.5968261718749999
1.6000488281249998
1.5815185546875
1.5726562499999999
1.5678222656249998
1.561376953125
1.5573486328125
1.55009765625
1.5404296874999999
1.5396240234374998
1.5299560546875
1.5315673828124998
1.5283447265624999
1.5355957031249998
1.53720703125
1.5267333984375
1.5162597656249999
1.4920898437499999
1.490478515625
1.48564453125
1.4848388671875
1.4872558593749998
1.490478515625
1.50498046875
1.5057861328125
1.5122314453124999
1.522705078125
1.5283447265624999
1.5364013671874999
1.5404296874999999
1.5460693359375
1.55009765625
1.5492919921875
1.5605712890624999
1.5484863281249999
1.5517089843749998
1.5670166015625
1.5758789062499998
1.587158203125
1.590380859375
1.6040771484374998
1.606494140625
1.6056884765625
1.6008544921874999
1.58232421875
1.577490234375
1.5645996093749999
1.5597656249999998
1.5533203125
1.5541259765625
1.5396240234374998
1.542041015625
1.53720703125
1.5315673828124998
1.53076171875
1.53076171875
1.5323730468749999
1.5162597656249999
1.5082031249999999
1.5122314453124999
1.4993408203124998
1.4880615234374999
1.482421875
1.4767822265625
1.480810546875
1.4977294921875
1.5162597656249999
1.5162597656249999
1.5170654296875
1.5299560546875
1.53076171875
1.53076171875
1.5436523437499998
1.55009765625
1.5525146484374999
1.5509033203125
1.5565429687499999
1.5541259765625
1.5686279296874999
1.56943359375
1.5807128906249999
1.5887695312499999
1.6040771484374998
1.606494140625
1.6024658203125
1.5960205078124998
1.59521484375
1.5791015625
1.571044921875
1.5702392578125
1.5573486328125
1.5605712890624999
1.5460693359375
1.5436523437499998
1.5412353515625
1.5299560546875
1.5355957031249998
1.5323730468749999
1.5364013671874999
1.5243164062499999
1.5138427734375
1.513037109375
1.493701171875
1.4840332031249999
1.4800048828124999
1.4800048828124999
1.4800048828124999
1.4977294921875
1.4961181640624999
1.50498046875
1.5218994140625
1.5251220703125
1.5412353515625
1.545263671875
1.545263671875
1.5541259765625
1.5492919921875
1.5589599609375
1.5573486328125
1.5573486328125
1.5621826171875
1.5718505859374998
1.5863525390625
1.590380859375
1.5944091796875
1.611328125
1.606494140625
1.5992431640625
1.5911865234375
1.5807128906249999
1.571044921875
1.56943359375
1.554931640625
1.5509033203125
1.5460693359375
1.5476806640624998
1.5347900390625
1.538818359375
1.533984375
1.5299560546875
1.5299560546875
1.529150390625
1.5162597656249999
1.5090087890625
1.4993408203124998
1.493701171875
1.4880615234374999
1.4864501953125
1.48564453125
1.4840332031249999
1.5041748046874999
1.5138427734375
1.52109375
1.5275390624999998
1.5299560546875
1.538818359375
1.5396240234374998
1.5492919921875
1.5573486328125
1.5533203125
1.554931640625
1.554931640625
1.5509033203125
1.5686279296874999
1.5766845703124999
1.59521484375
1.5984375
1.6121337890624998
1.6137451171875
1.6056884765625
1.585546875
1.58232421875
1.5815185546875
1.5670166015625
1.5597656249999998
1.5509033203125
1.5412353515625
1.5404296874999999
1.538818359375
1.5251220703125
1.5323730468749999
1.529150390625
1.533984375
1.5355957031249998
1.5170654296875
1.5073974609374998
1.5041748046874999
1.4928955078125
1.4872558593749998
1.4848388671875
1.4816162109375
1.4888671875
1.5025634765625
1.5122314453124999
1.5186767578125
1.5218994140625
1.533984375
1.538818359375
1.5444580078124999
1.545263671875
1.5517089843749998
1.5573486328125
1.5492919921875
1.5533203125
1.5645996093749999
1.5750732421875
1.5839355468749998
1.5911865234375
1.5927978515624999
1.6040771484374998
1.6089111328124999
1.603271484375
1.6008544921874999
1.5791015625
1.5702392578125
1.561376953125
1.5517089843749998
1.5509033203125
1.546875
1.5509033203125
1.5412353515625
1.53720703125
1.53076171875
1.5331787109375
1.5315673828124998
1.533984375
1.52109375
1.5057861328125
1.5009521484375
1.4953124999999998
1.4840332031249999
1.480810546875
1.4920898437499999
1.4928955078125
1.5009521484375
1.50498046875
1.5170654296875
1.5194824218749998
1.5355957031249998
1.5380126953125
1.5428466796875
1.5509033203125
1.5460693359375
1.5533203125
1.5565429687499999
1.5517089843749998
1.5533203125
1.5662109375
1.5766845703124999
1.590380859375
1.5960205078124998
1.6072998046875
1.6081054687499998
1.5968261718749999
1.593603515625
1.5839355468749998
1.5702392578125
1.5597656249999998
1.5517089843749998
1.5589599609375
1.542041015625
1.5444580078124999
1.5380126953125
1.5331787109375
1.5331787109375
1.5428466796875
1.5364013671874999
1.5283447265624999
1.5186767578125
1.5154541015624998
1.50498046875
1.4961181640624999
1.4912841796874998
1.4840332031249999
1.4888671875
1.4920898437499999
1.4993408203124998
1.5090087890625
1.5186767578125
1.52109375
1.5243164062499999
1.5396240234374998
1.546875
1.5428466796875
1.5476806640624998
1.5509033203125
1.5605712890624999
1.5492919921875
1.5597656249999998
1.5726562499999999
1.5815185546875
1.5847412109374999
1.6024658203125
1.6081054687499998
1.6000488281249998
1.6024658203125
1.59521484375
1.5863525390625
1.5758789062499998
1.5678222656249998
1.561376953125
1.5565429687499999
1.5436523437499998
1.5380126953125
1.5364013671874999
1.5380126953125
1.5283447265624999
1.5299560546875
1.53076171875
1.53076171875
1.5251220703125
1.5122314453124999
1.5025634765625
1.4953124999999998
1.493701171875
1.4888671875
1.4791992187499998
1.4880615234374999
1.50498046875
1.506591796875
1.5154541015624998
1.5251220703125
1.53720703125
1.5347900390625
1.5428466796875
1.546875
1.5541259765625
1.5525146484374999
1.5492919921875
1.5565429687499999
1.5525146484374999
1.5637939453124998
1.5782958984375
1.5895751953125
1.5976318359375
1.60166015625
1.6121337890624998
1.6048828124999999
1.6048828124999999
1.5863525390625
1.577490234375
1.5726562499999999
1.56298828125
1.554931640625
1.5484863281249999
1.5460693359375
1.542041015625
1.533984375
1.533984375
1.5299560546875
1.5323730468749999
1.542041015625
1.5235107421874998
1.5138427734375
1.506591796875
1.493701171875
1.4864501953125
1.480810546875
1.482421875
1.4912841796874998
1.4993408203124998
1.5090087890625
1.5162597656249999
1.522705078125
1.5283447265624999
1.5347900390625
1.5396240234374998
1.5533203125
1.5557373046874998
1.5541259765625
1.546875
1.5525146484374999
1.5565429687499999
1.5750732421875
1.574267578125
1.590380859375
1.593603515625
1.6040771484374998
1.606494140625
1.609716796875
1.5984375
1.587158203125
1.58232421875
1.5654052734375
1.5637939453124998
1.5492919921875
1.5460693359375
1.545263671875
1.538818359375
1.542041015625
1.53720703125
1.53720703125
1.5331787109375
1.5323730468749999
1.525927734375
1.5154541015624998
1.5082031249999999
1.496923828125
1.4872558593749998
1.4800048828124999
1.4840332031249999
1.4896728515625
1.4977294921875
1.5033691406249998
1.5114257812499998
1.5299560546875
1.5267333984375
1.5299560546875
1.5444580078124999
1.5444580078124999
1.5444580078124999
1.5517089843749998
1.554931640625
1.5492919921875
1.5597656249999998
1.5565429687499999
1.5766845703124999
1.585546875
1.5944091796875
1.6089111328124999
1.6137451171875
1.6048828124999999
1.5960205078124998
1.5887695312499999
1.5799072265624998
1.5654052734375
1.5637939453124998
1.5565429687499999
1.55009765625
1.5460693359375
1.5404296874999999
1.5364013671874999
1.538818359375
1.5347900390625
1.529150390625
1.53076171875
1.5194824218749998
1.5082031249999999
1.506591796875
1.496923828125
1.4864501953125
1.4872558593749998
1.482421875
1.4880615234374999
1.4896728515625
1.5041748046874999
1.5090087890625
1.5154541015624998
1.5194824218749998
1.5412353515625
1.53720703125
1.5444580078124999
1.5509033203125
1.55009765625
1.5533203125
1.558154296875
1.5573486328125
1.56298828125
1.577490234375
1.5815185546875
1.5911865234375
1.5976318359375
1.60166015625
1.6000488281249998
1.5984375
1.590380859375
1.587158203125
1.5766845703124999
1.5589599609375
1.5597656249999998
1.5525146484374999
1.5476806640624998
1.5444580078124999
1.53076171875
1.53720703125
1.5283447265624999
1.53720703125
1.5323730468749999
1.5251220703125
1.5073974609374998
1.509814453125
1.4953124999999998
1.5001464843749999
1.480810546875
1.4832275390624998
1.4880615234374999
1.496923828125
1.5025634765625
1.50498046875
1.5202880859374999
1.5251220703125
1.5355957031249998
1.5436523437499998
1.5517089843749998
1.5541259765625
1.55009765625
1.5573486328125
1.5557373046874998
1.55009765625
1.5565429687499999
1.5734619140625
1.5887695312499999
1.5839355468749998
1.5968261718749999
1.6081054687499998
1.5992431640625
1.5984375
1.59521484375
1.5815185546875
1.571044921875
1.5621826171875
1.554931640625
1.546875
1.55009765625
1.546875
1.5436523437499998
1.5347900390625
1.5283447265624999
1.529150390625
1.533984375
1.5275390624999998
1.5186767578125
1.509814453125
1.50498046875
1.48564453125
1.4864501953125
1.4848388671875
1.4816162109375
1.4896728515625
1.496923828125
1.5033691406249998
1.51787109375
1.5186767578125
1.53720703125
1.5355957031249998
1.5404296874999999
1.5509033203125
1.5444580078124999
1.5565429687499999
1.5573486328125
1.5509033203125
1.5589599609375
1.5670166015625
1.5807128906249999
1.5887695312499999
1.5968261718749999
1.6072998046875
1.6153564453125
1.603271484375
1.5887695312499999
1.5887695312499999
1.5750732421875
1.5718505859374998
1.5621826171875
1.5484863281249999
1.5380126953125
1.5428466796875
1.5412353515625
1.542041015625
1.5275390624999998
1.5283447265624999
1.5364013671874999
1.5275390624999998
1.5162597656249999
1.5122314453124999
1.5009521484375
1.493701171875
1.4872558593749998
1.4848388671875
1.490478515625
1.4953124999999998
1.5017578125
1.5090087890625
1.5186767578125
1.5267333984375
1.5331787109375
1.5444580078124999
1.5436523437499998
1.545263671875
1.5565429687499999
1.5525146484374999
1.5484863281249999
1.5484863281249999
1.5541259765625
1.5702392578125
1.5758789062499998
1.5927978515624999
1.590380859375
1.6121337890624998
1.6072998046875
1.6081054687499998
1.59521484375
1.5879638671874998
1.5758789062499998
1.5637939453124998
1.5573486328125
1.546875
1.5436523437499998
1.538818359375
1.545263671875
1.5428466796875
1.5331787109375
1.5299560546875
1.5355957031249998
1.5347900390625
1.52109375
1.5146484375
1.5025634765625
1.4993408203124998
1.4872558593749998
1.4848388671875
1.4783935546875
1.4920898437499999
1.4953124999999998
1.5082031249999999
1.5162597656249999
1.525927734375
1.5299560546875
1.5412353515625
1.546875
1.542041015625
1.5517089843749998
1.5621826171875
1.5517089843749998
1.5565429687499999
1.561376953125
1.571044921875
1.577490234375
1.5831298828125
1.5976318359375
1.6072998046875
1.6081054687499998
1.606494140625
1.593603515625
1.5895751953125
1.5734619140625
1.5702392578125
1.56298828125
1.5525146484374999
1.5444580078124999
1.5380126953125
1.5347900390625
1.5396240234374998
1.5283447265624999
1.533984375
1.5380126953125
1.5275390624999998
1.52109375
1.513037109375
1.5033691406249998
1.4912841796874998
1.4848388671875
1.4832275390624998
1.4832275390624998
1.4816162109375
1.5025634765625
1.509814453125
1.5154541015624998
1.5218994140625
1.5355957031249998
1.5412353515625
1.5436523437499998
1.542041015625
1.5517089843749998
1.5517089843749998
1.5541259765625
1.5484863281249999
1.5670166015625
1.571044921875
1.577490234375
1.5831298828125
1.5847412109374999
1.5976318359375
1.6177734375
1.611328125
1.6000488281249998
1.5895751953125
1.5831298828125
1.558154296875
1.5412353515625
1.545263671875
1.5355957031249998
1.5412353515625
1.5557373046874998
1.5589599609375
1.5412353515625
1.5299560546875
1.5202880859374999
1.5283447265624999
1.5154541015624998
1.5106201171875
1.50498046875
1.4993408203124998
1.4993408203124998
1.496923828125
1.48564453125
1.4703369140625
1.4872558593749998
1.49853515625
1.5082031249999999
1.5275390624999998
1.53720703125
1.5621826171875
1.545263671875
1.5517089843749998
1.5517089843749998
1.554931640625
1.56298828125
1.5533203125
1.561376953125
1.5557373046874998
1.5589599609375
1.56943359375
1.587158203125
1.593603515625
1.6040771484374998
1.5968261718749999
1.5911865234375
1.5750732421875
1.571044921875
1.5645996093749999
1.5597656249999998
1.5678222656249998
1.5686279296874999
1.5509033203125
1.5404296874999999
1.5323730468749999
1.533984375
1.5347900390625
1.5323730468749999
1.5396240234374998
1.5299560546875
1.5331787109375
1.5170654296875
1.4912841796874998
1.4791992187499998
1.4719482421874999
1.46953125
1.4816162109375
1.4961181640624999
1.5009521484375
1.5162597656249999
1.5299560546875
1.5702392578125
1.561376953125
1.5355957031249998
1.5243164062499999
1.5186767578125
1.5484863281249999
1.5678222656249998
1.56943359375
1.5541259765625
1.5645996093749999
1.5726562499999999
1.5799072265624998
1.5863525390625
1.6048828124999999
1.6081054687499998
1.6169677734374999
1.6000488281249998
1.5799072265624998
1.5492919921875
1.5541259765625
1.5597656249999998
1.5573486328125
1.5605712890624999
1.5573486328125
1.5492919921875
1.5404296874999999
1.542041015625
1.53076171875
1.533984375
1.5428466796875
1.5484863281249999
1.5275390624999998
1.4896728515625
1.4679199218749999
1.4719482421874999
1.4671142578124998
1.4783935546875
1.4888671875
1.5009521484375
1.49853515625
1.522705078125
1.529150390625
1.538818359375
1.533984375
1.5315673828124998
1.5218994140625
1.5283447265624999
1.5517089843749998
1.558154296875
1.5597656249999998
1.5525146484374999
1.5645996093749999
1.5678222656249998
1.593603515625
1.5839355468749998
1.619384765625
1.6330810546874999
1.6209960937499999
1.62744140625
1.5976318359375
1.5702392578125
1.5645996093749999
1.5645996093749999
1.5670166015625
1.5597656249999998
1.5484863281249999
1.5428466796875
1.55009765625
1.5243164062499999
1.509814453125
1.5170654296875
1.52109375
1.5122314453124999
1.5162597656249999
1.5106201171875
1.5114257812499998
1.490478515625
1.4888671875
1.490478515625
1.4896728515625
1.493701171875
1.50498046875
1.5106201171875
1.52109375
1.5170654296875
1.529150390625
1.5251220703125
1.5509033203125
1.5355957031249998
1.545263671875
1.5573486328125
1.5573486328125
1.5533203125
1.5734619140625
1.5799072265624998
1.5839355468749998
1.5968261718749999
1.6024658203125
1.6048828124999999
1.6129394531249999
1.5984375
1.5984375
1.5927978515624999
1.5847412109374999
1.5839355468749998
1.5791015625
1.558154296875
1.525927734375
1.538818359375
1.5597656249999998
1.5492919921875
1.5202880859374999
1.496923828125
1.5154541015624998
1.5041748046874999
1.5082031249999999
1.506591796875
1.4977294921875
1.49853515625
1.4872558593749998
1.506591796875
1.4953124999999998
1.5025634765625
1.5202880859374999
1.5275390624999998
1.5364013671874999
1.5267333984375
1.53720703125
1.5347900390625
1.53076171875
1.529150390625
1.5347900390625
1.5436523437499998
1.533984375
1.5315673828124998
1.5517089843749998
1.5766845703124999
1.5984375
1.6137451171875
1.6218017578125
1.6040771484374998
1.5968261718749999
1.5847412109374999
1.6137451171875
1.625830078125
1.5960205078124998
1.5565429687499999
1.5476806640624998
1.5396240234374998
1.533984375
1.5323730468749999
1.545263671875
1.5662109375
1.5396240234374998
1.5186767578125
1.5154541015624998
1.5170654296875
1.5033691406249998
1.5001464843749999
1.4848388671875
1.496923828125
1.5057861328125
1.5533203125
1.4896728515625
1.4437499999999999
1.464697265625
1.5090087890625
1.5114257812499998
1.5122314453124999
1.5275390624999998
1.5412353515625
1.5605712890624999
1.5509033203125
1.5541259765625
1.5275390624999998
1.538818359375
1.5492919921875
1.5541259765625
1.5734619140625
1.6000488281249998
1.6201904296874998
1.6072998046875
1.6177734375
1.6298583984375
1.611328125
1.590380859375
1.5766845703124999
1.5678222656249998
1.5976318359375
1.619384765625
1.5919921874999998
1.5460693359375
1.5017578125
1.5323730468749999
1.5275390624999998
1.5170654296875
1.5025634765625
1.5202880859374999
1.5235107421874998
1.53076171875
1.5033691406249998
1.4920898437499999
1.496923828125
1.4896728515625
1.4888671875
1.5017578125
1.493701171875
1.4888671875
1.4888671875
1.5025634765625
1.5460693359375
1.5637939453124998
1.5541259765625
1.5355957031249998
1.546875
1.561376953125
1.5734619140625
1.56298828125
1.5645996093749999
1.5782958984375
1.5702392578125
1.56943359375
1.5791015625
1.5944091796875
1.603271484375
1.5927978515624999
1.6089111328124999
1.6081054687499998
1.5911865234375
1.571044921875
1.5662109375
1.56298828125
1.5460693359375
1.5355957031249998
1.545263671875
1.525927734375
1.5380126953125
1.5347900390625
1.5347900390625
1.5404296874999999
1.5218994140625
1.5114257812499998
1.5243164062499999
1.480810546875
1.445361328125
1.46630859375
1.480810546875
1.46630859375
1.477587890625
1.4993408203124998
1.5412353515625
1.545263671875
1.554931640625
1.55009765625
1.5428466796875
1.5565429687499999
1.53076171875
1.53076171875
1.5557373046874998
1.571044921875
1.53076171875
1.52109375
1.546875
1.6218017578125
1.62744140625
1.6000488281249998
1.5847412109374999
1.5895751953125
1.5637939453124998
1.5662109375
1.5879638671874998
1.5863525390625
1.56943359375
1.5678222656249998
1.5573486328125
1.5605712890624999
1.533984375
1.5364013671874999
1.5283447265624999
1.5251220703125
1.5170654296875
1.5380126953125
1.5436523437499998
1.5315673828124998
1.5009521484375
1.5114257812499998
1.5017578125
1.4912841796874998
1.4880615234374999
1.4888671875
1.4759765624999999
1.482421875
1.4977294921875
1.50498046875
1.5090087890625
1.5146484375
1.5202880859374999
1.5355957031249998
1.5275390624999998
1.5380126953125
1.577490234375
1.5782958984375
1.5654052734375
1.5557373046874998
1.574267578125
1.5541259765625
1.5621826171875
1.6040771484374998
1.6161621093749998
1.63388671875
1.6242187499999998
1.5992431640625
1.590380859375
1.6137451171875
1.6169677734374999
1.5911865234375
1.5662109375
1.542041015625
1.5251220703125
1.5436523437499998
1.533984375
1.5476806640624998
1.5476806640624998
1.525927734375
1.525927734375
1.5154541015624998
1.5073974609374998
1.522705078125
1.509814453125
1.474365234375
1.46953125
1.477587890625
1.482421875
1.4912841796874998
1.51787109375
1.5146484375
1.5218994140625
1.5299560546875
1.53076171875
1.5444580078124999
1.53720703125
1.5492919921875
1.5517089843749998
1.5541259765625
1.5533203125
1.5436523437499998
1.5605712890624999
1.5637939453124998
1.5686279296874999
1.5799072265624998
1.6048828124999999
1.6379150390625
1.6242187499999998
1.5976318359375
1.5831298828125
1.577490234375
1.5637939453124998
1.5637939453124998
1.56298828125
1.558154296875
1.53720703125
1.533984375
1.53076171875
1.5283447265624999
1.53720703125
1.55009765625
1.5476806640624998
1.5251220703125
1.5331787109375
1.5323730468749999
1.5001464843749999
1.4912841796874998
1.448583984375
1.464697265625
1.5082031249999999
1.5347900390625
1.5218994140625
1.5073974609374998
1.5323730468749999
1.5323730468749999
1.5122314453124999
1.545263671875
1.5557373046874998
1.5678222656249998
1.561376953125
1.561376953125
1.5509033203125
1.5573486328125
1.5799072265624998
1.5895751953125
1.561376953125
1.5831298828125
1.609716796875
1.62744140625
1.5976318359375
1.5847412109374999
1.5525146484374999
1.5573486328125
1.5565429687499999
1.5589599609375
1.5484863281249999
1.5380126953125
1.5315673828124998
1.53720703125
1.5436523437499998
1.5460693359375
1.5517089843749998
1.5331787109375
1.5476806640624998
1.5323730468749999
1.5186767578125
1.5033691406249998
1.4912841796874998
1.5057861328125
1.496923828125
1.4864501953125
1.4920898437499999
1.5033691406249998
1.5122314453124999
1.5323730468749999
1.5380126953125
1.5323730468749999
1.5412353515625
1.5557373046874998
1.5597656249999998
1.5533203125
1.561376953125
1.5637939453124998
1.5525146484374999
1.5492919921875
1.5541259765625
1.545263671875
1.5597656249999998
1.590380859375
1.6242187499999998
1.6234130859375
1.6209960937499999
1.6234130859375
1.6451660156249999
1.6733642578124999
1.619384765625
1.5758789062499998
1.5621826171875
1.5645996093749999
1.5355957031249998
1.5122314453124999
1.3478759765625
1.4356933593749999
1.49853515625
1.52109375
1.5484863281249999
1.522705078125
1.5122314453124999
1.5033691406249998
1.513037109375
1.5235107421874998
1.5146484375
1.4953124999999998
1.5057861328125
1.490478515625
1.5057861328125
1.5275390624999998
1.538818359375
1.5323730468749999
1.5364013671874999
1.5323730468749999
1.5525146484374999
1.574267578125
1.59521484375
1.6177734375
1.6459716796875
1.6242187499999998
1.6121337890624998
1.590380859375
1.6137451171875
1.61455078125
1.6024658203125
1.5927978515624999
1.6089111328124999
1.606494140625
1.5863525390625
1.587158203125
1.6177734375
1.609716796875
1.5911865234375
1.5444580078124999
1.496923828125
1.4945068359375
1.5186767578125
1.5364013671874999
1.533984375
1.5154541015624998
1.5202880859374999
1.53720703125
1.5412353515625
1.5428466796875
1.6862548828125
2.7078369140625
2.0149658203125
1.7289550781249998
1.587158203125
1.5275390624999998
1.4953124999999998
1.4622802734375
1.43408203125
1.445361328125
1.4550292968749998
1.4477783203124999
1.4348876953124998
1.4437499999999999
1.4437499999999999
1.4413330078125
1.442138671875
1.4316650390624999
1.474365234375
1.4977294921875
1.525927734375
1.538818359375
1.5283447265624999
1.53720703125
1.5718505859374998
1.5718505859374998
1.546875
1.5073974609374998
1.5057861328125
1.513037109375
1.5154541015624998
1.53076171875
1.5202880859374999
1.4832275390624998
1.4767822265625
1.4993408203124998
1.4993408203124998
1.5009521484375
1.5082031249999999
1.5001464843749999
1.4791992187499998
1.4816162109375
1.474365234375
1.464697265625
1.4477783203124999
1.4518066406249999
1.4622802734375
1.4622802734375
1.46953125
1.47275390625
1.4993408203124998
1.522705078125
1.545263671875
1.5380126953125
1.5645996093749999
1.561376953125
1.51787109375
1.5355957031249998
1.5589599609375
1.5275390624999998
1.546875
1.56943359375
1.5605712890624999
1.5726562499999999
1.5799072265624998
1.577490234375
1.59521484375
1.5887695312499999
1.585546875
1.5847412109374999
1.5863525390625
1.5807128906249999
1.58232421875
1.6209960937499999
1.5807128906249999
1.5025634765625
1.4832275390624998
1.5017578125
1.5218994140625
1.52109375
1.5283447265624999
1.5355957031249998
1.5275390624999998
1.5162597656249999
1.49853515625
1.4872558593749998
1.480810546875
1.474365234375
1.4912841796874998
1.4977294921875
1.493701171875
1.47275390625
1.4800048828124999
1.5073974609374998
1.5146484375
1.5517089843749998
1.545263671875
1.5565429687499999
1.5887695312499999
1.6072998046875
1.5702392578125
1.5106201171875
1.5275390624999998
1.5541259765625
1.5621826171875
1.5960205078124998
1.6161621093749998
1.6218017578125
1.6072998046875
1.5895751953125
1.5911865234375
1.5911865234375
1.574267578125
1.5589599609375
1.5460693359375
1.5476806640624998
1.56943359375
1.5758789062499998
1.5517089843749998
1.5831298828125
1.5565429687499999
1.5243164062499999
1.4993408203124998
1.5114257812499998
1.509814453125
1.509814453125
1.5001464843749999
1.4912841796874998
1.480810546875
1.4550292968749998
1.46953125
1.5073974609374998
1.5138427734375
1.5251220703125
1.525927734375
1.5347900390625
1.5299560546875
1.5364013671874999
1.5380126953125
1.55009765625
1.5444580078124999
1.5364013671874999
1.5686279296874999
1.5525146484374999
1.5645996093749999
1.59521484375
1.5734619140625
1.58232421875
1.5782958984375
1.6072998046875
1.635498046875
1.6185791015625
1.6636962890625
1.5968261718749999
1.5597656249999998
1.5396240234374998
1.5525146484374999
1.5597656249999998
1.5412353515625
1.5428466796875
1.509814453125
1.5202880859374999
1.529150390625
1.5323730468749999
1.5315673828124998
1.558154296875
1.5218994140625
1.5380126953125
1.5186767578125
1.4759765624999999
1.4800048828124999
1.477587890625
1.474365234375
1.4735595703125
1.5106201171875
1.5082031249999999
1.5073974609374998
1.4993408203124998
1.496923828125
1.5364013671874999
1.5428466796875
1.5436523437499998
1.5565429687499999
1.5396240234374998
1.5605712890624999
1.5444580078124999
1.5323730468749999
1.5734619140625
1.5766845703124999
1.60166015625
1.6153564453125
1.5984375
1.6242187499999998
1.6105224609375
1.5919921874999998
1.5782958984375
1.5799072265624998
1.571044921875
1.5589599609375
1.5799072265624998
1.5662109375
1.5492919921875
1.5323730468749999
1.533984375
1.5331787109375
1.542041015625
1.542041015625
1.5702392578125
1.5251220703125
1.5323730468749999
1.5082031249999999
1.4791992187499998
1.46630859375
1.4711425781249998
1.4872558593749998
1.4816162109375
1.5186767578125
1.5138427734375
1.5251220703125
1.5275390624999998
1.5186767578125
1.51787109375
1.529150390625
1.5331787109375
1.5637939453124998
1.5678222656249998
1.5782958984375
1.53076171875
1.4848388671875
1.5396240234374998
1.5702392578125
1.5911865234375
1.6153564453125
1.6234130859375
1.6395263671875
1.6346923828125
1.61455078125
1.5831298828125
1.56298828125
1.5436523437499998
1.5799072265624998
1.5766845703124999
1.5428466796875
1.5541259765625
1.5396240234374998
1.5251220703125
1.5170654296875
1.522705078125
1.5315673828124998
1.561376953125
1.522705078125
1.5114257812499998
1.46953125
1.5090087890625
1.4961181640624999
1.445361328125
1.4671142578124998
1.48564453125
1.5299560546875
1.5355957031249998
1.5509033203125
1.5202880859374999
1.5323730468749999
1.5073974609374998
1.5267333984375
1.5525146484374999
1.5645996093749999
1.538818359375
1.554931640625
1.56298828125
1.52109375
1.5678222656249998
1.5726562499999999
1.5944091796875
1.5911865234375
1.5919921874999998
1.6161621093749998
1.6129394531249999
1.6177734375
1.6040771484374998
1.5831298828125
1.6008544921874999
1.5726562499999999
1.53076171875
1.5428466796875
1.5404296874999999
1.542041015625
1.533984375
1.5517089843749998
1.554931640625
1.5589599609375
1.5460693359375
1.4630859374999998
1.4912841796874998
1.513037109375
1.4759765624999999
1.490478515625
1.4864501953125
1.480810546875
1.4848388671875
1.5017578125
1.5114257812499998
1.5122314453124999
1.5146484375
1.533984375
1.52109375
1.5404296874999999
1.5533203125
1.5517089843749998
1.538818359375
1.55009765625
1.5476806640624998
1.5347900390625
1.56943359375
1.5750732421875
1.6000488281249998
1.6234130859375
1.6177734375
1.6218017578125
1.6072998046875
1.6000488281249998
1.6129394531249999
1.5863525390625
1.561376953125
1.593603515625
1.5807128906249999
1.6209960937499999
1.61455078125
1.5492919921875
1.5509033203125
1.5275390624999998
1.5186767578125
1.5396240234374998
1.61455078125
1.5589599609375
1.5484863281249999
1.529150390625
1.651611328125
1.4332763671875
1.3986328124999998
1.4042724609375
1.4316650390624999
1.4381103515625
1.4276367187499999
1.4252197265625
1.3784912109374998
1.368017578125
1.448583984375
1.4655029296875
1.5001464843749999
1.4961181640624999
1.4945068359375
1.5146484375
1.545263671875
1.2262207031249999
1.19560546875
1.2979248046874998
1.4074951171874999
1.445361328125
1.61455078125
1.8022705078124999
2.0625
2.115673828125
2.0906982421875
1.9843505859375
1.7370117187499998
1.5492919921875
1.4074951171874999
1.313232421875
1.2439453125
1.281005859375
1.3365966796875
1.3543212890624998
1.496923828125
1.4832275390624998
1.8715576171875
2.0375244140624997
2.10439453125
2.1946289062499997
2.0858642578124997
1.85625
1.5364013671874999
0.994189453125
0.6703125
0.539794921875
0.597802734375
0.7782714843749999
0.9434326171874999
1.239111328125
1.5726562499999999
1.7007568359374998
1.7926025390625
1.9118408203125
2.0012695312499997
1.9988525390624998
1.98193359375
1.5654052734375
1.3309570312499999
1.19560546875
1.1150390625
1.123095703125
1.20849609375
1.635498046875
2.0794189453125
2.3912109375
2.521728515625
2.534619140625
2.3654296875
2.2236328125
1.9545410156249998
1.69833984375
1.5573486328125
1.2503906249999999
1.123095703125
1.0852294921874999
1.0489746093749999
1.0892578124999999
1.3905761718749998
1.6806152343749998
1.9086181640625
2.0101318359375
1.9634033203124999
1.8344970703124999
1.6129394531249999
1.2536132812499998
0.9232910156249999
0.708984375
0.597802734375
0.5687988281249999
0.7460449218749999
0.9788818359375
1.2286376953125
1.4542236328125
1.6524169921874998
1.8264404296874999
2.0101318359375
2.054443359375
2.1197021484375
1.8119384765625
1.40185546875
1.3075927734375
1.1706298828125
1.252001953125
1.3027587890624999
1.5436523437499998
2.0044921875
2.4403564453124997
2.5241455078125
2.502392578125
2.3138671875
2.18818359375
2.018994140625
1.622607421875
1.4284423828125
1.2802001953125
1.1545166015625
1.071533203125
1.02158203125
0.9337646484375
1.22138671875
1.5766845703124999
1.7370117187499998
1.915869140625
1.98837890625
1.920703125
1.732177734375
1.34384765625
1.0175537109375
0.8612548828125
0.768603515625
0.7718261718749999
0.8064697265624999
1.05380859375
1.2721435546875
1.432470703125
1.65
1.832080078125
1.9867675781249998
2.064111328125
2.135009765625
1.770849609375
1.3946044921874998
1.1206787109375
1.0900634765625
1.0900634765625
1.147265625
1.393798828125
1.9545410156249998
2.32998046875
2.4629150390625
2.5612060546874997
2.487890625
2.26552734375
2.0391357421875
1.7829345703125
1.6234130859375
1.316455078125
1.15048828125
1.0014404296875
1.0046630859374999
0.990966796875
1.042529296875
1.72734375
1.89169921875
1.9956298828124999
2.0520263671875
1.9754882812499999
1.7507080078125
1.405078125
0.9716308593749999
0.6767578125
0.4068603515625
0.041088867187499996
0.0394775390625
0.040283203125
0.0845947265625
0.20302734374999998
0.36899414062499997
0.5792724609375
0.9804931640625
1.2366943359375
1.5243164062499999
1.7418457031249999
1.429248046875
1.5122314453124999
1.577490234375
1.7619873046874999
1.8538330078124998
2.0560546875
2.60712890625
2.9688720703125
3.0421875
3.043798828125
3.0429931640624996
2.8963623046875
2.7166992187499996
2.4919189453125
2.18173828125
1.9352050781249999
1.641943359375
1.3873535156249999
1.232666015625
1.1794921875
1.090869140625
1.5637939453124998
1.7120361328125
1.8441650390625
1.8788085937499999
1.89169921875
1.7418457031249999
1.38896484375
1.0272216796875
0.710595703125
0.443115234375
0.4519775390625
0.47373046874999997
0.5285156249999999
0.6582275390625
0.78310546875
1.0159423828125
1.1666015625
1.332568359375
1.5565429687499999
1.8046875
2.0069091796875
1.5541259765625
1.4437499999999999
1.4381103515625
1.426025390625
1.4671142578124998
1.6927001953124998
1.9924072265625
2.3839599609374997
2.673193359375
2.75537109375
2.68125
2.69091796875
2.6466064453125
2.487890625
2.2623046875
1.973876953125
1.7249267578124998
1.611328125
1.377685546875
1.3027587890624999
1.2286376953125
1.5315673828124998
1.641943359375
1.6854492187499999
1.7732666015624998
1.7394287109375
1.64677734375
1.4373046875
1.0175537109375
0.8177490234375
0.6614501953124999
0.533349609375
0.42941894531249997
0.49870605468749996
0.515625
0.6437255859375
0.7863281249999999
0.9482666015625
1.2705322265624999
1.4373046875
1.587158203125
1.7055908203124999
1.3478759765625
1.40830078125
1.3559326171875
1.3607666015625
1.4840332031249999
1.58232421875
2.0496093749999997
2.42666015625
2.6458007812499997
2.7722900390625
2.8625244140625
2.8069335937499997
2.7255615234375
2.5201171875
2.3549560546875
2.196240234375
1.9070068359374999
1.7152587890625
1.496923828125
1.3921875
1.1778808593749999
1.4091064453125
1.4735595703125
1.50498046875
1.5654052734375
1.606494140625
1.4864501953125
1.2350830078125
0.992578125
0.6735351562499999
0.4326416015625
0.323876953125
0.42619628906249996
0.4833984375
0.639697265625
0.7138183593749999
0.928125
1.1770751953125
1.33740234375
1.4928955078125
1.7531249999999998
1.87236328125
1.6846435546874998
1.4679199218749999
1.4961181640624999
1.4622802734375
1.4703369140625
1.533984375
1.791796875
2.280029296875
2.6659423828124997
2.7892089843749996
2.8093505859374996
2.7529541015624996
2.6820556640624997
2.591015625
2.2880859375
2.0737792968749997
1.9384277343749998
1.722509765625
1.4195800781249999
1.3075927734375
1.135986328125
1.3728515625
1.4711425781249998
1.5678222656249998
1.6234130859375
1.73056640625
1.5702392578125
1.3623779296874998
1.026416015625
0.71865234375
0.5115966796875
0.38107910156249997
0.307763671875
0.36899414062499997
0.514013671875
0.6872314453124999
0.87333984375
1.0143310546875
1.2987304687499999
1.4550292968749998
1.5573486328125
1.7619873046874999
1.513037109375
1.353515625
1.3309570312499999
1.41796875
1.4912841796874998
1.61455078125
1.8820312499999998
2.357373046875
2.6417724609374997
2.83271484375
2.8617187499999996
2.89072265625
2.76181640625
2.6546630859375
2.4274658203125
2.3654296875
1.9625976562499998
1.6346923828125
1.37607421875
1.1641845703125
1.1045654296875
1.2705322265624999
1.4413330078125
1.5605712890624999
1.6701416015625
1.6822265625
1.5968261718749999
1.4574462890625
1.09248046875
0.668701171875
0.5285156249999999
0.46083984375
0.362548828125
0.3101806640625
0.44230957031249996
0.6171386718749999
0.9047607421874999
1.01513671875
1.1690185546875
1.3140380859374998
1.56298828125
1.7466796875
1.651611328125
1.4655029296875
1.4316650390624999
1.4091064453125
1.4558349609374999
1.5678222656249998
1.6491943359374999
2.1229248046875
2.60712890625
2.8319091796875
2.8939453124999996
2.850439453125
2.827880859375
2.6385498046875
2.389599609375
2.2856689453125
2.0262451171875
1.7829345703125
1.493701171875
1.364794921875
1.1529052734375
1.13115234375
1.4187744140624998
1.4638916015624999
1.5235107421874998
1.6443603515624998
1.6282470703124998
1.464697265625
1.11826171875
0.8145263671874999
0.6670898437499999
0.5293212890625
0.48178710937499997
0.5446289062499999
0.6260009765625
0.8096923828125
0.9474609374999999
1.03125
1.16337890625
1.316455078125
1.4542236328125
1.6209960937499999
1.5597656249999998
1.368017578125
1.335791015625
1.30517578125
1.3825195312499998
1.55009765625
1.6822265625
2.1535400390625
2.462109375
2.73603515625
2.8230468749999997
2.744091796875
2.745703125
2.60068359375
2.4596923828125
2.302587890625
2.0810302734375
1.899755859375
1.7345947265625
1.5041748046874999
1.3688232421875
1.1754638671875
1.4469726562499998
1.4759765624999999
1.5122314453124999
1.6185791015625
1.5364013671874999
1.3672119140624999
1.13115234375
0.7452392578125
0.6340576171875
0.472119140625
0.36416015625
0.3955810546875
0.488232421875
0.53818359375
0.78310546875
0.9402099609375
1.1464599609375
1.3156494140625
1.5517089843749998
1.754736328125
1.9513183593749999
1.4356933593749999
1.409912109375
1.429248046875
1.445361328125
1.509814453125
1.6242187499999998
1.9505126953124998
2.392822265625
2.6192138671875
2.7303955078124997
2.818212890625
2.745703125
2.6739990234374997
2.5305908203125
2.3646240234375
2.1382324218749997
1.9875732421874999
1.7313720703125
1.5033691406249998
1.287451171875
1.232666015625
1.5275390624999998
1.5525146484374999
1.6290527343749999
1.722509765625
1.7168701171874998
1.5807128906249999
1.2254150390625
0.9031494140624999
0.7049560546875
0.49064941406249996
0.2892333984375
0.22236328125
0.410888671875
0.50595703125
0.6324462890625
0.77666015625
1.0707275390625
1.1915771484375
1.3631835937499999
1.585546875
1.7603759765625
1.3962158203125
1.3591552734374999
1.300341796875
1.2914794921875
1.40830078125
1.611328125
2.02705078125
2.49755859375
2.8214355468749996
2.914892578125
2.8939453124999996
2.88427734375
2.7271728515625
2.591015625
2.4355224609375
2.230078125
1.98837890625
1.80791015625
1.509814453125
1.3825195312499998
1.2399169921875
1.5202880859374999
1.6282470703124998
1.6814208984374999
1.7297607421874999
1.6282470703124998
1.5299560546875
1.2221923828124999
0.8604492187499999
0.575244140625
0.394775390625
0.294873046875
0.270703125
0.34885253906249997
0.48259277343749996
0.636474609375
0.8129150390625
1.0248046874999999
1.1867431640625
1.4437499999999999
1.571044921875
1.6717529296875
1.3897705078125
1.3212890625
1.3599609375
1.4268310546874998
1.48564453125
1.6209960937499999
1.9408447265625
2.5950439453125
2.784375
2.956787109375
2.9825683593749996
2.8431884765624997
2.689306640625
2.4169921875
2.2196044921875
2.0826416015625
1.8780029296874998
1.6363037109374998
1.4719482421874999
1.3543212890624998
1.12470703125
1.3728515625
1.53720703125
1.6814208984374999
1.7072021484375
1.6781982421875
1.5799072265624998
1.271337890625
0.9998291015624999
0.6767578125
0.475341796875
0.3843017578125
0.4004150390625
0.42539062499999997
0.5373779296875
0.64775390625
0.855615234375
1.1279296875
1.2906738281249999
1.4606689453125
1.6024658203125
1.6669189453125
1.5597656249999998
1.364794921875
1.4389160156249998
1.4058837890625
1.4687255859375
1.6081054687499998
1.8457763671874998
2.3452880859375
2.7892089843749996
2.9124755859375
2.9181152343749996
2.9020019531249996
2.7755126953125
2.6764160156249996
2.505615234375
2.1551513671875
1.9948242187499998
1.8103271484374999
1.5235107421874998
1.3124267578125
1.158544921875
1.22783203125
1.529150390625
1.5919921874999998
1.5791015625
1.6161621093749998
1.5025634765625
1.3954101562499999
0.9643798828125
0.6888427734375
0.3843017578125
0.30856933593749997
0.3158203125
0.2972900390625
0.3262939453125
0.5824951171875
0.720263671875
0.8483642578124999
1.1174560546874999
1.4993408203124998
1.5976318359375
1.7893798828124998
1.703173828125
1.490478515625
1.4316650390624999
1.5122314453124999
1.5267333984375
1.5919921874999998
1.7877685546875
2.3420654296875
2.537841796875
2.792431640625
2.924560546875
2.900390625
2.7932373046874996
2.6280761718749996
2.3920166015624997
2.2187988281249997
1.9658203125
1.71123046875
1.5202880859374999
1.3188720703124999
1.1029541015625
1.1722412109375
1.4107177734374998
1.5299560546875
1.585546875
1.5605712890624999
1.5275390624999998
1.4364990234375
1.10859375
0.816943359375
0.6147216796875
0.510791015625
0.452783203125
0.46567382812499997
0.5470458984375
0.6904541015625
0.8830078124999999
1.1045654296875
1.235888671875
1.4477783203124999
1.6524169921874998
1.7716552734375
1.6346923828125
1.3784912109374998
1.3688232421875
1.429248046875
1.377685546875
1.5114257812499998
1.5976318359375
2.12373046875
2.5813476562499997
2.747314453125
2.9076416015624997
2.9769287109375
2.8560791015625
2.7263671874999997
2.5370361328124997
2.333203125
2.0085205078125
1.7442626953125
1.3543212890624998
1.0650878906249999
0.952294921875
0.8660888671875
1.3212890625
1.4558349609374999
1.5525146484374999
1.6604736328124998
1.651611328125
1.609716796875
1.2616699218749998
0.9563232421875
0.7001220703125
0.55751953125
0.5115966796875
0.5406005859374999
0.6276123046875
0.7943847656249999
0.990966796875
1.206884765625
1.5082031249999999
1.6282470703124998
1.7821289062499999
1.8981445312499998
1.7893798828124998
1.5009521484375
1.3422363281249998
1.3092041015625
1.2528076171875
1.2890625
1.5436523437499998
2.028662109375
2.3630126953125
2.5950439453125
2.7481201171875
2.7851806640624996
2.6885009765624996
2.5571777343749997
2.367041015625
2.1301757812499997
1.8344970703124999
1.63388671875
1.4332763671875
1.3156494140625
1.12470703125
1.1367919921875
1.56943359375
1.654833984375
1.732177734375
1.7450683593749998
1.72734375
1.6161621093749998
1.27294921875
0.9676025390624999
0.662255859375
0.5857177734375
0.5712158203125
0.6292236328124999
0.775048828125
0.9821044921875
1.3285400390625
1.5114257812499998
1.7426513671875
1.8900878906249998
1.998046875
2.0568603515625
2.05927734375
3.0421875
2.9253662109375
1.1456542968749999
1.327734375
1.4888671875
1.52109375
1.5235107421874998
1.5323730468749999
1.4928955078125
1.4816162109375
1.5009521484375
1.4872558593749998
1.5017578125
1.5138427734375
1.5162597656249999
1.4767822265625
1.4574462890625
1.4783935546875
1.4832275390624998
1.47275390625
1.477587890625
1.542041015625
0.0394775390625
0.562353515625
1.9489013671875
1.670947265625
1.542041015625
1.5380126953125
1.525927734375
1.561376953125
1.5605712890624999
1.546875
1.5605712890624999
1.5702392578125
1.56943359375
1.5863525390625
1.5766845703124999
1.5782958984375
1.482421875
1.53720703125
1.5782958984375
1.5436523437499998
1.5251220703125
1.55009765625
1.6169677734374999
1.3349853515624999
1.5911865234375
1.8425537109374999
1.7458740234374999
1.66611328125
1.6532226562499999
1.6435546875
1.609716796875
1.7176757812499999
1.6733642578124999
1.59521484375
1.59521484375
1.5573486328125
1.5589599609375
1.558154296875
1.5347900390625
1.53076171875
1.5114257812499998
1.513037109375
1.5073974609374998
1.3599609375
1.413134765625
1.4920898437499999
1.4783935546875
1.4791992187499998
1.4364990234375
1.47275390625
1.4445556640625
1.4977294921875
1.5041748046874999
1.5162597656249999
1.1641845703125
1.3744628906249998
1.513037109375
1.561376953125
1.577490234375
1.5831298828125
1.5911865234375
1.59521484375
1.5267333984375
1.5815185546875
1.6056884765625
1.6379150390625
1.6403320312499998
1.6991455078125
1.6910888671875
1.6846435546874998
1.6491943359374999
1.5984375
1.5670166015625
1.5323730468749999
1.4920898437499999
1.5041748046874999
1.542041015625
1.5863525390625
1.5492919921875
1.538818359375
1.5525146484374999
1.561376953125
1.5444580078124999
1.53720703125
1.5533203125
1.53076171875
1.5146484375
1.5001464843749999
1.4993408203124998
1.5001464843749999
1.4655029296875
1.48564453125
1.542041015625
1.5186767578125
1.525927734375
1.5009521484375
1.5033691406249998
1.5194824218749998
1.53076171875
1.5162597656249999
1.533984375
1.5621826171875
1.5525146484374999
1.545263671875
1.5476806640624998
1.56943359375
1.5847412109374999
1.5831298828125
1.6234130859375
1.6201904296874998
1.6201904296874998
1.609716796875
1.6048828124999999
1.5758789062499998
1.5839355468749998
1.60166015625
1.6314697265625
1.5984375
1.5476806640624998
1.5533203125
1.545263671875
1.546875
1.5428466796875
1.533984375
1.509814453125
1.5315673828124998
1.5428466796875
1.5251220703125
1.538818359375
1.5654052734375
1.5146484375
1.4848388671875
1.4767822265625
1.4679199218749999
1.474365234375
1.4912841796874998
1.5186767578125
1.53076171875
1.5750732421875
1.5605712890624999
1.5444580078124999
1.5404296874999999
1.538818359375
1.55009765625
1.5573486328125
1.6266357421875
1.5863525390625
1.5702392578125
1.5879638671874998
1.561376953125
1.5750732421875
1.590380859375
1.5895751953125
1.5984375
1.5944091796875
1.5847412109374999
1.574267578125
1.5460693359375
1.55009765625
1.6072998046875
1.5597656249999998
1.542041015625
1.5331787109375
1.5170654296875
1.4501953125
1.5436523437499998
1.5444580078124999
1.5283447265624999
1.5380126953125
1.496923828125
1.5396240234374998
1.5162597656249999
1.525927734375
1.4888671875
1.474365234375
1.4711425781249998
1.5960205078124998
1.5565429687499999
1.4864501953125
1.5017578125
1.5106201171875
1.5170654296875
1.5299560546875
1.5218994140625
1.4574462890625
1.5347900390625
1.5347900390625
1.5444580078124999
1.5412353515625
1.5565429687499999
1.5557373046874998
1.5799072265624998
1.5895751953125
1.6072998046875
1.6298583984375
1.63388671875
1.619384765625
1.6451660156249999
1.5960205078124998
1.5750732421875
1.5654052734375
1.5460693359375
1.6040771484374998
1.67578125
1.58232421875
1.5235107421874998
1.5138427734375
1.506591796875
1.5009521484375
1.5106201171875
1.51787109375
1.5138427734375
1.509814453125
1.482421875
1.5815185546875
1.4840332031249999
1.474365234375
1.47275390625
1.4759765624999999
1.46953125
1.4751708984374998
1.496923828125
1.5017578125
1.5138427734375
1.5186767578125
1.5154541015624998
1.5275390624999998
1.5355957031249998
1.5380126953125
1.5460693359375
1.5404296874999999
1.5460693359375
1.56298828125
1.558154296875
1.56943359375
1.5863525390625
1.59521484375
1.5944091796875
1.593603515625
1.5887695312499999
1.5863525390625
1.577490234375
1.5637939453124998
1.554931640625
1.5404296874999999
1.5484863281249999
1.5702392578125
1.5565429687499999
1.5436523437499998
1.5517089843749998
1.5525146484374999
1.5444580078124999
1.5299560546875
1.5122314453124999
1.5090087890625
1.5218994140625
1.5057861328125
1.4872558593749998
1.4800048828124999
1.490478515625
1.4961181640624999
1.4928955078125
1.4920898437499999
1.5057861328125
1.5186767578125
1.5267333984375
1.5380126953125
1.5573486328125
1.5847412109374999
1.55009765625
1.5533203125
1.5428466796875
1.5428466796875
1.5428466796875
1.558154296875
1.5678222656249998
1.5726562499999999
1.5847412109374999
1.6024658203125
1.5960205078124998
1.593603515625
1.5879638671874998
1.577490234375
1.574267578125
1.5637939453124998
1.5347900390625
1.5460693359375
1.5412353515625
1.5460693359375
1.542041015625
1.5331787109375
1.5428466796875
1.533984375
1.529150390625
1.5347900390625
1.51787109375
1.5114257812499998
1.5090087890625
1.5025634765625
1.4880615234374999
1.4687255859375
1.48564453125
1.48564453125
1.5057861328125
1.4993408203124998
1.5090087890625
1.52109375
1.529150390625
1.5275390624999998
1.5323730468749999
1.5484863281249999
1.5517089843749998
1.5492919921875
1.5484863281249999
1.5476806640624998
1.5517089843749998
1.5597656249999998
1.5750732421875
1.5847412109374999
1.5863525390625
1.6072998046875
1.611328125
1.6024658203125
1.6000488281249998
1.5919921874999998
1.5807128906249999
1.5670166015625
1.5565429687499999
1.5573486328125
1.5509033203125
1.5484863281249999
1.5323730468749999
1.53720703125
1.5444580078124999
1.5331787109375
1.5275390624999998
1.5331787109375
1.5331787109375
1.5162597656249999
1.5017578125
1.5041748046874999
1.4888671875
1.4816162109375
1.4816162109375
1.4800048828124999
1.490478515625
1.5001464843749999
1.509814453125
1.513037109375
1.5251220703125
1.529150390625
1.5315673828124998
1.55009765625
1.5541259765625
1.5533203125
1.554931640625
1.561376953125
1.5686279296874999
1.5686279296874999
1.577490234375
1.587158203125
1.5976318359375
1.60166015625
1.609716796875
1.606494140625
1.6081054687499998
1.5887695312499999
1.574267578125
1.5702392578125
1.5645996093749999
1.5533203125
1.554931640625
1.5428466796875
1.533984375
1.53720703125
1.5315673828124998
1.5347900390625
1.5275390624999998
1.52109375
1.5235107421874998
1.5162597656249999
1.4961181640624999
1.493701171875
1.4840332031249999
1.4783935546875
1.4848388671875
1.477587890625
1.48564453125
1.496923828125
1.5057861328125
1.5114257812499998
1.5251220703125
1.5396240234374998
1.5492919921875
1.5557373046874998
1.5509033203125
1.5533203125
1.5597656249999998
1.5565429687499999
1.5396240234374998
1.5654052734375
1.571044921875
1.5799072265624998
1.5887695312499999
1.5984375
1.6048828124999999
1.6161621093749998
1.5984375
1.5992431640625
1.585546875
1.5799072265624998
1.571044921875
1.5654052734375
1.55009765625
1.5412353515625
1.5380126953125
1.5412353515625
1.545263671875
1.5396240234374998
1.533984375
1.5355957031249998
1.5267333984375
1.5114257812499998
1.506591796875
1.493701171875
1.5017578125
1.482421875
1.4703369140625
1.4679199218749999
1.4920898437499999
1.4993408203124998
1.49853515625
1.5154541015624998
1.5243164062499999
1.5380126953125
1.5428466796875
1.545263671875
1.55009765625
1.5476806640624998
1.561376953125
1.5597656249999998
1.545263671875
1.5645996093749999
1.574267578125
1.5791015625
1.587158203125
1.5968261718749999
1.6105224609375
1.6129394531249999
1.606494140625
1.6000488281249998
1.5831298828125
1.5726562499999999
1.5686279296874999
1.571044921875
1.561376953125
1.5533203125
1.5380126953125
1.5396240234374998
1.5380126953125
1.5251220703125
1.53720703125
1.5315673828124998
1.5323730468749999
1.5444580078124999
1.5154541015624998
1.5114257812499998
1.4872558593749998
1.482421875
1.482421875
1.4800048828124999
1.4920898437499999
1.5017578125
1.50498046875
1.522705078125
1.5218994140625
1.5275390624999998
1.53076171875
1.5460693359375
1.5492919921875
1.5557373046874998
1.5541259765625
1.5428466796875
1.5509033203125
1.5533203125
1.5734619140625
1.5791015625
1.585546875
1.6048828124999999
1.6072998046875
1.619384765625
1.6008544921874999
1.5984375
1.577490234375
1.5678222656249998
1.5662109375
1.5541259765625
1.5565429687499999
1.5476806640624998
1.5396240234374998
1.53720703125
1.533984375
1.5364013671874999
1.5347900390625
1.5251220703125
1.5355957031249998
1.5170654296875
1.5170654296875
1.4961181640624999
1.4888671875
1.4832275390624998
1.4832275390624998
1.474365234375
1.4872558593749998
1.4888671875
1.5090087890625
1.5154541015624998
1.5162597656249999
1.5323730468749999
1.5355957031249998
1.5396240234374998
1.5436523437499998
1.5460693359375
1.5525146484374999
1.5525146484374999
1.5541259765625
1.5565429687499999
1.5726562499999999
1.5791015625
1.5863525390625
1.593603515625
1.609716796875
1.6185791015625
1.6081054687499998
1.5984375
1.590380859375
1.577490234375
1.56943359375
1.5565429687499999
1.554931640625
1.5517089843749998
1.5428466796875
1.5364013671874999
1.5331787109375
1.5323730468749999
1.5315673828124998
1.529150390625
1.51787109375
1.5235107421874998
1.509814453125
1.50498046875
1.4912841796874998
1.4840332031249999
1.482421875
1.482421875
1.490478515625
1.496923828125
1.49853515625
1.5090087890625
1.5202880859374999
1.525927734375
1.5380126953125
1.5484863281249999
1.55009765625
1.5436523437499998
1.545263671875
1.5509033203125
1.5573486328125
1.5557373046874998
1.5726562499999999
1.56943359375
1.5927978515624999
1.6024658203125
1.6000488281249998
1.6121337890624998
1.6121337890624998
1.6024658203125
1.5911865234375
1.5863525390625
1.5726562499999999
1.561376953125
1.5533203125
1.5517089843749998
1.5444580078124999
1.5428466796875
1.53076171875
1.5331787109375
1.525927734375
1.5331787109375
1.5331787109375
1.5162597656249999
1.5114257812499998
1.5033691406249998
1.4920898437499999
1.4848388671875
1.480810546875
1.4783935546875
1.480810546875
1.490478515625
1.5057861328125
1.5138427734375
1.5235107421874998
1.53720703125
1.5355957031249998
1.5436523437499998
1.542041015625
1.5509033203125
1.5525146484374999
1.5597656249999998
1.5597656249999998
1.5597656249999998
1.56298828125
1.5678222656249998
1.5887695312499999
1.6000488281249998
1.6056884765625
1.6105224609375
1.6105224609375
1.5992431640625
1.5839355468749998
1.5766845703124999
1.5662109375
1.5670166015625
1.5565429687499999
1.5517089843749998
1.5396240234374998
1.538818359375
1.533984375
1.5396240234374998
1.53076171875
1.5275390624999998
1.533984375
1.5186767578125
1.5106201171875
1.5090087890625
1.4912841796874998
1.496923828125
1.4783935546875
1.480810546875
1.48564453125
1.4896728515625
1.49853515625
1.5138427734375
1.5235107421874998
1.5275390624999998
1.5355957031249998
1.542041015625
1.5476806640624998
1.5460693359375
1.5533203125
1.5533203125
1.558154296875
1.5517089843749998
1.5637939453124998
1.5839355468749998
1.5782958984375
1.6000488281249998
1.6081054687499998
1.6105224609375
1.6121337890624998
1.6040771484374998
1.59521484375
1.5863525390625
1.577490234375
1.5662109375
1.5637939453124998
1.5533203125
1.538818359375
1.5476806640624998
1.5436523437499998
1.5355957031249998
1.529150390625
1.5275390624999998
1.5323730468749999
1.5267333984375
1.5154541015624998
1.5073974609374998
1.496923828125
1.4896728515625
1.4896728515625
1.482421875
1.4840332031249999
1.4872558593749998
1.5017578125
1.5033691406249998
1.5186767578125
1.5218994140625
1.5364013671874999
1.5412353515625
1.5428466796875
1.5484863281249999
1.5509033203125
1.5573486328125
1.5573486328125
1.5645996093749999
1.5645996093749999
1.5831298828125
1.5847412109374999
1.5911865234375
1.6072998046875
1.6153564453125
1.6153564453125
1.5992431640625
1.59521484375
1.5831298828125
1.5670166015625
1.5645996093749999
1.5621826171875
1.5396240234374998
1.5444580078124999
1.538818359375
1.5364013671874999
1.5299560546875
1.52109375
1.5243164062499999
1.5283447265624999
1.5251220703125
1.5170654296875
1.5033691406249998
1.5009521484375
1.4928955078125
1.474365234375
1.4751708984374998
1.477587890625
1.4840332031249999
1.496923828125
1.5154541015624998
1.5146484375
1.5218994140625
1.533984375
1.533984375
1.5573486328125
1.545263671875
1.5597656249999998
1.558154296875
1.5533203125
1.5476806640624998
1.5645996093749999
1.5831298828125
1.5799072265624998
1.5944091796875
1.6056884765625
1.6169677734374999
1.6201904296874998
1.603271484375
1.590380859375
1.58232421875
1.577490234375
1.5597656249999998
1.5637939453124998
1.55009765625
1.545263671875
1.5484863281249999
1.53076171875
1.538818359375
1.5251220703125
1.5275390624999998
1.525927734375
1.5218994140625
1.5138427734375
1.5057861328125
1.496923828125
1.4864501953125
1.4791992187499998
1.4679199218749999
1.4840332031249999
1.4864501953125
1.493701171875
1.5025634765625
1.5218994140625
1.5275390624999998
1.5331787109375
1.545263671875
1.545263671875
1.5525146484374999
1.546875
1.5557373046874998
1.5621826171875
1.5517089843749998
1.571044921875
1.5734619140625
1.5919921874999998
1.6024658203125
1.60166015625
1.6161621093749998
1.6153564453125
1.6072998046875
1.5976318359375
1.585546875
1.5750732421875
1.5678222656249998
1.561376953125
1.5509033203125
1.5484863281249999
1.5355957031249998
1.5323730468749999
1.5299560546875
1.533984375
1.5267333984375
1.5364013671874999
1.5186767578125
1.5073974609374998
1.506591796875
1.496923828125
1.4880615234374999
1.4791992187499998
1.47275390625
1.474365234375
1.4896728515625
1.4993408203124998
1.5033691406249998
1.51787109375
1.53076171875
1.5267333984375
1.5412353515625
1.538818359375
1.545263671875
1.5484863281249999
1.5573486328125
1.56298828125
1.5541259765625
1.56943359375
1.574267578125
1.5791015625
1.59521484375
1.609716796875
1.611328125
1.625830078125
1.6185791015625
1.6048828124999999
1.5895751953125
1.574267578125
1.5645996093749999
1.5654052734375
1.5565429687499999
1.546875
1.5460693359375
1.5484863281249999
1.5355957031249998
1.5323730468749999
1.525927734375
1.5275390624999998
1.5283447265624999
1.5162597656249999
1.5138427734375
1.5009521484375
1.4832275390624998
1.4872558593749998
1.4751708984374998
1.4703369140625
1.4767822265625
1.4928955078125
1.506591796875
1.5122314453124999
1.5243164062499999
1.5315673828124998
1.5364013671874999
1.5428466796875
1.5492919921875
1.5589599609375
1.5509033203125
1.5662109375
1.5541259765625
1.5597656249999998
1.574267578125
1.5895751953125
1.5976318359375
1.6040771484374998
1.6129394531249999
1.6298583984375
1.6209960937499999
1.5992431640625
1.5839355468749998
1.5847412109374999
1.5678222656249998
1.5621826171875
1.5605712890624999
1.5436523437499998
1.5364013671874999
1.5347900390625
1.5323730468749999
1.5347900390625
1.5275390624999998
1.5251220703125
1.5315673828124998
1.5146484375
1.5001464843749999
1.5017578125
1.4848388671875
1.4767822265625
1.4735595703125
1.477587890625
1.4735595703125
1.4888671875
1.4872558593749998
1.5138427734375
1.5235107421874998
1.5299560546875
1.5380126953125
1.5484863281249999
1.5509033203125
1.5517089843749998
1.5589599609375
1.5589599609375
1.5662109375
1.561376953125
1.5726562499999999
1.5799072265624998
1.6056884765625
1.6137451171875
1.6089111328124999
1.6346923828125
1.6201904296874998
1.611328125
1.5919921874999998
1.58232421875
1.574267578125
1.56298828125
1.5541259765625
1.5436523437499998
1.5476806640624998
1.5347900390625
1.5347900390625
1.5202880859374999
1.5235107421874998
1.533984375
1.5251220703125
1.5138427734375
1.5090087890625
1.4977294921875
1.4791992187499998
1.4671142578124998
1.4679199218749999
1.4735595703125
1.47275390625
1.4888671875
1.4961181640624999
1.5009521484375
1.5218994140625
1.525927734375
1.5355957031249998
1.5476806640624998
1.5444580078124999
1.5637939453124998
1.5589599609375
1.5589599609375
1.5662109375
1.5573486328125
1.585546875
1.590380859375
1.609716796875
1.611328125
1.6129394531249999
1.635498046875
1.6282470703124998
1.611328125
1.6008544921874999
1.587158203125
1.5662109375
1.56943359375
1.5509033203125
1.5436523437499998
1.5404296874999999
1.545263671875
1.5355957031249998
1.5194824218749998
1.5202880859374999
1.5186767578125
1.5186767578125
1.5082031249999999
1.5057861328125
1.4928955078125
1.4832275390624998
1.4703369140625
1.4598632812499999
1.464697265625
1.4703369140625
1.4783935546875
1.4953124999999998
1.5090087890625
1.5194824218749998
1.5267333984375
1.53720703125
1.5412353515625
1.5509033203125
1.5573486328125
1.558154296875
1.56298828125
1.5686279296874999
1.561376953125
1.5799072265624998
1.593603515625
1.6048828124999999
1.6089111328124999
1.6322753906249998
1.64677734375
1.6379150390625
1.6177734375
1.609716796875
1.5911865234375
1.5807128906249999
1.5621826171875
1.5557373046874998
1.5541259765625
1.5396240234374998
1.5315673828124998
1.525927734375
1.5275390624999998
1.522705078125
1.5218994140625
1.53076171875
1.506591796875
1.4977294921875
1.490478515625
1.482421875
1.456640625
1.4526123046875
1.45341796875
1.4630859374999998
1.4767822265625
1.480810546875
1.5025634765625
1.51787109375
1.5235107421874998
1.5347900390625
1.5492919921875
1.5565429687499999
1.55009765625
1.5621826171875
1.561376953125
1.5670166015625
1.5670166015625
1.5847412109374999
1.590380859375
1.6024658203125
1.6185791015625
1.6290527343749999
1.6459716796875
1.641943359375
1.6322753906249998
1.622607421875
1.5919921874999998
1.5799072265624998
1.56943359375
1.554931640625
1.542041015625
1.5355957031249998
1.5355957031249998
1.5243164062499999
1.5331787109375
1.51787109375
1.5170654296875
1.5243164062499999
1.509814453125
1.49853515625
1.480810546875
1.4679199218749999
1.4606689453125
1.4413330078125
1.4413330078125
1.448583984375
1.4655029296875
1.4872558593749998
1.4912841796874998
1.506591796875
1.5243164062499999
1.53720703125
1.5460693359375
1.5573486328125
1.5573486328125
1.5637939453124998
1.5726562499999999
1.5734619140625
1.56298828125
1.5815185546875
1.6024658203125
1.6169677734374999
1.6282470703124998
1.6411376953124999
1.6540283203125
1.6620849609375
1.6443603515624998
1.62744140625
1.6072998046875
1.587158203125
1.5662109375
1.5533203125
1.5484863281249999
1.538818359375
1.525927734375
1.5218994140625
1.5218994140625
1.5170654296875
1.5162597656249999
1.525927734375
1.5025634765625
1.4928955078125
1.4719482421874999
1.4501953125
1.44052734375
1.4373046875
1.432470703125
1.44052734375
1.4526123046875
1.4687255859375
1.4945068359375
1.5041748046874999
1.51787109375
1.5331787109375
1.5492919921875
1.561376953125
1.5718505859374998
1.5702392578125
1.574267578125
1.5750732421875
1.5645996093749999
1.587158203125
1.6072998046875
1.6234130859375
1.638720703125
1.6653076171874999
1.6781982421875
1.6814208984374999
1.6588623046875
1.6403320312499998
1.6161621093749998
1.59521484375
1.5782958984375
1.5533203125
1.546875
1.5380126953125
1.5235107421874998
1.522705078125
1.5090087890625
1.5073974609374998
1.50498046875
1.5114257812499998
1.513037109375
1.4832275390624998
1.4598632812499999
1.4461669921875
1.4195800781249999
1.4123291015625
1.4123291015625
1.413134765625
1.4276367187499999
1.448583984375
1.4735595703125
1.49853515625
1.5243164062499999
1.542041015625
1.5597656249999998
1.5621826171875
1.5734619140625
1.5758789062499998
1.585546875
1.5911865234375
1.5726562499999999
1.5919921874999998
1.6314697265625
1.6403320312499998
1.667724609375
1.6951171875
1.7047851562499998
1.716064453125
1.69189453125
1.65966796875
1.6346923828125
1.5992431640625
1.5791015625
1.56298828125
1.5404296874999999
1.5218994140625
1.513037109375
1.5106201171875
1.5017578125
1.5025634765625
1.4872558593749998
1.509814453125
1.4977294921875
1.4630859374999998
1.4348876953124998
1.416357421875
1.3921875
1.3801025390625
1.361572265625
1.3752685546874999
1.3962158203125
1.4477783203124999
1.47275390625
1.5001464843749999
1.53076171875
1.5436523437499998
1.5678222656249998
1.574267578125
1.585546875
1.5984375
1.6072998046875
1.5992431640625
1.5847412109374999
1.60166015625
1.6483886718749998
1.6798095703125
1.7072021484375
1.73056640625
1.751513671875
1.7732666015624998
1.732177734375
1.6814208984374999
1.6371093749999999
1.60166015625
1.5637939453124998
1.5412353515625
1.5218994140625
1.5009521484375
1.4912841796874998
1.4848388671875
1.4832275390624998
1.4800048828124999
1.47275390625
1.4767822265625
1.4791992187499998
1.432470703125
1.3978271484375
1.3712402343749999
1.3309570312499999
1.3180664062499998
1.3019531249999998
1.3349853515624999
1.3736572265625
1.4107177734374998
1.4759765624999999
1.5114257812499998
1.545263671875
1.5654052734375
1.6048828124999999
1.6129394531249999
1.6266357421875
1.6322753906249998
1.6427490234375
1.6234130859375
1.5919921874999998
1.6161621093749998
1.7104248046875
1.7458740234374999
1.796630859375
1.82080078125
1.835302734375
1.8635009765625
1.7700439453124999
1.6935058593749999
1.622607421875
1.571044921875
1.5283447265624999
1.506591796875
1.4703369140625
1.4518066406249999
1.442138671875
1.4373046875
1.4389160156249998
1.4397216796874999
1.4493896484375
1.4526123046875
1.5001464843749999
1.3664062499999998
1.3204833984375
1.2697265624999998
1.2374999999999998
1.2044677734375
1.21171875
1.2568359375
1.3599609375
1.4348876953124998
1.490478515625
1.5444580078124999
1.6048828124999999
1.6330810546874999
1.6483886718749998
1.6620849609375
1.6653076171874999
1.6669189453125
1.6733642578124999
1.6725585937499998
1.662890625
1.5992431640625
1.77890625
1.8095214843749998
1.85625
1.9029785156249999
1.9037841796875
1.9384277343749998
1.8087158203125
1.7088134765624998
1.63388671875
1.5654052734375
1.4993408203124998
1.47275390625
1.442138671875
1.429248046875
1.4195800781249999
1.4155517578124999
1.413134765625
1.4244140625
1.429248046875
1.4228027343749998
1.4912841796874998
1.3502929687499998
1.3172607421875
1.2673095703125
1.22783203125
1.21494140625
1.1899658203124999
1.2536132812499998
1.3349853515624999
1.4074951171874999
1.4945068359375
1.55009765625
1.5927978515624999
1.6306640625
1.64677734375
1.66611328125
1.6773925781249999
1.67578125
1.6822265625
1.6717529296875
1.662890625
1.603271484375
1.7595703125
1.796630859375
1.8554443359375
1.8876708984375
1.9029785156249999
1.9408447265625
1.8328857421875
1.7136474609374999
1.6218017578125
1.558154296875
1.5138427734375
1.4767822265625
1.4598632812499999
1.442138671875
1.4236083984374999
1.426025390625
1.4236083984374999
1.4228027343749998
1.4195800781249999
1.4308593749999998
1.5146484375
1.3921875
1.3229003906249999
1.2785888671874999
1.232666015625
1.21494140625
1.187548828125
1.2383056640624999
1.3059814453124998
1.4058837890625
1.4759765624999999
1.5323730468749999
1.5839355468749998
1.622607421875
1.64677734375
1.6725585937499998
1.6717529296875
1.6717529296875
1.6798095703125
1.667724609375
1.6620849609375
1.5807128906249999
1.7555419921875
1.7974365234374998
1.8304687499999999
1.8884765625
1.909423828125
1.93681640625
1.8941162109374998
1.7281494140625
1.6475830078125
1.5791015625
1.5090087890625
1.474365234375
1.4493896484375
1.4348876953124998
1.4203857421875
1.405078125
1.4203857421875
1.4203857421875
1.4308593749999998
1.4244140625
1.5138427734375
1.38896484375
1.3212890625
1.2802001953125
1.2334716796875
1.216552734375
1.197216796875
1.2334716796875
1.3043701171875
1.380908203125
1.474365234375
1.5283447265624999
