1.561376953125
1.5517089843749998
1.56943359375
1.5839355468749998
1.6000488281249998
1.6056884765625
1.6137451171875
1.6137451171875
1.6121337890624998
1.606494140625
1.590380859375
1.5791015625
1.56943359375
1.5597656249999998
1.55009765625
1.5517089843749998
1.546875
1.5323730468749999
1.5355957031249998
1.5364013671874999
1.5323730468749999
1.5275390624999998
1.5315673828124998
1.525927734375
1.5057861328125
1.4945068359375
1.4832275390624998
1.4840332031249999
1.4928955078125
1.4767822265625
1.4928955078125
1.4977294921875
1.4993408203124998
1.506591796875
1.5202880859374999
1.53076171875
1.5355957031249998
1.5484863281249999
1.5444580078124999
1.5517089843749998
1.55009765625
1.5533203125
1.5645996093749999
1.5678222656249998
1.5702392578125
1.58232421875
1.5927978515624999
1.6081054687499998
1.611328125
1.6218017578125
1.606494140625
1.5984375
1.5919921874999998
1.5782958984375
1.5686279296874999
1.56298828125
1.558154296875
1.5525146484374999
1.538818359375
1.545263671875
1.53076171875
1.5315673828124998
1.529150390625
1.5315673828124998
1.5275390624999998
1.5194824218749998
1.5122314453124999
1.5041748046874999
1.4920898437499999
1.480810546875
1.4864501953125
1.4751708984374998
1.4864501953125
1.496923828125
1.4977294921875
1.5154541015624998
1.5243164062499999
1.5275390624999998
1.5380126953125
1.5428466796875
1.5460693359375
1.5484863281249999
1.5597656249999998
1.5589599609375
1.5621826171875
1.5541259765625
1.5702392578125
1.5887695312499999
1.585546875
1.5992431640625
1.611328125
1.6169677734374999
1.6081054687499998
1.6008544921874999
1.59521484375
1.5839355468749998
1.5782958984375
1.558154296875
1.5565429687499999
1.5484863281249999
1.5460693359375
1.542041015625
1.5355957031249998
1.5315673828124998
1.5323730468749999
1.5275390624999998
1.5323730468749999
1.5162597656249999
1.5194824218749998
1.496923828125
1.490478515625
1.4888671875
1.482421875
1.4767822265625
1.4880615234374999
1.4920898437499999
1.493701171875
1.5082031249999999
1.51787109375
1.5315673828124998
1.5355957031249998
1.5436523437499998
1.5517089843749998
1.5565429687499999
1.5484863281249999
1.5565429687499999
1.561376953125
1.5621826171875
1.5702392578125
1.585546875
1.5968261718749999
1.6024658203125
1.609716796875
1.6185791015625
1.611328125
1.6048828124999999
1.5944091796875
1.585546875
1.574267578125
1.5621826171875
1.5557373046874998
1.5436523437499998
1.5509033203125
1.5404296874999999
1.5380126953125
1.5347900390625
1.5275390624999998
1.53076171875
1.5331787109375
1.522705078125
1.513037109375
1.506591796875
1.496923828125
1.4896728515625
1.4767822265625
1.477587890625
1.4888671875
1.48564453125
1.49853515625
1.5017578125
1.5146484375
1.5283447265624999
1.538818359375
1.53720703125
1.5484863281249999
1.5492919921875
1.5573486328125
1.5533203125
1.558154296875
1.5533203125
1.571044921875
1.5799072265624998
1.587158203125
1.5976318359375
1.6072998046875
1.6137451171875
1.6153564453125
1.6048828124999999
1.5992431640625
1.587158203125
1.5718505859374998
1.5645996093749999
1.5597656249999998
1.5492919921875
1.5412353515625
1.5412353515625
1.5380126953125
1.538818359375
1.5347900390625
1.5331787109375
1.538818359375
1.525927734375
1.5162597656249999
1.5057861328125
1.5017578125
1.490478515625
1.480810546875
1.4767822265625
1.4840332031249999
1.4816162109375
1.4993408203124998
1.5090087890625
1.5202880859374999
1.5283447265624999
1.53720703125
1.542041015625
1.546875
1.55009765625
1.5492919921875
1.558154296875
1.5565429687499999
1.558154296875
1.561376953125
1.5799072265624998
1.587158203125
1.6008544921874999
1.6129394531249999
1.6177734375
1.6218017578125
1.6886718749999998
1.6024658203125
1.5879638671874998
1.5782958984375
1.5670166015625
1.5621826171875
1.545263671875
1.5444580078124999
1.5428466796875
1.5315673828124998
1.53720703125
1.5283447265624999
1.5315673828124998
1.5347900390625
1.529150390625
1.5082031249999999
1.5122314453124999
1.4920898437499999
1.48564453125
1.480810546875
1.4711425781249998
1.4888671875
1.4840332031249999
1.493701171875
1.506591796875
1.5202880859374999
1.5202880859374999
1.529150390625
1.5412353515625
1.5533203125
1.5597656249999998
1.5517089843749998
1.5573486328125
1.5557373046874998
1.5565429687499999
1.56298828125
1.5807128906249999
1.5839355468749998
1.5984375
1.61455078125
1.533984375
1.6161621093749998
1.6121337890624998
1.60166015625
1.5944091796875
1.5839355468749998
1.5662109375
1.5662109375
1.554931640625
1.546875
1.5428466796875
1.5323730468749999
1.533984375
1.5412353515625
1.5283447265624999
1.5283447265624999
1.5267333984375
1.5162597656249999
1.50498046875
1.5009521484375
1.4864501953125
1.4791992187499998
1.477587890625
1.4735595703125
1.4832275390624998
1.4896728515625
1.5041748046874999
1.5154541015624998
1.5267333984375
1.533984375
1.5428466796875
1.554931640625
1.5492919921875
1.561376953125
1.5573486328125
1.5597656249999998
1.5645996093749999
1.5621826171875
1.5766845703124999
1.590380859375
1.59521484375
1.6081054687499998
1.6121337890624998
1.6105224609375
1.6105224609375
1.6008544921874999
1.5879638671874998
1.577490234375
1.5670166015625
1.5605712890624999
1.5492919921875
1.5541259765625
1.5484863281249999
1.5347900390625
1.5355957031249998
1.5299560546875
1.5299560546875
1.5355957031249998
1.5355957031249998
1.5251220703125
1.5162597656249999
1.5041748046874999
1.493701171875
1.4832275390624998
1.474365234375
1.4783935546875
1.4880615234374999
1.5017578125
1.5033691406249998
1.509814453125
1.5218994140625
1.53076171875
1.538818359375
1.5428466796875
1.5476806640624998
1.5597656249999998
1.5589599609375
1.5605712890624999
1.5589599609375
1.5621826171875
1.5718505859374998
1.5895751953125
1.5976318359375
1.5968261718749999
1.6153564453125
1.6177734375
1.6105224609375
1.6024658203125
1.5927978515624999
1.5807128906249999
1.5758789062499998
1.5718505859374998
1.5517089843749998
1.5509033203125
1.5484863281249999
1.5380126953125
1.533984375
1.5355957031249998
1.5347900390625
1.5323730468749999
1.5355957031249998
1.5122314453124999
1.5186767578125
1.5082031249999999
1.493701171875
1.4832275390624998
1.4816162109375
1.4800048828124999
1.48564453125
1.4953124999999998
1.49853515625
1.5194824218749998
1.52109375
1.522705078125
1.5436523437499998
1.5428466796875
1.5525146484374999
1.5525146484374999
1.5517089843749998
1.554931640625
1.56298828125
1.5573486328125
1.5662109375
1.577490234375
1.5895751953125
1.6056884765625
1.6056884765625
1.6209960937499999
1.619384765625
1.6121337890624998
1.59521484375
1.5766845703124999
1.5750732421875
1.5678222656249998
1.5654052734375
1.5484863281249999
1.5380126953125
1.538818359375
1.538818359375
1.529150390625
1.533984375
1.5251220703125
1.5283447265624999
1.6089111328124999
1.5114257812499998
1.5057861328125
1.5033691406249998
1.4880615234374999
1.480810546875
1.4800048828124999
1.4759765624999999
1.4920898437499999
1.5001464843749999
1.5041748046874999
1.5218994140625
1.5267333984375
1.5380126953125
1.5436523437499998
1.546875
1.5533203125
1.5573486328125
1.5557373046874998
1.5573486328125
1.5541259765625
1.5654052734375
1.5807128906249999
1.59521484375
1.603271484375
1.6081054687499998
1.609716796875
1.609716796875
1.606494140625
1.6024658203125
1.5831298828125
1.5726562499999999
1.5621826171875
1.554931640625
1.5476806640624998
1.5355957031249998
1.542041015625
1.5355957031249998
1.5412353515625
1.533984375
1.4501953125
1.5323730468749999
1.529150390625
1.5243164062499999
1.5082031249999999
1.496923828125
1.496923828125
1.4816162109375
1.4759765624999999
1.4751708984374998
1.4872558593749998
1.50498046875
1.5041748046874999
1.5170654296875
1.53076171875
1.533984375
1.5404296874999999
1.5525146484374999
1.5541259765625
1.5557373046874998
1.554931640625
1.5597656249999998
1.5517089843749998
1.5678222656249998
1.5782958984375
1.5839355468749998
1.5992431640625
1.6056884765625
1.6234130859375
1.6242187499999998
1.6129394531249999
1.5927978515624999
1.5887695312499999
1.5726562499999999
1.5621826171875
1.5565429687499999
1.5517089843749998
1.5412353515625
1.5428466796875
1.5436523437499998
1.533984375
1.53076171875
1.5243164062499999
1.5355957031249998
1.52109375
1.5170654296875
1.5114257812499998
1.5009521484375
1.490478515625
1.4848388671875
1.4800048828124999
1.4783935546875
1.4872558593749998
1.4977294921875
1.5057861328125
1.52109375
1.5275390624999998
1.5380126953125
1.5404296874999999
1.5380126953125
1.55009765625
1.5533203125
1.56298828125
1.5557373046874998
1.5573486328125
1.5654052734375
1.5791015625
1.5927978515624999
1.5863525390625
1.6072998046875
1.6081054687499998
1.6209960937499999
1.61455078125
1.59521484375
1.5887695312499999
1.5799072265624998
1.5662109375
1.5645996093749999
1.5573486328125
1.5484863281249999
1.5355957031249998
1.5380126953125
1.538818359375
1.529150390625
1.5323730468749999
1.53076171875
1.5315673828124998
1.5194824218749998
1.50498046875
1.50498046875
1.4880615234374999
1.4783935546875
1.4791992187499998
1.4832275390624998
1.482421875
1.4928955078125
1.5033691406249998
1.5194824218749998
1.5243164062499999
1.5364013671874999
1.546875
1.5509033203125
1.5476806640624998
1.561376953125
1.56298828125
1.5557373046874998
1.5621826171875
1.5670166015625
1.5791015625
1.5791015625
1.5960205078124998
1.6048828124999999
1.6185791015625
1.625830078125
1.609716796875
1.5968261718749999
1.585546875
1.5750732421875
1.5662109375
1.561376953125
1.5517089843749998
1.5436523437499998
1.5404296874999999
1.53720703125
1.5323730468749999
1.529150390625
1.5218994140625
1.5323730468749999
1.5275390624999998
1.5122314453124999
1.5162597656249999
1.4953124999999998
1.4896728515625
1.4832275390624998
1.4711425781249998
1.4800048828124999
1.4848388671875
1.4977294921875
1.5090087890625
1.51787109375
1.5299560546875
1.5323730468749999
1.542041015625
1.5492919921875
1.5509033203125
1.5509033203125
1.5565429687499999
1.5573486328125
1.554931640625
1.5662109375
1.5758789062499998
1.58232421875
1.593603515625
1.61455078125
1.606494140625
1.625830078125
1.6089111328124999
1.6008544921874999
1.5895751953125
1.5839355468749998
1.5662109375
1.5621826171875
1.5533203125
1.5476806640624998
1.5364013671874999
1.5404296874999999
1.5323730468749999
1.533984375
1.5347900390625
1.5331787109375
1.529150390625
1.513037109375
1.5033691406249998
1.5017578125
1.4953124999999998
1.4816162109375
1.482421875
1.480810546875
1.4800048828124999
1.4953124999999998
1.509814453125
1.5162597656249999
1.5283447265624999
1.53076171875
1.5355957031249998
1.55009765625
1.5573486328125
1.5509033203125
1.5589599609375
1.5533203125
1.554931640625
1.56298828125
1.5662109375
1.5847412109374999
1.587158203125
1.5992431640625
1.6072998046875
1.6177734375
1.6105224609375
1.5992431640625
1.593603515625
1.5911865234375
1.574267578125
1.558154296875
1.558154296875
1.5484863281249999
1.5404296874999999
1.5380126953125
1.5412353515625
1.5331787109375
1.5283447265624999
1.5299560546875
1.5323730468749999
1.5194824218749998
1.52109375
1.4961181640624999
1.493701171875
1.4864501953125
1.4832275390624998
1.4791992187499998
1.4840332031249999
1.493701171875
1.50498046875
1.5114257812499998
1.5170654296875
1.5364013671874999
1.542041015625
1.5444580078124999
1.5436523437499998
1.5476806640624998
1.554931640625
1.5678222656249998
1.554931640625
1.5662109375
1.5718505859374998
1.5815185546875
1.5919921874999998
1.5992431640625
1.6169677734374999
1.6081054687499998
1.611328125
1.611328125
1.5847412109374999
1.5839355468749998
1.5799072265624998
1.5654052734375
1.558154296875
1.5509033203125
1.542041015625
1.538818359375
1.5283447265624999
1.5347900390625
1.533984375
1.5315673828124998
1.5323730468749999
1.5218994140625
1.5138427734375
1.5041748046874999
1.4945068359375
1.4848388671875
1.4848388671875
1.4767822265625
1.4840332031249999
1.4896728515625
1.5082031249999999
1.5106201171875
1.5243164062499999
1.542041015625
1.5275390624999998
1.5404296874999999
1.5428466796875
1.5509033203125
1.5597656249999998
1.5637939453124998
1.5573486328125
1.5525146484374999
1.5758789062499998
1.5807128906249999
1.59521484375
1.6040771484374998
1.61455078125
1.6209960937499999
1.619384765625
1.6024658203125
1.6000488281249998
1.5879638671874998
1.5637939453124998
1.5678222656249998
1.5597656249999998
1.5436523437499998
1.5492919921875
1.5404296874999999
1.533984375
1.5283447265624999
1.5323730468749999
1.5267333984375
1.5283447265624999
1.5235107421874998
1.5186767578125
1.5025634765625
1.5009521484375
1.48564453125
1.4840332031249999
1.4767822265625
1.4711425781249998
1.4872558593749998
1.5041748046874999
1.5138427734375
1.5194824218749998
1.5283447265624999
1.538818359375
1.542041015625
1.5428466796875
1.5605712890624999
1.5605712890624999
1.5509033203125
1.5605712890624999
1.558154296875
1.5654052734375
1.5766845703124999
1.590380859375
1.5984375
1.6105224609375
1.6153564453125
1.6169677734374999
1.6089111328124999
1.6024658203125
1.587158203125
1.5766845703124999
1.5557373046874998
1.5605712890624999
1.5533203125
1.5509033203125
1.5355957031249998
1.5355957031249998
1.529150390625
1.5315673828124998
1.5267333984375
1.5283447265624999
1.52109375
1.5162597656249999
1.509814453125
1.4945068359375
1.4840332031249999
1.480810546875
1.4703369140625
1.4888671875
1.4961181640624999
1.5017578125
1.5033691406249998
1.5122314453124999
1.5299560546875
1.5355957031249998
1.5476806640624998
1.5509033203125
1.5597656249999998
1.5533203125
1.5565429687499999
1.5573486328125
1.5565429687499999
1.571044921875
1.5678222656249998
1.5807128906249999
1.590380859375
1.6072998046875
1.6201904296874998
1.6177734375
1.6081054687499998
1.5944091796875
1.590380859375
1.5758789062499998
1.5637939453124998
1.5565429687499999
1.546875
1.542041015625
1.5396240234374998
1.538818359375
1.5380126953125
1.5355957031249998
1.4550292968749998
1.5355957031249998
1.5323730468749999
1.5154541015624998
1.5114257812499998
1.5017578125
1.4888671875
1.480810546875
1.4864501953125
1.4840332031249999
1.490478515625
1.49853515625
1.5106201171875
1.5114257812499998
1.5275390624999998
1.5347900390625
1.5436523437499998
1.5428466796875
1.5525146484374999
1.5541259765625
1.5597656249999998
1.5557373046874998
1.5565429687499999
1.5597656249999998
1.5815185546875
1.5919921874999998
1.585546875
1.6081054687499998
1.6177734375
1.625830078125
1.6169677734374999
1.6000488281249998
1.5887695312499999
1.5807128906249999
1.5726562499999999
1.5678222656249998
1.554931640625
1.55009765625
1.538818359375
1.5412353515625
1.5323730468749999
1.5218994140625
1.5299560546875
1.5275390624999998
1.5251220703125
1.5170654296875
1.5122314453124999
1.4993408203124998
1.493701171875
1.4896728515625
1.4791992187499998
1.4840332031249999
1.4864501953125
1.490478515625
1.506591796875
1.5186767578125
1.5251220703125
1.5347900390625
1.5396240234374998
1.5460693359375
1.554931640625
1.5509033203125
1.554931640625
1.5605712890624999
1.5541259765625
1.56298828125
1.577490234375
1.5791015625
1.5968261718749999
1.6040771484374998
1.6153564453125
1.62744140625
1.6008544921874999
1.6081054687499998
1.5927978515624999
1.5766845703124999
1.5702392578125
1.5605712890624999
1.558154296875
1.5533203125
1.5476806640624998
1.53720703125
1.5380126953125
1.525927734375
1.522705078125
1.5267333984375
1.5299560546875
1.51787109375
1.5235107421874998
1.5009521484375
1.490478515625
1.4848388671875
1.482421875
1.4791992187499998
1.4912841796874998
1.490478515625
1.5106201171875
1.5138427734375
1.5243164062499999
1.5299560546875
1.5404296874999999
1.542041015625
1.5573486328125
1.5517089843749998
1.5517089843749998
1.554931640625
1.5565429687499999
1.5670166015625
1.574267578125
1.5831298828125
1.5879638671874998
1.606494140625
1.6105224609375
1.6161621093749998
1.6089111328124999
1.6008544921874999
1.5847412109374999
1.5831298828125
1.5734619140625
1.5605712890624999
1.5597656249999998
1.5492919921875
1.5444580078124999
1.5412353515625
1.5404296874999999
1.5347900390625
1.5243164062499999
1.542041015625
1.538818359375
1.5162597656249999
1.50498046875
1.49853515625
1.4953124999999998
1.4864501953125
1.48564453125
1.482421875
1.4840332031249999
1.4880615234374999
1.509814453125
1.5017578125
1.522705078125
1.529150390625
1.542041015625
1.546875
1.546875
1.5525146484374999
1.5589599609375
1.5557373046874998
1.5654052734375
1.5541259765625
1.5726562499999999
1.5597656249999998
1.5984375
1.6056884765625
1.611328125
1.6153564453125
1.6137451171875
1.5984375
1.6000488281249998
1.5887695312499999
1.574267578125
1.5597656249999998
1.554931640625
1.5509033203125
1.5364013671874999
1.5404296874999999
1.538818359375
1.5364013671874999
1.529150390625
1.5243164062499999
1.5299560546875
1.5170654296875
1.509814453125
1.49853515625
1.4896728515625
1.4848388671875
1.4759765624999999
1.4759765624999999
1.48564453125
1.4977294921875
1.5122314453124999
1.5162597656249999
1.5194824218749998
1.5267333984375
1.5364013671874999
1.5428466796875
1.5517089843749998
1.5484863281249999
1.554931640625
1.5589599609375
1.5662109375
1.561376953125
1.571044921875
1.5863525390625
1.5968261718749999
1.5992431640625
1.609716796875
1.61455078125
1.6185791015625
1.6000488281249998
1.5927978515624999
1.5847412109374999
1.5782958984375
1.56298828125
1.5533203125
1.5517089843749998
1.5484863281249999
1.5347900390625
1.5460693359375
1.5235107421874998
1.53076171875
1.522705078125
1.5355957031249998
1.522705078125
1.5146484375
1.5146484375
1.4977294921875
1.4832275390624998
1.4816162109375
1.4800048828124999
1.4800048828124999
1.48564453125
1.5009521484375
1.506591796875
1.51787109375
1.5275390624999998
1.5476806640624998
1.545263671875
1.5460693359375
1.5476806640624998
1.5621826171875
1.5557373046874998
1.5492919921875
1.5557373046874998
1.5670166015625
1.587158203125
1.5863525390625
1.609716796875
1.5968261718749999
1.619384765625
1.6201904296874998
1.6137451171875
1.603271484375
1.5758789062499998
1.5734619140625
1.5621826171875
1.545263671875
1.5533203125
1.53720703125
1.545263671875
1.533984375
1.5331787109375
1.53720703125
1.525927734375
1.5323730468749999
1.5186767578125
1.5218994140625
1.5009521484375
1.493701171875
1.48564453125
1.4816162109375
1.4848388671875
1.4783935546875
1.4977294921875
1.5001464843749999
1.5073974609374998
1.5194824218749998
1.5243164062499999
1.5355957031249998
1.5428466796875
1.5484863281249999
1.554931640625
1.558154296875
1.5565429687499999
1.56298828125
1.5541259765625
1.5654052734375
1.5750732421875
1.593603515625
1.590380859375
1.6072998046875
1.6169677734374999
1.6250244140624999
1.606494140625
1.5968261718749999
1.5863525390625
1.574267578125
1.5750732421875
1.5605712890624999
1.5517089843749998
1.542041015625
1.5460693359375
1.5364013671874999
1.5235107421874998
1.5299560546875
1.53076171875
1.533984375
1.5299560546875
1.51787109375
1.5090087890625
1.5025634765625
1.4920898437499999
1.4848388671875
1.474365234375
1.480810546875
1.4912841796874998
1.5025634765625
1.5194824218749998
1.5194824218749998
1.5267333984375
1.5283447265624999
1.533984375
1.5404296874999999
1.542041015625
1.5541259765625
1.56298828125
1.558154296875
1.5573486328125
1.5718505859374998
1.5839355468749998
1.5919921874999998
1.5911865234375
1.6048828124999999
1.619384765625
1.6242187499999998
1.6137451171875
1.6000488281249998
1.585546875
1.5758789062499998
1.5645996093749999
1.5573486328125
1.5484863281249999
1.545263671875
1.545263671875
1.542041015625
1.538818359375
1.5380126953125
1.5364013671874999
1.5355957031249998
1.5267333984375
1.52109375
1.5073974609374998
1.5017578125
1.490478515625
1.4791992187499998
1.4759765624999999
1.4800048828124999
1.5057861328125
1.5041748046874999
1.5017578125
1.509814453125
1.5323730468749999
1.5380126953125
1.5396240234374998
1.546875
1.5444580078124999
1.5436523437499998
1.5428466796875
1.5533203125
1.5557373046874998
1.5637939453124998
1.5766845703124999
1.5831298828125
1.5968261718749999
1.6000488281249998
1.6129394531249999
1.6218017578125
1.6105224609375
1.6056884765625
1.6000488281249998
1.59521484375
1.59521484375
1.58232421875
1.538818359375
1.545263671875
1.542041015625
1.5323730468749999
1.5283447265624999
1.5412353515625
1.5283447265624999
1.5275390624999998
1.529150390625
1.5033691406249998
1.4920898437499999
1.4920898437499999
1.4912841796874998
1.4912841796874998
1.49853515625
1.4864501953125
1.480810546875
1.4888671875
1.4848388671875
1.5073974609374998
1.5138427734375
1.5283447265624999
1.5396240234374998
1.5436523437499998
1.538818359375
1.5565429687499999
1.546875
1.5533203125
1.5605712890624999
1.5847412109374999
1.6000488281249998
1.590380859375
1.6056884765625
1.622607421875
1.5927978515624999
1.6137451171875
1.6024658203125
1.59521484375
1.5879638671874998
1.5807128906249999
1.5734619140625
1.5654052734375
1.5637939453124998
1.5444580078124999
1.5299560546875
1.5251220703125
1.529150390625
1.5267333984375
1.53720703125
1.5235107421874998
1.5347900390625
1.525927734375
1.5106201171875
1.5025634765625
1.5001464843749999
1.4888671875
1.4872558593749998
1.477587890625
1.4912841796874998
1.50498046875
1.5138427734375
1.5122314453124999
1.5202880859374999
1.5251220703125
1.5347900390625
1.5444580078124999
1.5492919921875
1.545263671875
1.5565429687499999
1.5605712890624999
1.5718505859374998
1.5573486328125
1.5750732421875
1.577490234375
1.5839355468749998
1.593603515625
1.6024658203125
1.6177734375
1.6153564453125
1.6056884765625
1.5927978515624999
1.5791015625
1.554931640625
1.546875
1.5476806640624998
1.55009765625
1.5589599609375
1.5662109375
1.5734619140625
1.574267578125
1.5347900390625
1.533984375
1.5404296874999999
1.5331787109375
1.5218994140625
1.525927734375
1.4928955078125
1.4606689453125
1.448583984375
1.4550292968749998
1.4912841796874998
1.496923828125
1.49853515625
1.5162597656249999
1.5251220703125
1.525927734375
1.5275390624999998
1.55009765625
1.5557373046874998
1.5565429687499999
1.5404296874999999
1.554931640625
1.554931640625
1.5525146484374999
1.5718505859374998
1.5799072265624998
1.5911865234375
1.6121337890624998
1.6234130859375
1.6363037109374998
1.638720703125
1.606494140625
1.5758789062499998
1.56298828125
1.561376953125
1.5670166015625
1.554931640625
1.5444580078124999
1.538818359375
1.5138427734375
1.5251220703125
1.5170654296875
1.5380126953125
1.5331787109375
1.5283447265624999
1.5404296874999999
1.538818359375
1.5162597656249999
1.5025634765625
1.5001464843749999
1.4928955078125
1.4928955078125
1.4920898437499999
1.4928955078125
1.50498046875
1.5073974609374998
1.513037109375
1.5347900390625
1.533984375
1.5404296874999999
1.5347900390625
1.5428466796875
1.5436523437499998
1.5557373046874998
1.5509033203125
1.5380126953125
1.5589599609375
1.5863525390625
1.5895751953125
1.606494140625
1.6000488281249998
1.6048828124999999
1.593603515625
1.577490234375
1.59521484375
1.6201904296874998
1.6121337890624998
1.5678222656249998
1.5484863281249999
1.554931640625
1.5589599609375
1.558154296875
1.542041015625
1.5412353515625
1.5960205078124998
1.6153564453125
1.593603515625
1.5202880859374999
1.4791992187499998
1.47275390625
1.46953125
1.4751708984374998
1.4477783203124999
1.3704345703124998
1.4848388671875
1.4896728515625
1.4920898437499999
1.5218994140625
1.5404296874999999
1.5517089843749998
1.5557373046874998
1.5589599609375
1.5492919921875
1.5364013671874999
1.546875
1.5476806640624998
1.56298828125
1.5654052734375
1.5734619140625
1.5807128906249999
1.585546875
1.6121337890624998
1.6322753906249998
1.6129394531249999
1.6056884765625
1.6177734375
1.6072998046875
1.5927978515624999
1.5839355468749998
1.571044921875
1.5637939453124998
1.5428466796875
1.5412353515625
1.5355957031249998
1.5347900390625
1.533984375
1.5347900390625
1.53076171875
1.5315673828124998
1.522705078125
1.513037109375
1.5146484375
1.5025634765625
1.4961181640624999
1.4912841796874998
1.4840332031249999
1.48564453125
1.4961181640624999
1.4993408203124998
1.5082031249999999
1.513037109375
1.52109375
1.5396240234374998
1.5380126953125
1.545263671875
1.5484863281249999
1.554931640625
1.558154296875
1.5686279296874999
1.5484863281249999
1.5597656249999998
1.5750732421875
1.5927978515624999
1.5992431640625
1.5968261718749999
1.6048828124999999
1.6048828124999999
1.609716796875
1.611328125
1.5919921874999998
1.5718505859374998
1.5605712890624999
1.5404296874999999
1.5484863281249999
1.5444580078124999
1.5428466796875
1.5436523437499998
1.5404296874999999
1.545263671875
1.5315673828124998
1.5331787109375
1.5243164062499999
1.509814453125
1.5154541015624998
1.5057861328125
1.493701171875
1.4912841796874998
1.4759765624999999
1.4719482421874999
1.4888671875
1.4864501953125
1.506591796875
1.522705078125
1.52109375
1.5315673828124998
1.5396240234374998
1.538818359375
1.5621826171875
1.561376953125
1.5734619140625
1.5645996093749999
1.5605712890624999
1.5621826171875
1.5686279296874999
1.5702392578125
1.5815185546875
1.5976318359375
1.606494140625
1.6081054687499998
1.5944091796875
1.5984375
1.5879638671874998
1.5839355468749998
1.5847412109374999
1.5919921874999998
1.5815185546875
1.5380126953125
1.5082031249999999
1.5073974609374998
1.5218994140625
1.5355957031249998
1.5404296874999999
1.5404296874999999
1.5323730468749999
1.5122314453124999
1.5162597656249999
1.5146484375
1.5057861328125
1.50498046875
1.496923828125
1.496923828125
1.5041748046874999
1.4880615234374999
1.4993408203124998
1.5009521484375
1.5106201171875
1.5170654296875
1.52109375
1.5380126953125
1.5444580078124999
1.5533203125
1.5517089843749998
1.5645996093749999
1.5686279296874999
1.5807128906249999
1.5799072265624998
1.58232421875
1.6056884765625
1.5968261718749999
1.5750732421875
1.6008544921874999
1.5976318359375
1.587158203125
1.5621826171875
1.5637939453124998
1.577490234375
1.5807128906249999
1.571044921875
1.6137451171875
1.6048828124999999
1.5726562499999999
1.542041015625
1.5396240234374998
1.571044921875
1.53076171875
1.4719482421874999
1.4679199218749999
1.4977294921875
1.5025634765625
1.4896728515625
1.48564453125
1.4759765624999999
1.480810546875
1.490478515625
1.4840332031249999
1.4840332031249999
1.50498046875
1.529150390625
1.5146484375
1.4993408203124998
1.5412353515625
1.561376953125
1.5678222656249998
1.5492919921875
1.5799072265624998
1.6177734375
1.5863525390625
1.5605712890624999
1.5887695312499999
1.603271484375
1.6121337890624998
1.606494140625
1.59521484375
1.5960205078124998
1.609716796875
1.5887695312499999
1.5992431640625
1.6121337890624998
1.6048828124999999
1.5976318359375
1.5509033203125
1.542041015625
1.5476806640624998
1.5138427734375
1.5106201171875
1.5090087890625
1.5146484375
1.5509033203125
1.5509033203125
1.542041015625
1.5597656249999998
1.52109375
1.480810546875
1.4397216796874999
1.4759765624999999
1.4759765624999999
1.4783935546875
1.5033691406249998
1.53720703125
1.5380126953125
1.5347900390625
1.5355957031249998
1.5492919921875
1.5702392578125
1.5758789062499998
1.58232421875
1.5678222656249998
1.574267578125
1.558154296875
1.56943359375
1.5879638671874998
1.6040771484374998
1.5944091796875
1.606494140625
1.62744140625
1.6185791015625
1.6242187499999998
1.6000488281249998
1.58232421875
1.5758789062499998
1.5621826171875
1.5557373046874998
1.5541259765625
1.5573486328125
1.545263671875
1.5404296874999999
1.5412353515625
1.529150390625
1.5323730468749999
1.5436523437499998
1.51787109375
1.5106201171875
1.5114257812499998
1.4920898437499999
1.490478515625
1.4840332031249999
1.4832275390624998
1.4864501953125
1.4880615234374999
1.4759765624999999
1.5001464843749999
1.5090087890625
1.525927734375
1.5347900390625
1.545263671875
1.5428466796875
1.5444580078124999
1.5517089843749998
1.558154296875
1.558154296875
1.5484863281249999
1.5807128906249999
1.5927978515624999
1.6161621093749998
1.61455078125
1.63388671875
1.6403320312499998
1.625830078125
1.61455078125
1.6056884765625
1.5976318359375
1.5766845703124999
1.571044921875
1.5678222656249998
1.5662109375
1.52109375
1.5106201171875
1.5162597656249999
1.5025634765625
1.5017578125
1.5001464843749999
1.5138427734375
1.513037109375
1.52109375
1.5017578125
1.490478515625
1.4880615234374999
1.4574462890625
1.4413330078125
1.4638916015624999
1.4542236328125
1.4928955078125
1.529150390625
1.5444580078124999
1.5364013671874999
1.5315673828124998
1.5299560546875
1.5243164062499999
1.55009765625
1.603271484375
1.5847412109374999
1.5992431640625
1.8949218749999999
1.74345703125
1.62744140625
1.641943359375
1.6636962890625
1.6379150390625
1.6185791015625
1.60166015625
1.6040771484374998
1.59521484375
1.606494140625
1.5919921874999998
1.545263671875
1.5275390624999998
1.5283447265624999
1.5170654296875
1.509814453125
1.9505126953124998
2.7642333984375
2.0415527343749997
1.7539306640624999
1.635498046875
1.5412353515625
1.4912841796874998
1.4606689453125
1.4244140625
1.4115234374999999
1.3833251953124999
1.3768798828125
1.3833251953124999
1.3744628906249998
1.3857421875
1.3946044921874998
1.4219970703125
1.4397216796874999
1.44052734375
1.4501953125
1.456640625
1.48564453125
1.5041748046874999
1.509814453125
1.4687255859375
1.4493896484375
1.5073974609374998
1.5396240234374998
1.5323730468749999
1.5460693359375
1.5460693359375
1.5670166015625
1.5750732421875
1.5678222656249998
1.5525146484374999
1.53720703125
1.533984375
1.5460693359375
1.5347900390625
1.5331787109375
1.522705078125
1.4719482421874999
1.48564453125
1.4977294921875
1.52109375
1.5331787109375
1.5355957031249998
1.3752685546874999
1.4928955078125
1.5235107421874998
1.477587890625
1.4606689453125
1.4066894531249998
1.4276367187499999
1.4800048828124999
1.4920898437499999
1.4920898437499999
1.493701171875
1.525927734375
1.5444580078124999
1.53720703125
1.558154296875
1.5355957031249998
1.5283447265624999
1.5484863281249999
1.5517089843749998
1.546875
1.5428466796875
1.5654052734375
1.5847412109374999
1.59521484375
1.603271484375
1.5984375
1.5992431640625
1.6201904296874998
1.60166015625
1.5968261718749999
1.587158203125
1.5645996093749999
1.5597656249999998
1.5364013671874999
1.55009765625
1.5533203125
1.5428466796875
1.5404296874999999
1.56298828125
1.5597656249999998
1.53076171875
1.558154296875
1.5444580078124999
1.5122314453124999
1.5041748046874999
1.506591796875
1.480810546875
1.4590576171874998
1.4574462890625
1.4800048828124999
1.4840332031249999
1.4888671875
1.5041748046874999
1.51787109375
1.5428466796875
1.5565429687499999
1.5557373046874998
1.554931640625
1.53076171875
1.538818359375
1.5533203125
1.5597656249999998
1.5460693359375
1.5605712890624999
1.5968261718749999
1.55009765625
1.5621826171875
1.5984375
1.6137451171875
1.6266357421875
1.6798095703125
1.6024658203125
1.5968261718749999
1.5782958984375
1.5662109375
1.5557373046874998
1.5589599609375
1.416357421875
1.4759765624999999
1.5243164062499999
1.5476806640624998
1.542041015625
1.546875
1.542041015625
1.5412353515625
1.5396240234374998
1.5283447265624999
1.5073974609374998
1.490478515625
1.4840332031249999
1.4767822265625
1.474365234375
1.4912841796874998
1.5082031249999999
1.5170654296875
1.5275390624999998
1.5355957031249998
1.5251220703125
1.5412353515625
1.5533203125
1.5460693359375
1.561376953125
1.561376953125
1.5589599609375
1.533984375
1.5718505859374998
1.5839355468749998
1.593603515625
1.59521484375
1.6169677734374999
1.622607421875
1.6177734375
1.6105224609375
1.6024658203125
1.60166015625
1.5839355468749998
1.577490234375
1.571044921875
1.5573486328125
1.542041015625
1.546875
1.5404296874999999
1.542041015625
1.5404296874999999
1.5364013671874999
1.5202880859374999
1.5573486328125
1.5364013671874999
1.5299560546875
1.5033691406249998
1.4687255859375
1.4655029296875
1.4759765624999999
1.4622802734375
1.48564453125
1.480810546875
1.5073974609374998
1.525927734375
1.542041015625
1.5444580078124999
1.533984375
1.5678222656249998
1.5686279296874999
1.585546875
1.522705078125
1.5355957031249998
1.5428466796875
1.55009765625
1.571044921875
1.574267578125
1.5791015625
1.5879638671874998
1.606494140625
1.63388671875
1.5911865234375
1.60166015625
1.587158203125
1.6040771484374998
1.5758789062499998
1.56943359375
1.5476806640624998
1.5782958984375
1.5662109375
1.5670166015625
1.55009765625
1.522705078125
1.5243164062499999
1.5122314453124999
1.5412353515625
1.5202880859374999
1.5186767578125
1.5082031249999999
1.4767822265625
1.5009521484375
1.4630859374999998
1.4751708984374998
1.4767822265625
1.477587890625
1.4912841796874998
1.5218994140625
1.529150390625
1.5299560546875
1.5380126953125
1.5347900390625
1.55009765625
1.5557373046874998
1.55009765625
1.571044921875
1.545263671875
1.5170654296875
1.5557373046874998
1.5492919921875
1.5831298828125
1.59521484375
1.6209960937499999
1.65
1.6371093749999999
1.6371093749999999
1.6653076171874999
1.6185791015625
1.5170654296875
1.525927734375
1.55009765625
1.5637939453124998
1.5509033203125
1.5218994140625
1.52109375
1.538818359375
1.5541259765625
1.5154541015624998
1.5637939453124998
1.5082031249999999
1.5114257812499998
1.5138427734375
1.4953124999999998
1.47275390625
1.4703369140625
1.4638916015624999
1.4920898437499999
1.5090087890625
1.509814453125
1.5396240234374998
1.5235107421874998
1.5202880859374999
1.545263671875
1.5492919921875
1.5428466796875
1.5444580078124999
1.5404296874999999
1.5364013671874999
1.5533203125
1.5218994140625
1.5927978515624999
1.6056884765625
1.5791015625
1.5944091796875
1.609716796875
1.6508056640625
1.6451660156249999
1.6169677734374999
1.603271484375
1.59521484375
1.5839355468749998
1.5541259765625
1.546875
1.5718505859374998
1.554931640625
1.546875
1.558154296875
1.5492919921875
1.53720703125
1.56298828125
1.5815185546875
1.5235107421874998
1.52109375
1.5073974609374998
1.4719482421874999
1.4703369140625
1.4671142578124998
1.477587890625
1.509814453125
1.4872558593749998
1.5154541015624998
1.5573486328125
1.5597656249999998
1.5146484375
1.496923828125
1.5557373046874998
1.56298828125
1.5637939453124998
1.5557373046874998
1.5517089843749998
1.5718505859374998
1.5090087890625
1.5807128906249999
1.60166015625
1.6234130859375
1.622607421875
1.64677734375
1.6653076171874999
1.6612792968749999
1.6435546875
1.6169677734374999
1.6089111328124999
1.56943359375
1.53720703125
1.522705078125
1.5001464843749999
1.5218994140625
1.5283447265624999
1.493701171875
1.47275390625
1.4920898437499999
1.4848388671875
1.554931640625
1.4993408203124998
1.4759765624999999
1.4920898437499999
1.493701171875
1.46630859375
1.3962158203125
1.426025390625
1.41796875
1.4759765624999999
1.456640625
1.4679199218749999
1.477587890625
1.506591796875
1.5887695312499999
1.5968261718749999
1.533984375
1.5492919921875
1.542041015625
1.6459716796875
1.6234130859375
1.2173583984375
1.187548828125
1.4066894531249998
1.5073974609374998
1.641943359375
1.7523193359375
2.0069091796875
2.2832519531249997
2.32998046875
2.077001953125
1.7587646484375
1.4961181640624999
1.3333740234375
1.2189697265625
1.2310546875
1.3092041015625
1.3494873046875
1.448583984375
1.5645996093749999
1.5863525390625
1.60166015625
1.8361083984375
2.028662109375
1.9400390625
1.8087158203125
1.6379150390625
1.353515625
1.0385009765625
0.87978515625
0.7798828124999999
0.837890625
1.0143310546875
1.384130859375
1.574267578125
1.699951171875
1.8417480468749998
1.9545410156249998
1.893310546875
1.8151611328125
1.6620849609375
1.5766845703124999
1.4880615234374999
1.0803955078125
0.8362792968749999
0.9410156249999999
1.1448486328125
1.53720703125
1.7499023437499999
2.0278564453125
2.6321044921874996
2.6562744140624996
2.4613037109375
2.0181884765625
1.7474853515625
1.456640625
1.18271484375
1.0803955078125
1.1295410156249999
1.2141357421874999
1.3825195312499998
1.4872558593749998
1.6024658203125
1.5476806640624998
1.7499023437499999
2.0890869140625
2.08505859375
1.98837890625
1.6508056640625
1.3905761718749998
1.0900634765625
0.8080810546874999
0.613916015625
0.6211669921874999
0.8314453125
1.07958984375
1.5009521484375
1.8546386718749999
2.07216796875
2.023828125
2.0343017578125
1.9078125
1.7668212890625
1.6008544921874999
1.4767822265625
1.077978515625
0.7549072265625
0.8741455078125
1.077978515625
1.2673095703125
1.6910888671875
2.0117431640625
2.60712890625
2.8077392578125
2.608740234375
2.1889892578125
1.74345703125
1.297119140625
1.0892578124999999
1.0030517578125
1.1295410156249999
1.1617675781249999
1.3204833984375
1.4550292968749998
1.574267578125
1.6443603515624998
1.6814208984374999
2.144677734375
2.1728759765625
1.9795166015624999
1.7394287109375
1.4195800781249999
1.1174560546874999
0.588134765625
0.491455078125
0.6566162109375
0.8113037109375
1.2423339843749999
1.5645996093749999
1.832080078125
2.0407470703125
2.0471923828125
1.9247314453125
1.791796875
1.6935058593749999
1.6379150390625
1.529150390625
1.1778808593749999
0.8467529296874999
0.9418212890625
1.023193359375
1.2439453125
1.5766845703124999
1.8941162109374998
2.582958984375
2.7819580078125
2.6852783203125
2.3211181640625
1.9779052734375
1.558154296875
1.1778808593749999
1.0094970703125
0.9313476562499999
1.007080078125
1.08603515625
1.2689208984375
1.4767822265625
1.6137451171875
1.6886718749999998
2.225244140625
2.225244140625
2.0657226562499997
1.867529296875
1.5678222656249998
1.2020507812499999
0.8113037109375
0.5841064453125
0.47453613281249996
0.6952880859374999
0.9643798828125
1.4195800781249999
1.687060546875
1.9424560546874998
2.080224609375
2.1213134765625
2.05283203125
1.8538330078124998
1.5887695312499999
1.47275390625
1.4244140625
0.8499755859375
0.833056640625
0.8822021484375
1.0932861328124999
1.5267333984375
1.8731689453125
2.3855712890625
2.8955566406249997
2.8286865234375
2.5676513671874996
2.0431640625
1.5984375
1.16015625
0.920068359375
0.8765624999999999
0.9643798828125
0.978076171875
1.1698242187499999
1.3414306640625
1.4187744140624998
1.6427490234375
2.1720703125
2.302587890625
2.2840576171875
2.0745849609375
1.8224121093749999
1.554931640625
0.994189453125
0.6832031249999999
0.55751953125
0.46164550781249997
0.539794921875
0.85400390625
1.123095703125
1.5895751953125
1.8755859375
2.0697509765624997
2.2018798828125
2.2429687499999997
2.131787109375
1.928759765625
1.732177734375
1.0320556640625
0.825
0.7476562499999999
0.928125
1.139208984375
1.5807128906249999
2.1777099609375
2.566845703125
2.744091796875
2.69736328125
2.5555664062499996
2.2880859375
1.8183837890624999
1.53720703125
1.2826171874999999
1.0481689453125
0.897509765625
0.8266113281249999
0.9531005859374999
1.0812011718749999
1.1617675781249999
1.791796875
2.2357177734375
2.3146728515625
2.344482421875
2.03671875
1.7732666015624998
1.2785888671874999
0.7404052734375
0.459228515625
0.43828124999999996
0.49467773437499996
0.7371826171875
0.9716308593749999
1.284228515625
1.651611328125
1.8570556640625
2.006103515625
2.1213134765625
2.14306640625
2.102783203125
2.018994140625
1.2511962890625
0.910400390625
0.8757568359375
0.8451416015625
1.0812011718749999
1.4364990234375
2.1293701171875
2.6216308593749997
2.7529541015624996
2.7706787109374997
2.5394531249999996
2.2437744140625
1.909423828125
1.5122314453124999
1.3349853515624999
1.1287353515625
0.9168457031249999
0.881396484375
0.9015380859375
1.0610595703124999
1.1964111328125
1.6540283203125
2.0173828124999997
2.302587890625
2.33642578125
2.309033203125
1.9666259765624998
1.5251220703125
1.110205078125
0.7339599609374999
0.4189453125
0.3794677734375
0.48984374999999997
0.734765625
1.0046630859374999
1.2914794921875
1.6725585937499998
1.998046875
2.151123046875
2.13662109375
2.0778076171874997
2.1116455078125
1.590380859375
1.12470703125
1.018359375
1.0094970703125
1.0497802734375
1.2536132812499998
1.554931640625
2.1889892578125
2.657080078125
2.7465087890624997
2.6852783203125
2.434716796875
2.1406494140625
1.8900878906249998
1.585546875
1.3688232421875
1.1375976562499999
0.9990234375
0.91845703125
0.9329589843749999
0.9514892578124999
1.46630859375
1.9295654296875
2.03994140625
2.1906005859374997
2.14306640625
1.9062011718749998
1.6443603515624998
1.0691162109374999
0.668701171875
0.5043457031249999
0.526904296875
0.605859375
0.7146240234375
0.9869384765625
1.2769775390625
1.6089111328124999
1.8336914062499998
2.0947265625
2.2067138671874997
2.1986572265624997
2.1865722656249997
1.703173828125
1.2584472656249999
1.0803955078125
0.974853515625
0.9958007812499999
1.023193359375
1.4276367187499999
2.0681396484375
2.4363281249999997
2.7585937499999997
2.7666503906249997
2.63291015625
2.3340087890625
2.0689453125
1.8175781249999998
1.5275390624999998
1.1134277343749999
0.91201171875
0.7629638671875
0.7710205078125
0.8604492187499999
1.0546142578125
1.77568359375
2.038330078125
2.164013671875
2.24619140625
2.1325927734375
1.861083984375
1.3559326171875
0.7234863281249999
0.5164306640624999
0.423779296875
0.5325439453124999
0.6380859375
0.881396484375
1.155322265625
1.51787109375
1.7257324218749999
1.8957275390625
2.20751953125
2.2163818359375
2.2308837890624997
1.6459716796875
1.206884765625
1.1021484375
0.9853271484374999
1.068310546875
1.2302490234374999
1.5001464843749999
2.2115478515625
2.51044921875
2.6288818359375
2.6361328124999996
2.5112548828124996
2.2623046875
2.01416015625
1.7603759765625
1.574267578125
1.2930908203125
1.0352783203125
0.9410156249999999
0.887841796875
0.865283203125
0.9990234375
1.61455078125
1.828857421875
2.0431640625
2.1019775390624997
2.1035888671875
1.8707519531249999
1.477587890625
1.0594482421875
0.6268066406249999
0.51884765625
0.5341552734375
0.7162353515625
0.878173828125
1.039306640625
1.284228515625
1.5299560546875
1.7120361328125
1.8635009765625
1.9706542968749998
2.0326904296875
1.9464843749999998
1.4445556640625
1.2439453125
1.1674072265625
1.168212890625
1.3446533203125
1.61455078125
2.1591796875
2.6176025390624997
2.7747070312499997
2.8037109375
2.7005859374999996
2.3477050781249997
2.0254394531249997
1.7797119140625
1.3784912109374998
1.1077880859375
0.9821044921875
0.8338623046875
0.8507812499999999
0.8701171875
0.9643798828125
1.6524169921874998
1.9271484374999999
2.0052978515624997
2.1454833984375
2.0657226562499997
1.8038818359375
1.3921875
0.9611572265624999
0.631640625
0.5631591796875
0.5019287109375
0.6840087890625
0.791162109375
1.0481689453125
1.2463623046874999
1.4687255859375
1.7015624999999999
1.9343994140624998
2.1406494140625
2.115673828125
2.0069091796875
1.3478759765625
1.34384765625
1.184326171875
1.2125244140625
1.2568359375
1.5202880859374999
2.13662109375
2.5193115234374996
2.6538574218749997
2.6844726562499996
2.56845703125
2.344482421875
1.9811279296875
1.6806152343749998
1.4219970703125
1.2189697265625
0.952294921875
0.8958984375
0.9603515625
0.9240966796875
0.9893554687499999
1.5605712890624999
1.9513183593749999
2.128564453125
2.257470703125
2.2671386718749997
2.0093261718749997
1.5597656249999998
1.1408203125
0.6896484374999999
0.46728515625
0.391552734375
0.343212890625
0.4954833984375
0.6614501953124999
0.8668945312499999
1.16015625
1.3792968749999999
1.63388671875
1.8763916015625
1.993212890625
2.15595703125
1.6089111328124999
1.5251220703125
1.4445556640625
1.4437499999999999
1.5791015625
1.6363037109374998
2.060888671875
2.5716796874999996
2.8294921874999996
2.81982421875
2.679638671875
2.487890625
2.212353515625
1.9424560546874998
1.6072998046875
1.3833251953124999
1.2189697265625
0.9474609374999999
0.8725341796874999
0.887841796875
0.9724365234375
1.3978271484375
1.6234130859375
1.8626953124999999
2.101171875
2.0810302734375
1.9658203125
1.5968261718749999
1.2383056640624999
0.8741455078125
0.620361328125
0.530126953125
0.5003173828124999
0.5599365234375
0.7387939453125
0.9152343749999999
1.216552734375
1.5138427734375
1.6959228515625
1.91748046875
2.0471923828125
2.0874755859375
1.7023681640625
1.4348876953124998
1.2745605468749999
1.2221923828124999
1.2310546875
1.405078125
1.72412109375
2.13662109375
2.4903076171875
2.7263671874999997
2.7013916015625
2.63291015625
2.4870849609374996
2.2808349609375
2.0697509765624997
1.7619873046874999
1.5218994140625
1.2785888671874999
1.116650390625
1.0272216796875
0.928125
1.1835205078125
1.5476806640624998
1.6749755859375
1.8296630859374998
1.8602783203125
1.786962890625
1.5170654296875
1.2076904296875
0.758935546875
0.49387207031249997
0.42539062499999997
0.5003173828124999
0.5043457031249999
0.736376953125
1.00224609375
1.2697265624999998
1.4751708984374998
1.65966796875
1.944873046875
2.0616943359374997
2.144677734375
1.6935058593749999
1.3309570312499999
1.252001953125
1.1545166015625
1.2302490234374999
1.3905761718749998
1.6048828124999999
2.296142578125
2.59423828125
2.7497314453125
2.771484375
2.7086425781249996
2.4451904296875
2.1213134765625
1.8280517578125
1.6129394531249999
1.3575439453125
1.168212890625
1.068310546875
1.036083984375
0.9345703125
1.276171875
1.571044921875
1.7732666015624998
1.93359375
2.0173828124999997
1.9029785156249999
1.6572509765624999
1.316455078125
0.8886474609374999
0.631640625
0.604248046875
0.5470458984375
0.6034423828125
0.8121093749999999
0.984521484375
1.1303466796875
1.448583984375
1.5605712890624999
1.7700439453124999
2.0012695312499997
2.1084228515625
1.7901855468749999
1.4171630859375
1.3825195312499998
1.24716796875
1.2423339843749999
1.368017578125
1.5919921874999998
2.2115478515625
2.56845703125
2.663525390625
2.65546875
2.5724853515625
2.3146728515625
2.083447265625
1.77890625
1.6153564453125
1.353515625
1.0892578124999999
1.0223876953125
1.0272216796875
0.910400390625
1.087646484375
1.4719482421874999
1.780517578125
1.8844482421875
2.0278564453125
1.9907958984374998
1.8385253906249999
1.340625
0.9611572265624999
0.742822265625
0.5599365234375
0.5277099609375
0.655810546875
0.7943847656249999
1.1512939453125
1.364794921875
1.6822265625
1.8586669921874999
2.03671875
2.086669921875
2.1164794921875
1.748291015625
1.3148437499999999
1.1867431640625
1.0489746093749999
1.1448486328125
1.2576416015624998
1.6298583984375
2.2187988281249997
2.5354248046874996
2.6619140624999997
2.6578857421874997
2.447607421875
2.2373291015625
1.7619873046874999
1.53720703125
1.2656982421874998
0.9949951171875
0.8789794921874999
0.8918701171875
0.9869384765625
1.0828125
1.2238037109375
1.8062988281249999
2.03671875
2.1060058593749997
2.1035888671875
1.6814208984374999
1.271337890625
0.8749511718749999
0.24492187499999998
0.4600341796875
1.0570312499999999
1.6322753906249998
1.9513183593749999
1.9787109374999998
1.8538330078124998
1.5122314453124999
1.5235107421874998
1.5645996093749999
1.5791015625
1.5863525390625
1.585546875
1.5702392578125
1.5637939453124998
1.6153564453125
1.590380859375
1.61455078125
1.635498046875
1.6363037109374998
0.041088867187499996
1.8489990234375
2.3654296875
1.8868652343749999
1.732177734375
1.73056640625
1.72412109375
1.6773925781249999
1.63388671875
1.554931640625
1.61455078125
1.5347900390625
1.5509033203125
1.5662109375
1.558154296875
1.5041748046874999
1.525927734375
1.5766845703124999
1.49853515625
1.448583984375
1.4139404296875
1.4397216796874999
1.464697265625
1.4840332031249999
1.429248046875
1.4961181640624999
1.4655029296875
1.46953125
1.496923828125
1.384130859375
1.5758789062499998
1.5605712890624999
1.2947021484374999
1.3712402343749999
1.6089111328124999
1.5275390624999998
1.5106201171875
1.5114257812499998
1.5275390624999998
1.6371093749999999
1.65
1.638720703125
1.62744140625
1.6604736328124998
1.670947265625
1.6234130859375
1.6129394531249999
1.5718505859374998
1.5686279296874999
1.6564453124999998
1.6975341796874999
1.622607421875
1.561376953125
1.5621826171875
1.5533203125
1.5678222656249998
1.56298828125
1.6072998046875
1.5218994140625
1.4783935546875
1.5218994140625
1.5170654296875
1.522705078125
1.490478515625
1.51787109375
1.5138427734375
1.496923828125
1.5025634765625
1.5073974609374998
1.5073974609374998
1.5267333984375
1.5517089843749998
1.5436523437499998
1.5678222656249998
1.5702392578125
1.577490234375
1.5847412109374999
1.577490234375
1.5654052734375
1.5887695312499999
1.5992431640625
1.6081054687499998
1.6129394531249999
1.619384765625
1.6306640625
1.6395263671875
1.622607421875
1.5960205078124998
1.5919921874999998
1.58232421875
1.590380859375
1.577490234375
1.5863525390625
1.554931640625
1.5323730468749999
1.5057861328125
1.5186767578125
1.5162597656249999
1.5073974609374998
1.522705078125
1.5001464843749999
1.5073974609374998
1.533984375
1.5114257812499998
1.4953124999999998
1.4711425781249998
1.5831298828125
1.5960205078124998
1.5323730468749999
1.5194824218749998
1.5251220703125
1.525927734375
1.5122314453124999
1.5057861328125
1.5509033203125
1.5444580078124999
1.5589599609375
1.5702392578125
1.5597656249999998
1.611328125
1.585546875
1.6532226562499999
1.6209960937499999
1.571044921875
1.5960205078124998
1.5863525390625
1.6072998046875
1.6491943359374999
1.6129394531249999
1.5766845703124999
1.590380859375
1.5815185546875
1.5702392578125
1.5702392578125
1.554931640625
1.5436523437499998
1.5218994140625
1.5122314453124999
1.509814453125
1.496923828125
1.5235107421874998
1.5315673828124998
1.5460693359375
1.5154541015624998
1.490478515625
1.482421875
1.47275390625
1.7410400390624998
1.79501953125
1.53076171875
1.4832275390624998
1.4832275390624998
1.4759765624999999
1.4864501953125
1.5041748046874999
1.4816162109375
1.5251220703125
1.5404296874999999
1.5758789062499998
1.5654052734375
1.5428466796875
1.5428466796875
1.5444580078124999
1.558154296875
1.5758789062499998
1.5686279296874999
1.6459716796875
1.6048828124999999
1.5766845703124999
1.5766845703124999
1.5686279296874999
1.5758789062499998
1.5645996093749999
1.5251220703125
1.5267333984375
1.538818359375
1.5347900390625
1.5202880859374999
1.5082031249999999
1.7015624999999999
2.035107421875
1.6830322265625
1.538818359375
1.5186767578125
1.5138427734375
1.4840332031249999
1.4719482421874999
1.4783935546875
1.4703369140625
1.4526123046875
1.4389160156249998
1.4284423828125
1.448583984375
1.4542236328125
1.4622802734375
1.4816162109375
1.493701171875
1.4767822265625
1.4953124999999998
1.5283447265624999
1.5275390624999998
1.5355957031249998
1.5315673828124998
1.5428466796875
1.5283447265624999
1.5396240234374998
1.5565429687499999
1.5589599609375
1.5637939453124998
1.58232421875
1.6056884765625
1.6056884765625
1.5839355468749998
1.5847412109374999
1.5782958984375
1.590380859375
1.5968261718749999
1.558154296875
1.55009765625
1.5347900390625
1.5331787109375
1.5331787109375
1.5251220703125
1.50498046875
1.5138427734375
1.51787109375
1.5235107421874998
1.51787109375
1.5041748046874999
1.4961181640624999
1.4791992187499998
1.480810546875
1.4735595703125
1.4719482421874999
1.482421875
1.482421875
1.493701171875
1.5114257812499998
1.5146484375
1.5299560546875
1.5251220703125
1.5396240234374998
1.53720703125
1.546875
1.5525146484374999
1.5565429687499999
1.5573486328125
1.5509033203125
1.5654052734375
1.5807128906249999
1.5911865234375
1.6008544921874999
1.6218017578125
1.6177734375
1.611328125
1.5863525390625
1.5895751953125
1.5791015625
1.5718505859374998
1.561376953125
1.5509033203125
1.5436523437499998
1.5404296874999999
1.5315673828124998
1.538818359375
1.5283447265624999
1.5243164062499999
1.5380126953125
1.542041015625
1.52109375
1.5138427734375
1.5001464843749999
1.490478515625
1.4872558593749998
1.4832275390624998
1.4791992187499998
1.4791992187499998
1.4896728515625
1.4961181640624999
1.5138427734375
1.5323730468749999
1.5323730468749999
1.5396240234374998
1.5428466796875
1.542041015625
1.5484863281249999
1.545263671875
1.561376953125
1.561376953125
1.5517089843749998
1.5726562499999999
1.5895751953125
1.587158203125
1.6008544921874999
1.611328125
1.6201904296874998
1.6234130859375
1.6040771484374998
1.590380859375
1.585546875
1.577490234375
1.56943359375
1.5589599609375
1.5492919921875
1.5968261718749999
1.5484863281249999
1.5621826171875
1.545263671875
1.53720703125
1.5299560546875
1.53720703125
1.533984375
1.5138427734375
1.4993408203124998
1.4888671875
1.4896728515625
1.4687255859375
1.46953125
1.4759765624999999
1.490478515625
1.5017578125
1.506591796875
1.5194824218749998
1.5275390624999998
1.5315673828124998
1.5299560546875
1.5428466796875
1.5525146484374999
1.554931640625
1.5557373046874998
1.5533203125
1.5517089843749998
1.5726562499999999
1.5839355468749998
1.5944091796875
1.5927978515624999
1.6081054687499998
1.6201904296874998
1.6177734375
1.6105224609375
1.6000488281249998
1.5887695312499999
1.5758789062499998
1.5662109375
1.5509033203125
1.55009765625
1.5460693359375
1.5364013671874999
1.5380126953125
1.525927734375
1.5299560546875
1.5283447265624999
1.522705078125
1.5243164062499999
1.5114257812499998
1.5041748046874999
1.4993408203124998
1.4840332031249999
1.474365234375
1.4848388671875
1.480810546875
1.4945068359375
1.5025634765625
1.5073974609374998
1.5090087890625
1.5355957031249998
1.5412353515625
1.5460693359375
1.545263671875
1.5476806640624998
1.5573486328125
1.5517089843749998
1.5492919921875
1.5533203125
1.5686279296874999
1.5815185546875
1.590380859375
1.5984375
1.5879638671874998
1.606494140625
1.6169677734374999
1.609716796875
1.5984375
1.5839355468749998
1.5702392578125
1.5686279296874999
1.558154296875
1.5525146484374999
1.545263671875
1.5404296874999999
1.5331787109375
1.5347900390625
1.5412353515625
1.5267333984375
1.533984375
1.5202880859374999
1.5194824218749998
1.5082031249999999
1.49853515625
1.4888671875
1.4791992187499998
1.4840332031249999
1.4848388671875
1.496923828125
1.4977294921875
1.5041748046874999
1.5162597656249999
1.5275390624999998
1.5323730468749999
1.5436523437499998
1.5444580078124999
1.546875
1.5525146484374999
1.554931640625
1.5557373046874998
1.5533203125
1.5662109375
1.5758789062499998
1.5887695312499999
1.6024658203125
1.6121337890624998
1.6105224609375
1.6201904296874998
1.6048828124999999
1.5927978515624999
1.587158203125
1.587158203125
1.5662109375
1.5645996093749999
1.5533203125
1.5436523437499998
1.5396240234374998
1.533984375
1.538818359375
1.538818359375
1.5380126953125
1.533984375
1.5331787109375
1.5057861328125
1.5001464843749999
1.4945068359375
1.4961181640624999
1.4711425781249998
1.4751708984374998
1.4791992187499998
1.493701171875
1.4977294921875
1.5057861328125
1.5170654296875
1.5251220703125
1.5323730468749999
1.533984375
1.5404296874999999
1.55009765625
1.561376953125
1.5621826171875
1.56298828125
1.5492919921875
1.5565429687499999
1.577490234375
1.5895751953125
1.6008544921874999
1.611328125
1.60166015625
1.6201904296874998
1.606494140625
1.6008544921874999
1.5847412109374999
1.5766845703124999
1.5766845703124999
1.561376953125
1.55009765625
1.545263671875
1.5396240234374998
1.545263671875
1.53720703125
1.5315673828124998
1.5364013671874999
1.5275390624999998
1.5347900390625
1.5218994140625
1.50498046875
1.493701171875
1.4928955078125
1.4848388671875
1.4767822265625
1.482421875
1.4832275390624998
1.49853515625
1.5082031249999999
1.522705078125
1.5412353515625
1.5412353515625
1.5436523437499998
1.538818359375
1.55009765625
1.5541259765625
1.5557373046874998
1.558154296875
1.5541259765625
1.5637939453124998
1.577490234375
1.5839355468749998
1.5960205078124998
1.6048828124999999
1.6201904296874998
1.6137451171875
1.6177734375
1.6008544921874999
1.590380859375
1.5807128906249999
1.5662109375
1.561376953125
1.5573486328125
1.554931640625
1.5517089843749998
1.5412353515625
1.5267333984375
1.5299560546875
1.5315673828124998
1.5299560546875
1.529150390625
1.522705078125
1.5122314453124999
1.4977294921875
1.4880615234374999
1.480810546875
1.4767822265625
1.4800048828124999
1.4816162109375
1.5001464843749999
1.49853515625
1.5122314453124999
1.5194824218749998
1.5364013671874999
1.5364013671874999
1.5484863281249999
1.5484863281249999
1.5605712890624999
1.5589599609375
1.5597656249999998
1.5589599609375
1.5645996093749999
1.571044921875
1.5863525390625
1.5927978515624999
1.60166015625
1.6137451171875
1.6169677734374999
1.6177734375
1.6089111328124999
1.5839355468749998
1.5799072265624998
1.5766845703124999
1.5662109375
1.554931640625
1.5509033203125
1.5436523437499998
1.5404296874999999
1.5355957031249998
1.533984375
1.538818359375
1.5275390624999998
1.5299560546875
1.5194824218749998
1.5073974609374998
1.4945068359375
1.490478515625
1.48564453125
1.477587890625
1.4735595703125
1.4912841796874998
1.4928955078125
1.5114257812499998
1.5138427734375
1.5202880859374999
1.5315673828124998
1.538818359375
1.53720703125
1.55009765625
1.55009765625
1.5517089843749998
1.5573486328125
1.5492919921875
1.5597656249999998
1.5734619140625
1.5758789062499998
1.59521484375
1.59521484375
1.606494140625
1.6177734375
1.6201904296874998
1.6024658203125
1.6056884765625
1.5782958984375
1.56943359375
1.5654052734375
1.5533203125
1.558154296875
1.5492919921875
1.5364013671874999
1.5364013671874999
1.5364013671874999
1.5380126953125
1.5283447265624999
1.5347900390625
1.5251220703125
1.5114257812499998
1.5041748046874999
1.4920898437499999
1.482421875
1.477587890625
1.4783935546875
1.4872558593749998
1.4945068359375
1.50498046875
1.5122314453124999
1.5235107421874998
1.529150390625
1.525927734375
1.5541259765625
1.546875
1.56298828125
1.5460693359375
1.5589599609375
1.5484863281249999
1.5573486328125
1.5637939453124998
1.58232421875
1.5927978515624999
1.5839355468749998
1.6040771484374998
1.6290527343749999
1.611328125
1.6056884765625
1.5895751953125
1.5879638671874998
1.5702392578125
1.5686279296874999
1.5654052734375
1.5525146484374999
1.5436523437499998
1.5517089843749998
1.5436523437499998
1.5460693359375
1.5275390624999998
1.53076171875
1.53720703125
1.5218994140625
1.5138427734375
1.5001464843749999
1.4961181640624999
1.4896728515625
1.4751708984374998
1.48564453125
1.4783935546875
1.4928955078125
1.4912841796874998
1.5009521484375
1.5073974609374998
1.5323730468749999
1.5315673828124998
1.542041015625
1.5476806640624998
1.55009765625
1.5557373046874998
1.558154296875
1.5541259765625
1.5541259765625
1.5621826171875
1.5815185546875
1.5919921874999998
1.6024658203125
1.6056884765625
1.6201904296874998
1.6089111328124999
1.6185791015625
1.60166015625
1.5863525390625
1.585546875
1.5662109375
1.5637939453124998
1.5509033203125
1.5565429687499999
1.546875
1.542041015625
1.53720703125
1.5404296874999999
1.5275390624999998
1.529150390625
1.5251220703125
1.5090087890625
1.5082031249999999
1.49853515625
1.4848388671875
1.482421875
1.482421875
1.4800048828124999
1.482421875
1.493701171875
1.5041748046874999
1.5138427734375
1.522705078125
1.5323730468749999
1.533984375
1.545263671875
1.558154296875
1.5573486328125
1.554931640625
1.558154296875
1.5484863281249999
1.5686279296874999
1.5791015625
1.5863525390625
1.5984375
1.6024658203125
1.6185791015625
1.6234130859375
1.6056884765625
1.5944091796875
1.5863525390625
1.5839355468749998
1.571044921875
1.5662109375
1.5476806640624998
1.546875
1.538818359375
1.5355957031249998
1.53720703125
1.5275390624999998
1.5315673828124998
1.53720703125
1.522705078125
1.5138427734375
1.5114257812499998
1.4993408203124998
1.4864501953125
1.480810546875
1.4735595703125
1.482421875
1.4953124999999998
1.493701171875
1.50498046875
1.5138427734375
1.5243164062499999
1.5364013671874999
1.538818359375
1.5476806640624998
1.5436523437499998
1.5589599609375
1.5573486328125
1.5589599609375
1.5565429687499999
1.5670166015625
1.5758789062499998
1.5879638671874998
1.5960205078124998
1.6089111328124999
1.61455078125
1.6153564453125
1.6048828124999999
1.609716796875
1.5887695312499999
1.577490234375
1.56943359375
1.56298828125
1.5533203125
1.5541259765625
1.5460693359375
1.5380126953125
1.5355957031249998
1.5299560546875
1.533984375
1.533984375
1.5283447265624999
1.5146484375
1.50498046875
1.5017578125
1.4928955078125
1.4791992187499998
1.477587890625
1.4840332031249999
1.4816162109375
1.5017578125
1.50498046875
1.5243164062499999
1.51787109375
1.529150390625
1.5396240234374998
1.5444580078124999
1.5436523437499998
1.5525146484374999
1.5557373046874998
1.5541259765625
1.561376953125
1.5645996093749999
1.5799072265624998
1.587158203125
1.6081054687499998
1.609716796875
1.6121337890624998
1.6201904296874998
1.6137451171875
1.5992431640625
1.5911865234375
1.58232421875
1.5734619140625
1.5670166015625
1.5533203125
1.5476806640624998
1.5355957031249998
1.538818359375
1.5436523437499998
1.5251220703125
1.5299560546875
1.53076171875
1.5331787109375
1.5218994140625
1.513037109375
1.5009521484375
1.4880615234374999
1.4816162109375
1.4751708984374998
1.4800048828124999
1.477587890625
1.4920898437499999
1.5057861328125
1.5162597656249999
1.5251220703125
1.5299560546875
1.5364013671874999
1.5412353515625
1.5484863281249999
1.558154296875
1.5525146484374999
1.554931640625
1.5597656249999998
1.5670166015625
1.5702392578125
1.5726562499999999
1.5944091796875
1.606494140625
1.611328125
1.6161621093749998
1.6129394531249999
1.603271484375
1.5895751953125
1.5782958984375
1.56943359375
1.571044921875
1.5509033203125
1.5525146484374999
1.5364013671874999
1.5428466796875
1.5347900390625
1.5412353515625
1.5283447265624999
1.51787109375
1.5355957031249998
1.5275390624999998
1.5162597656249999
1.5033691406249998
1.4912841796874998
1.4816162109375
1.4719482421874999
1.4791992187499998
1.490478515625
1.490478515625
1.5041748046874999
1.5122314453124999
1.5218994140625
1.5364013671874999
1.5364013671874999
1.5428466796875
1.5476806640624998
1.5557373046874998
1.5541259765625
1.5541259765625
1.561376953125
1.5541259765625
1.5815185546875
1.5734619140625
1.5984375
1.603271484375
1.61455078125
1.6201904296874998
1.6161621093749998
1.6040771484374998
1.587158203125
1.5831298828125
1.5726562499999999
1.5670166015625
1.5557373046874998
1.5509033203125
1.5444580078124999
1.5428466796875
1.538818359375
1.5364013671874999
1.525927734375
1.5283447265624999
1.53720703125
1.5202880859374999
1.5162597656249999
1.5009521484375
1.4928955078125
1.4872558593749998
1.4783935546875
1.4735595703125
1.4767822265625
1.4880615234374999
1.5057861328125
1.5017578125
1.525927734375
1.5275390624999998
1.542041015625
1.546875
1.546875
1.554931640625
1.5541259765625
1.5533203125
1.558154296875
1.554931640625
1.5702392578125
1.5799072265624998
1.5887695312499999
1.6048828124999999
1.611328125
1.6209960937499999
1.611328125
1.6081054687499998
1.5895751953125
1.58232421875
1.5799072265624998
1.5621826171875
1.558154296875
1.5509033203125
1.546875
1.53720703125
1.5299560546875
1.5315673828124998
1.53076171875
1.5275390624999998
1.538818359375
1.5218994140625
1.5122314453124999
1.4993408203124998
1.4977294921875
1.4888671875
1.4767822265625
1.482421875
1.4832275390624998
1.4880615234374999
1.5009521484375
1.5122314453124999
1.5194824218749998
1.5235107421874998
1.53720703125
1.5396240234374998
1.55009765625
1.5460693359375
1.5557373046874998
1.5517089843749998
1.5589599609375
1.561376953125
1.5734619140625
1.5702392578125
1.5863525390625
1.5976318359375
1.6000488281249998
1.622607421875
1.6137451171875
1.6040771484374998
1.6000488281249998
1.585546875
1.5847412109374999
1.5686279296874999
1.558154296875
1.55009765625
1.5444580078124999
1.5364013671874999
1.5380126953125
1.529150390625
1.529150390625
1.5275390624999998
1.5364013671874999
1.525927734375
1.506591796875
1.5114257812499998
1.490478515625
1.4953124999999998
1.477587890625
1.4800048828124999
1.477587890625
1.4872558593749998
1.496923828125
1.5082031249999999
1.5162597656249999
1.5275390624999998
1.5364013671874999
1.5380126953125
1.545263671875
1.5436523437499998
1.56298828125
1.5517089843749998
1.5637939453124998
1.5557373046874998
1.561376953125
1.5750732421875
1.5887695312499999
1.5968261718749999
1.6153564453125
1.619384765625
1.6234130859375
1.6056884765625
1.593603515625
1.5919921874999998
1.5839355468749998
1.56298828125
1.5589599609375
1.5541259765625
1.545263671875
1.5396240234374998
1.5476806640624998
1.529150390625
1.529150390625
1.53076171875
1.5364013671874999
1.522705078125
1.5146484375
1.509814453125
1.4928955078125
1.4896728515625
1.480810546875
1.4759765624999999
1.4791992187499998
1.48564453125
1.4896728515625
1.506591796875
1.5146484375
1.52109375
1.5355957031249998
1.5436523437499998
1.5404296874999999
1.5517089843749998
1.5565429687499999
1.5533203125
1.5557373046874998
1.5492919921875
1.56298828125
1.5831298828125
1.5879638671874998
1.593603515625
1.6121337890624998
1.6105224609375
1.6105224609375
1.6056884765625
1.6008544921874999
1.5968261718749999
1.585546875
1.5702392578125
1.5597656249999998
1.5541259765625
1.55009765625
1.5364013671874999
1.5364013671874999
1.5364013671874999
1.5267333984375
1.5251220703125
1.5412353515625
1.5275390624999998
1.5243164062499999
1.5090087890625
1.5001464843749999
1.4928955078125
1.480810546875
1.474365234375
1.4711425781249998
1.4832275390624998
1.4961181640624999
1.5025634765625
1.5251220703125
1.522705078125
1.5315673828124998
1.5380126953125
1.5525146484374999
1.5428466796875
1.56298828125
1.5605712890624999
1.5541259765625
1.5645996093749999
1.5662109375
1.571044921875
1.5887695312499999
1.585546875
1.6056884765625
1.606494140625
1.619384765625
1.606494140625
1.6040771484374998
1.59521484375
1.5791015625
1.5718505859374998
1.5686279296874999
1.558154296875
1.55009765625
1.5428466796875
1.529150390625
1.5428466796875
1.533984375
1.5299560546875
1.533984375
1.5315673828124998
1.52109375
1.5146484375
1.49853515625
1.4920898437499999
1.4896728515625
1.4735595703125
1.4751708984374998
1.4896728515625
1.5009521484375
1.49853515625
1.51787109375
1.522705078125
1.5299560546875
1.5347900390625
1.5404296874999999
1.55009765625
1.55009765625
1.5589599609375
1.5589599609375
1.5517089843749998
1.5605712890624999
1.577490234375
1.5839355468749998
1.5968261718749999
1.6081054687499998
1.6129394531249999
1.6185791015625
1.61455078125
1.606494140625
1.5895751953125
1.5847412109374999
1.5726562499999999
1.5605712890624999
1.5557373046874998
1.55009765625
1.5428466796875
1.538818359375
1.5355957031249998
1.533984375
1.533984375
1.529150390625
1.5275390624999998
1.522705078125
1.5122314453124999
1.5025634765625
1.4961181640624999
1.480810546875
1.4783935546875
1.4783935546875
1.48564453125
1.4920898437499999
1.5033691406249998
1.5106201171875
1.5251220703125
1.5283447265624999
1.538818359375
1.5404296874999999
1.5517089843749998
1.5484863281249999
1.5541259765625
1.5557373046874998
1.5565429687499999
1.5589599609375
1.5670166015625
1.585546875
1.5927978515624999
1.6000488281249998
1.611328125
1.6177734375
1.611328125
1.6048828124999999
1.5944091796875
1.5863525390625
1.5782958984375
1.56943359375
1.558154296875
1.5517089843749998
1.5492919921875
1.5364013671874999
1.53720703125
1.529150390625
1.525927734375
1.53076171875
1.533984375
1.5251220703125
1.5162597656249999
1.5025634765625
1.4880615234374999
1.4896728515625
1.4832275390624998
1.4848388671875
1.48564453125
1.4961181640624999
1.4977294921875
1.5090087890625
1.5218994140625
1.533984375
1.5331787109375
1.5436523437499998
1.5533203125
1.5573486328125
1.554931640625
1.56298828125
1.561376953125
1.55009765625
1.5831298828125
1.58232421875
1.5887695312499999
1.6056884765625
1.6089111328124999
1.6185791015625
1.6161621093749998
1.60166015625
1.5895751953125
1.5927978515624999
1.5758789062499998
1.56298828125
1.561376953125
1.545263671875
1.546875
1.5412353515625
1.5364013671874999
1.5355957031249998
1.5251220703125
1.5364013671874999
1.5251220703125
1.5218994140625
1.5106201171875
1.5090087890625
1.4977294921875
1.4896728515625
1.4767822265625
1.477587890625
1.4872558593749998
1.4896728515625
1.4961181640624999
1.5017578125
1.5235107421874998
1.53076171875
1.5347900390625
1.5404296874999999
1.5517089843749998
1.5517089843749998
1.5525146484374999
1.55009765625
1.5662109375
1.5484863281249999
1.5686279296874999
1.577490234375
1.5911865234375
1.603271484375
1.606494140625
1.6153564453125
1.6234130859375
1.6089111328124999
1.5968261718749999
1.5758789062499998
1.5799072265624998
1.5686279296874999
1.5597656249999998
1.5476806640624998
1.545263671875
1.5364013671874999
1.5444580078124999
1.5275390624999998
1.5315673828124998
1.533984375
1.5396240234374998
1.5218994140625
1.5170654296875
1.4993408203124998
1.4928955078125
1.4840332031249999
1.4848388671875
1.4687255859375
1.4840332031249999
1.4872558593749998
1.5017578125
1.5090087890625
1.5106201171875
1.529150390625
1.5347900390625
1.5436523437499998
1.5460693359375
1.558154296875
1.5404296874999999
1.5573486328125
1.5533203125
1.5573486328125
1.5718505859374998
1.5766845703124999
1.590380859375
1.5944091796875
1.6081054687499998
1.6121337890624998
1.622607421875
1.6081054687499998
1.60166015625
1.585546875
1.5766845703124999
