1.1883544921875
1.22138671875
1.2955078125
1.4010498046875
1.4630859374999998
1.5186767578125
1.5654052734375
1.5992431640625
1.6169677734374999
1.6451660156249999
1.6645019531249998
1.6645019531249998
1.670947265625
1.674169921875
1.6564453124999998
1.53720703125
1.7539306640624999
1.8006591796875
1.815966796875
1.8618896484374998
1.89169921875
1.92392578125
1.9182861328124998
1.7152587890625
1.6564453124999998
1.587158203125
1.5243164062499999
1.4993408203124998
1.4630859374999998
1.44052734375
1.4219970703125
1.4026611328124998
1.4147460937499998
1.42119140625
1.4147460937499998
1.42119140625
1.5186767578125
1.4171630859375
1.3237060546875
1.3083984375
1.2479736328125
1.22138671875
1.1778808593749999
1.2238037109375
1.27939453125
1.3688232421875
1.4364990234375
1.506591796875
1.55009765625
1.5863525390625
1.6177734375
1.6451660156249999
1.65966796875
1.6669189453125
1.667724609375
1.662890625
1.658056640625
1.5364013671874999
1.6814208984374999
1.7861572265624999
1.8135498046874998
1.8635009765625
1.8868652343749999
1.9682373046875
1.899755859375
1.7466796875
1.6717529296875
1.577490234375
1.5283447265624999
1.4864501953125
1.4622802734375
1.4518066406249999
1.4332763671875
1.42119140625
1.4236083984374999
1.413134765625
1.4228027343749998
1.4252197265625
1.429248046875
1.5162597656249999
1.3220947265624998
1.3148437499999999
1.2753662109375
1.2286376953125
1.1939941406249999
1.2173583984375
1.2334716796875
1.3583496093749998
1.432470703125
1.4840332031249999
1.522705078125
1.5863525390625
1.6089111328124999
1.62744140625
1.6532226562499999
1.6620849609375
1.6620849609375
1.6693359374999999
1.658056640625
1.6540283203125
1.561376953125
1.7861572265624999
1.7958251953125
1.8425537109374999
1.8868652343749999
1.8860595703124998
1.9666259765624998
1.7901855468749999
1.6967285156249998
1.6177734375
1.56943359375
1.509814453125
1.4783935546875
1.4590576171874998
1.432470703125
1.4139404296875
1.4107177734374998
1.4091064453125
1.4147460937499998
1.426025390625
1.416357421875
1.5315673828124998
1.3510986328124999
1.3188720703124999
1.2769775390625
1.2334716796875
1.216552734375
1.203662109375
1.2415283203124998
1.3204833984375
1.3921875
1.4711425781249998
1.5251220703125
1.5637939453124998
1.6105224609375
1.6290527343749999
1.6556396484375
1.6572509765624999
1.6588623046875
1.6604736328124998
1.6645019531249998
1.6564453124999998
1.5444580078124999
1.7370117187499998
1.7893798828124998
1.832080078125
1.8699462890624998
1.8884765625
1.94970703125
1.8755859375
1.7370117187499998
1.63388671875
1.5726562499999999
1.522705078125
1.4751708984374998
1.4622802734375
1.442138671875
1.4284423828125
1.4228027343749998
1.4171630859375
1.4171630859375
1.4244140625
1.4236083984374999
1.5106201171875
1.3607666015625
1.3188720703124999
1.2963134765625
1.2463623046874999
1.2302490234374999
1.19560546875
1.232666015625
1.3075927734375
1.3792968749999999
1.4501953125
1.509814453125
1.561376953125
1.6008544921874999
1.625830078125
1.6491943359374999
1.6564453124999998
1.6604736328124998
1.6685302734374998
1.65966796875
1.6459716796875
1.558154296875
1.7200927734375
1.786962890625
1.8087158203125
1.8570556640625
1.8844482421875
1.8989501953124999
1.864306640625
1.7410400390624998
1.6588623046875
1.6024658203125
1.5299560546875
1.4920898437499999
1.4638916015624999
1.44052734375
1.4284423828125
1.416357421875
1.416357421875
1.42119140625
1.4308593749999998
1.4171630859375
1.4872558593749998
1.4630859374999998
1.3309570312499999
1.3019531249999998
1.2584472656249999
1.22783203125
1.2020507812499999
1.219775390625
1.2616699218749998
1.3510986328124999
1.4445556640625
1.4896728515625
1.5364013671874999
1.593603515625
1.6242187499999998
1.638720703125
1.65966796875
1.6572509765624999
1.6636962890625
1.6564453124999998
1.6540283203125
1.59521484375
1.6169677734374999
1.791796875
1.7934082031249998
1.8417480468749998
1.880419921875
1.89169921875
1.9601806640625
1.803076171875
1.6725585937499998
1.6081054687499998
1.5573486328125
1.5073974609374998
1.4848388671875
1.4542236328125
1.4389160156249998
1.416357421875
1.4187744140624998
1.4171630859375
1.41796875
1.4171630859375
1.4244140625
1.48564453125
1.3309570312499999
1.3172607421875
1.2914794921875
1.232666015625
1.2238037109375
1.18916015625
1.2608642578125
1.3382080078124998
1.416357421875
1.477587890625
1.529150390625
1.5670166015625
1.6072998046875
1.635498046875
1.6564453124999998
1.65966796875
1.6564453124999998
1.6604736328124998
1.6620849609375
1.6564453124999998
1.5799072265624998
1.76279296875
1.7829345703125
1.8312744140625
1.87236328125
1.8755859375
1.9569580078125
1.8135498046874998
1.7088134765624998
1.6363037109374998
1.5589599609375
1.5146484375
1.4880615234374999
1.4542236328125
1.4429443359374998
1.4276367187499999
1.43408203125
1.4187744140624998
1.42119140625
1.4219970703125
1.42119140625
1.5444580078124999
1.384130859375
1.3204833984375
1.287451171875
1.2495849609374998
1.2221923828124999
1.1802978515625
1.239111328125
1.3067871093749999
1.409912109375
1.4671142578124998
1.5194824218749998
1.554931640625
1.606494140625
1.6282470703124998
1.6395263671875
1.6669189453125
1.6532226562499999
1.6636962890625
1.6572509765624999
1.6483886718749998
1.529150390625
1.703173828125
1.77890625
1.80791015625
1.8554443359375
1.8796142578125
1.9295654296875
1.880419921875
1.719287109375
1.6427490234375
1.577490234375
1.5283447265624999
1.5001464843749999
1.4687255859375
1.4510009765624998
1.429248046875
1.4219970703125
1.4268310546874998
1.4228027343749998
1.416357421875
1.4268310546874998
1.4719482421874999
1.4115234374999999
1.3237060546875
1.30517578125
1.2536132812499998
1.2286376953125
1.203662109375
1.22783203125
1.2995361328125
1.3728515625
1.43408203125
1.5041748046874999
1.5533203125
1.5927978515624999
1.6177734375
1.63388671875
1.6508056640625
1.6564453124999998
1.6612792968749999
1.6636962890625
1.6540283203125
1.53720703125
1.67578125
1.7764892578125
1.8046875
1.8578613281249998
1.883642578125
1.8860595703124998
1.9279541015625
1.7700439453124999
1.6862548828125
1.59521484375
1.5444580078124999
1.506591796875
1.4671142578124998
1.448583984375
1.432470703125
1.4244140625
1.4123291015625
1.4171630859375
1.4203857421875
1.4228027343749998
1.448583984375
1.5001464843749999
1.3172607421875
1.3059814453124998
1.2898681640624998
1.232666015625
1.2141357421874999
1.2157470703125
1.2544189453124999
1.364794921875
1.4364990234375
1.482421875
1.5331787109375
1.593603515625
1.6185791015625
1.6234130859375
1.6524169921874998
1.6564453124999998
1.65966796875
1.6620849609375
1.6572509765624999
1.6451660156249999
1.5645996093749999
1.7748779296875
1.7877685546875
1.82724609375
1.8707519531249999
1.8844482421875
1.9553466796874999
1.828857421875
1.687060546875
1.619384765625
1.561376953125
1.5033691406249998
1.4767822265625
1.4550292968749998
1.43408203125
1.42119140625
1.4236083984374999
1.426025390625
1.42119140625
1.426025390625
1.4284423828125
1.5235107421874998
1.345458984375
1.329345703125
1.2834228515625
1.235888671875
1.2318603515625
1.1867431640625
1.2568359375
1.327734375
1.4042724609375
1.4816162109375
1.5267333984375
1.5637939453124998
1.6105224609375
1.6403320312499998
1.641943359375
1.6645019531249998
1.654833984375
1.6572509765624999
1.65
1.6524169921874998
1.5476806640624998
1.751513671875
1.7813232421874998
1.8240234375
1.869140625
1.8868652343749999
1.9553466796874999
1.8417480468749998
1.71123046875
1.6177734375
1.5678222656249998
1.5267333984375
1.493701171875
1.4622802734375
1.4413330078125
1.4276367187499999
1.4187744140624998
1.4155517578124999
1.4195800781249999
1.4244140625
1.426025390625
1.5299560546875
1.416357421875
1.319677734375
1.3059814453124998
1.2568359375
1.2262207031249999
1.190771484375
1.2374999999999998
1.2890625
1.3986328124999998
1.4550292968749998
1.5057861328125
1.5557373046874998
1.6024658203125
1.6169677734374999
1.641943359375
1.6540283203125
1.662890625
1.6564453124999998
1.6612792968749999
1.641943359375
1.538818359375
1.72734375
1.7813232421874998
1.8006591796875
1.8473876953125
1.8828369140624999
1.893310546875
1.9456787109375
1.738623046875
1.66611328125
1.5968261718749999
1.5275390624999998
1.4977294921875
1.4655029296875
1.448583984375
1.4308593749999998
1.3921875
1.4219970703125
1.4228027343749998
1.4276367187499999
1.4244140625
1.5025634765625
1.4461669921875
1.3285400390625
1.3156494140625
1.2640869140625
1.22783203125
1.2125244140625
1.2318603515625
1.2721435546875
1.364794921875
1.4300537109375
1.5114257812499998
1.5436523437499998
1.5782958984375
1.6161621093749998
1.6322753906249998
1.658056640625
1.6540283203125
1.6701416015625
1.6532226562499999
1.6612792968749999
1.577490234375
1.6234130859375
1.770849609375
1.79501953125
1.8361083984375
1.8731689453125
1.8820312499999998
1.9392333984374999
1.7821289062499999
1.6725585937499998
1.606494140625
1.542041015625
1.506591796875
1.4655029296875
1.4461669921875
1.44052734375
1.4276367187499999
1.4268310546874998
1.432470703125
1.4203857421875
1.4268310546874998
1.426025390625
1.5484863281249999
1.3309570312499999
1.3140380859374998
1.2802001953125
1.2286376953125
1.2254150390625
1.184326171875
1.2536132812499998
1.3502929687499998
1.4268310546874998
1.47275390625
1.5412353515625
1.5847412109374999
1.6056884765625
1.6282470703124998
1.65
1.6564453124999998
1.65966796875
1.6532226562499999
1.6524169921874998
1.6524169921874998
1.593603515625
1.7635986328125
1.77568359375
1.8199951171875
1.8715576171875
1.8731689453125
1.9400390625
1.8022705078124999
1.6935058593749999
1.6314697265625
1.5621826171875
1.5162597656249999
1.4920898437499999
1.4630859374999998
1.4373046875
1.4236083984374999
1.413134765625
1.4139404296875
1.4219970703125
1.4236083984374999
1.4364990234375
1.5484863281249999
1.36962890625
1.3180664062499998
1.2858398437499998
1.248779296875
1.2334716796875
1.1851318359375
1.2431396484375
1.3180664062499998
1.38896484375
1.4791992187499998
1.5114257812499998
1.546875
1.60166015625
1.6209960937499999
1.651611328125
1.65
1.6540283203125
1.6540283203125
1.6556396484375
1.6540283203125
1.5347900390625
1.7136474609374999
1.7781005859374999
1.819189453125
1.8554443359375
1.869140625
1.90458984375
1.9013671875
1.748291015625
1.6379150390625
1.587158203125
1.529150390625
1.4961181640624999
1.461474609375
1.45341796875
1.4268310546874998
1.4171630859375
1.4187744140624998
1.41796875
1.4219970703125
1.4203857421875
1.490478515625
1.393798828125
1.3229003906249999
1.2987304687499999
1.2528076171875
1.222998046875
1.2060791015624999
1.224609375
1.30517578125
1.3817138671875
1.4501953125
1.5122314453124999
1.554931640625
1.5919921874999998
1.6161621093749998
1.6443603515624998
1.651611328125
1.6604736328124998
1.6564453124999998
1.6588623046875
1.6508056640625
1.5283447265624999
1.6910888671875
1.770849609375
1.78857421875
1.8522216796875
1.8788085937499999
1.880419921875
1.8892822265625
1.7362060546875
1.65966796875
1.5815185546875
1.53720703125
1.5017578125
1.4751708984374998
1.4518066406249999
1.44052734375
1.432470703125
1.4276367187499999
1.4195800781249999
1.41796875
1.4348876953124998
1.4558349609374999
1.4888671875
1.3333740234375
1.31162109375
1.2689208984375
1.2366943359375
1.2125244140625
1.20849609375
1.2665039062499999
1.3470703124999999
1.4381103515625
1.4840332031249999
1.5355957031249998
1.6000488281249998
1.6153564453125
1.6290527343749999
1.6451660156249999
1.6588623046875
1.6508056640625
1.6572509765624999
1.6540283203125
1.625830078125
1.577490234375
1.7732666015624998
1.7829345703125
1.8304687499999999
1.85947265625
1.880419921875
1.9432617187499999
1.8183837890624999
1.683837890625
1.622607421875
1.5670166015625
1.506591796875
1.4912841796874998
1.4606689453125
1.4429443359374998
1.4203857421875
1.4155517578124999
1.4155517578124999
1.4155517578124999
1.4268310546874998
1.4252197265625
1.522705078125
1.3430419921874999
1.3261230468749998
1.2914794921875
1.255224609375
1.2366943359375
1.200439453125
1.2656982421874998
1.3341796874999998
1.4066894531249998
1.4622802734375
1.5154541015624998
1.5645996093749999
1.6008544921874999
1.619384765625
1.6475830078125
1.6508056640625
1.654833984375
1.6483886718749998
1.651611328125
1.64677734375
1.5533203125
1.74345703125
1.7660156249999999
1.8216064453124998
1.8578613281249998
1.8667236328124999
1.9352050781249999
1.8465820312499999
1.7208984374999998
1.6564453124999998
1.5662109375
1.529150390625
1.5001464843749999
1.47275390625
1.4501953125
1.4364990234375
1.4236083984374999
1.41796875
1.426025390625
1.4236083984374999
1.4308593749999998
1.5364013671874999
1.4074951171874999
1.3309570312499999
1.297119140625
1.2624755859374999
1.2350830078125
1.197216796875
1.2447509765625
1.2938964843749998
1.4074951171874999
1.46953125
1.5090087890625
1.5645996093749999
1.5992431640625
1.6161621093749998
1.6290527343749999
1.6532226562499999
1.6524169921874998
1.6508056640625
1.651611328125
1.6427490234375
1.5396240234374998
1.7265380859375
1.7700439453124999
1.799853515625
1.8328857421875
1.8699462890624998
1.8908935546874999
1.9013671875
1.7208984374999998
1.6524169921874998
1.587158203125
1.5275390624999998
1.4953124999999998
1.4671142578124998
1.458251953125
1.4316650390624999
1.4244140625
1.4236083984374999
1.429248046875
1.4236083984374999
1.4244140625
1.529150390625
1.432470703125
1.3341796874999998
1.3229003906249999
1.2665039062499999
1.2399169921875
1.224609375
1.239111328125
1.2938964843749998
1.364794921875
1.4316650390624999
1.4993408203124998
1.5404296874999999
1.5831298828125
1.6129394531249999
1.622607421875
1.6411376953124999
1.6411376953124999
1.64677734375
1.6475830078125
1.6475830078125
1.5573486328125
1.6330810546874999
1.7700439453124999
1.7926025390625
1.8336914062499998
1.85625
1.8828369140624999
1.9303710937499998
1.7901855468749999
1.7208984374999998
1.6250244140624999
1.5847412109374999
1.5275390624999998
1.4687255859375
1.4445556640625
1.4276367187499999
1.4091064453125
1.4195800781249999
1.4236083984374999
1.416357421875
1.42119140625
1.4332763671875
1.5267333984375
1.3309570312499999
1.3188720703124999
1.2947021484374999
1.2270263671875
1.2334716796875
1.2173583984375
1.2544189453124999
1.3583496093749998
1.4244140625
1.477587890625
1.5251220703125
1.5799072265624998
1.5968261718749999
1.6137451171875
1.6491943359374999
1.654833984375
1.6701416015625
1.658056640625
1.6459716796875
1.6371093749999999
1.5331787109375
1.740234375
1.7700439453124999
1.82080078125
1.8763916015625
1.869140625
1.9231201171874999
1.767626953125
1.6886718749999998
1.6072998046875
1.5428466796875
1.474365234375
1.46953125
1.4630859374999998
1.45341796875
1.4397216796874999
1.4332763671875
1.4373046875
1.4413330078125
1.4518066406249999
1.48564453125
1.561376953125
1.37607421875
1.361572265625
1.3704345703124998
1.316455078125
1.2399169921875
1.1545166015625
1.2383056640624999
1.3067871093749999
1.3752685546874999
1.4550292968749998
1.5146484375
1.545263671875
1.60166015625
1.61455078125
1.6427490234375
1.6524169921874998
1.6314697265625
1.6459716796875
1.6435546875
1.6459716796875
1.522705078125
1.7152587890625
1.77568359375
1.8014648437499998
1.8393310546875
1.8586669921874999
1.91748046875
1.8256347656249998
1.7168701171874998
1.6266357421875
1.5678222656249998
1.5331787109375
1.4896728515625
1.458251953125
1.4550292968749998
1.4308593749999998
1.4203857421875
1.4219970703125
1.416357421875
1.4228027343749998
1.4268310546874998
1.5146484375
1.3833251953124999
1.3301513671874998
1.3124267578125
1.27294921875
1.2431396484375
1.2109130859375
1.2374999999999998
1.3059814453124998
1.38896484375
1.458251953125
1.5114257812499998
1.5476806640624998
1.59521484375
1.61455078125
1.6322753906249998
1.6443603515624998
1.641943359375
1.6435546875
1.6443603515624998
1.651611328125
1.574267578125
1.6951171875
1.770849609375
1.783740234375
1.8489990234375
1.8667236328124999
1.8763916015625
1.899755859375
1.7603759765625
1.6822265625
1.6121337890624998
1.5517089843749998
1.509814453125
1.4840332031249999
1.456640625
1.4373046875
1.4107177734374998
1.4187744140624998
1.42119140625
1.4203857421875
1.432470703125
1.480810546875
1.47275390625
1.329345703125
1.3180664062499998
1.2818115234374998
1.24072265625
1.2157470703125
1.2463623046874999
1.2802001953125
1.3527099609375
1.4413330078125
1.4945068359375
1.533984375
1.5766845703124999
1.6024658203125
1.622607421875
1.6363037109374998
1.64677734375
1.64677734375
1.6435546875
1.638720703125
1.5831298828125
1.5887695312499999
1.7684326171875
1.770849609375
1.819189453125
1.832080078125
1.8522216796875
1.941650390625
1.7684326171875
1.662890625
1.60166015625
1.558154296875
1.5235107421874998
1.4767822265625
1.4493896484375
1.43408203125
1.4356933593749999
1.4711425781249998
1.4872558593749998
1.4574462890625
1.432470703125
1.4228027343749998
1.4961181640624999
1.303564453125
1.3027587890624999
1.287451171875
1.2882568359375
1.3100097656249998
1.2181640624999999
1.224609375
1.3261230468749998
1.4091064453125
1.4630859374999998
1.5106201171875
1.5517089843749998
1.5654052734375
1.5944091796875
1.6411376953124999
1.69189453125
1.6830322265625
1.638720703125
1.6314697265625
1.6403320312499998
1.561376953125
1.7652099609374998
1.7732666015624998
1.8095214843749998
1.848193359375
1.8844482421875
1.972265625
1.8022705078124999
1.7152587890625
1.6242187499999998
1.5436523437499998
1.5154541015624998
1.4977294921875
1.4461669921875
1.4268310546874998
1.40830078125
1.4268310546874998
1.4389160156249998
1.4477783203124999
1.4655029296875
1.4703369140625
1.6201904296874998
1.4236083984374999
1.3688232421875
1.3204833984375
1.2624755859374999
1.2576416015624998
1.2366943359375
1.2890625
1.3043701171875
1.3551269531249999
1.4203857421875
1.490478515625
1.5355957031249998
1.5839355468749998
1.6072998046875
1.6411376953124999
1.6773925781249999
1.6749755859375
1.6765869140624998
1.6814208984374999
1.6612792968749999
1.4622802734375
1.7442626953125
1.74345703125
1.7813232421874998
1.843359375
1.8683349609375
1.9166748046875
1.91748046875
1.699951171875
1.6411376953124999
1.6048828124999999
1.542041015625
1.5251220703125
1.513037109375
1.461474609375
1.4413330078125
1.45341796875
1.4832275390624998
1.45341796875
1.4300537109375
1.41796875
1.6024658203125
1.3929931640625
1.31162109375
1.31162109375
1.24716796875
1.2366943359375
1.2221923828124999
1.264892578125
1.2737548828124998
1.37607421875
1.4308593749999998
1.5033691406249998
1.5396240234374998
1.5750732421875
1.619384765625
1.6121337890624998
1.638720703125
1.65966796875
1.6693359374999999
1.6451660156249999
1.6363037109374998
1.41796875
1.7184814453125
1.8216064453124998
1.7692382812499998
1.8256347656249998
1.8747802734374999
1.9182861328124998
1.8941162109374998
1.6532226562499999
1.611328125
1.5831298828125
1.5404296874999999
1.5283447265624999
1.4800048828124999
1.4703369140625
1.4332763671875
1.4558349609374999
1.4800048828124999
1.4928955078125
1.4606689453125
1.4413330078125
1.5073974609374998
1.6395263671875
1.3333740234375
1.3623779296874998
1.3365966796875
1.2979248046874998
1.2503906249999999
1.213330078125
1.3188720703124999
1.4630859374999998
1.477587890625
1.5017578125
1.5782958984375
1.625830078125
1.5839355468749998
1.5944091796875
3.003515625
2.1938232421875
1.7990478515625
1.6588623046875
1.6081054687499998
1.5654052734375
1.545263671875
1.7901855468749999
1.6894775390624999
1.75634765625
1.7555419921875
1.7555419921875
2.0375244140624997
1.6322753906249998
1.5428466796875
1.5170654296875
1.5009521484375
1.445361328125
1.400244140625
1.37607421875
1.368017578125
1.3825195312499998
1.3591552734374999
1.3784912109374998
1.3664062499999998
1.3639892578125
1.4074951171874999
1.72412109375
1.1931884765625
1.2608642578125
1.2568359375
1.206884765625
1.1698242187499999
1.1416259765624999
1.1883544921875
1.327734375
1.3962158203125
1.46630859375
1.5122314453124999
1.5243164062499999
1.5839355468749998
1.611328125
1.6556396484375
1.6089111328124999
1.59521484375
1.6298583984375
1.641943359375
1.6137451171875
1.219775390625
1.844970703125
1.75634765625
1.7901855468749999
1.8578613281249998
1.8554443359375
2.1229248046875
1.9053955078125
1.609716796875
1.585546875
1.5509033203125
1.5275390624999998
1.48564453125
1.4638916015624999
1.448583984375
1.4437499999999999
1.4510009765624998
1.44052734375
1.4203857421875
1.4155517578124999
1.43408203125
2.0101318359375
1.184326171875
1.2374999999999998
1.3108154296874999
1.264892578125
1.2447509765625
1.052197265625
1.2374999999999998
1.3446533203125
1.4550292968749998
1.509814453125
1.561376953125
1.5533203125
1.6451660156249999
1.6475830078125
1.658056640625
1.67900390625
1.6669189453125
1.6435546875
1.651611328125
1.5944091796875
0.7387939453125
1.9134521484375
1.8715576171875
1.7579589843749999
1.883642578125
1.91748046875
2.1906005859374997
2.2437744140625
2.98095703125
3.0389648437499996
3.029296875
2.731201171875
2.457275390625
2.173681640625
1.909423828125
1.6209960937499999
1.174658203125
0.742822265625
0.50595703125
0.230419921875
0.08217773437499999
3.0405761718749997
3.0365478515624997
3.0357421875
3.0357421875
3.037353515625
2.1680419921875
0.0314208984375
0.0362548828125
0.040283203125
0.033032226562499996
0.03544921875
0.038671874999999994
0.038671874999999994
0.03544921875
0.11037597656249999
0.1716064453125
0.800830078125
1.116650390625
1.3551269531249999
1.6532226562499999
1.8489990234375
0.030615234374999998
0.0378662109375
0.037060546874999996
0.03544921875
0.03544921875
0.823388671875
2.2292724609375
3.0389648437499996
3.0365478515624997
3.0365478515624997
3.0365478515624997
3.0381591796875
3.0494384765625
3.0357421875
3.0421875
3.037353515625
3.01318359375
2.760205078125
2.5837646484374996
2.40087890625
2.126953125
1.928759765625
3.034130859375
3.0365478515624997
3.0397705078125
3.0397705078125
3.0365478515624997
1.6201904296874998
0.0362548828125
0.038671874999999994
0.03544921875
0.03544921875
0.03544921875
0.0346435546875
0.033032226562499996
0.0362548828125
0.0362548828125
0.1796630859375
0.3101806640625
0.4632568359375
0.67998046875
0.9394042968749999
1.0812011718749999
0.033837890625
0.033837890625
0.03544921875
0.0346435546875
0.0394775390625
0.4084716796875
3.034130859375
3.037353515625
3.0389648437499996
3.034130859375
3.0357421875
3.0389648437499996
3.0421875
3.0365478515624997
3.0421875
3.0381591796875
3.029296875
2.9801513671874997
2.8689697265625
2.7384521484374997
2.521728515625
3.037353515625
3.0389648437499996
3.0349365234374996
3.0389648437499996
3.0357421875
2.76181640625
0.03544921875
0.038671874999999994
0.038671874999999994
0.0346435546875
0.03544921875
0.0346435546875
0.0322265625
0.0346435546875
0.0298095703125
0.033837890625
0.17724609375
0.31743164062499996
0.555908203125
0.7315429687499999
0.816943359375
0.0346435546875
0.0346435546875
0.038671874999999994
0.0322265625
0.033032226562499996
0.03544921875
2.6296874999999997
3.0397705078125
3.0325195312499997
3.0389648437499996
3.0365478515624997
3.0389648437499996
3.034130859375
3.0365478515624997
3.0325195312499997
3.037353515625
3.0365478515624997
3.0365478515624997
2.9737060546875
2.8125732421875
2.6659423828124997
3.0365478515624997
3.0349365234374996
3.0389648437499996
3.0357421875
3.034130859375
3.0357421875
2.0987548828125
0.033837890625
0.0378662109375
0.037060546874999996
0.0394775390625
0.033837890625
0.0346435546875
0.0298095703125
0.033032226562499996
0.0298095703125
0.061230468749999996
0.19013671875
0.2376708984375
0.37705078124999997
0.5478515625
0.03544921875
0.03544921875
0.0346435546875
0.033837890625
0.0394775390625
0.0394775390625
0.033837890625
3.0349365234374996
3.0365478515624997
3.037353515625
3.029296875
3.0381591796875
3.0325195312499997
3.0389648437499996
3.034130859375
3.0357421875
3.037353515625
3.0381591796875
3.0413818359375
2.89072265625
2.7650390624999996
2.5877929687499996
3.0357421875
3.037353515625
3.0365478515624997
3.0389648437499996
3.0381591796875
2.1954345703125
0.03544921875
0.033837890625
0.03544921875
0.0322265625
0.0378662109375
0.0346435546875
0.038671874999999994
0.033837890625
0.0346435546875
0.033837890625
0.19658203124999998
0.21269531249999998
0.37785644531249996
0.5889404296874999
0.6195556640625
0.0346435546875
0.03544921875
0.03544921875
0.040283203125
0.033032226562499996
0.0394775390625
3.037353515625
3.037353515625
3.0397705078125
3.0381591796875
3.0317138671875
3.0365478515624997
3.0365478515624997
3.0333251953125
3.037353515625
3.0381591796875
3.0381591796875
3.0421875
3.053466796875
2.914892578125
2.7988769531249997
3.0365478515624997
3.0365478515624997
3.0365478515624997
3.037353515625
3.0333251953125
3.0405761718749997
1.2399169921875
0.038671874999999994
0.0362548828125
0.041088867187499996
0.03544921875
0.030615234374999998
0.0346435546875
0.0362548828125
0.033837890625
0.0362548828125
0.103125
0.2102783203125
0.38188476562499996
0.5043457031249999
0.572021484375
0.0362548828125
0.0362548828125
0.0314208984375
0.0378662109375
0.03544921875
0.0362548828125
0.03544921875
3.0389648437499996
3.0389648437499996
3.0381591796875
3.037353515625
3.0389648437499996
3.0357421875
3.0389648437499996
3.0389648437499996
3.0397705078125
3.0397705078125
3.0405761718749997
3.0075439453125
2.9455078125
2.8037109375
3.034130859375
3.0405761718749997
3.0381591796875
3.0381591796875
3.0405761718749997
3.0413818359375
2.22041015625
0.0378662109375
0.038671874999999994
0.037060546874999996
0.037060546874999996
0.037060546874999996
0.0378662109375
0.0378662109375
0.038671874999999994
0.0322265625
0.0378662109375
0.09426269531249999
0.191748046875
0.2989013671875
0.404443359375
0.037060546874999996
0.0378662109375
0.037060546874999996
0.037060546874999996
0.0394775390625
0.041088867187499996
0.033837890625
3.0381591796875
3.0446044921874997
3.0405761718749997
3.0413818359375
3.0413818359375
3.0405761718749997
3.0405761718749997
3.0413818359375
3.0357421875
3.0421875
3.0421875
3.0405761718749997
3.0405761718749997
2.931005859375
2.682861328125
3.0405761718749997
3.0429931640624996
3.043798828125
3.0405761718749997
3.0405761718749997
2.5257568359375
0.20463867187499998
0.037060546874999996
0.0394775390625
0.033837890625
0.041088867187499996
0.0378662109375
0.0394775390625
0.03544921875
0.0378662109375
0.0346435546875
0.20463867187499998
0.185302734375
0.294873046875
0.44633789062499996
0.501123046875
0.04189453125
0.0394775390625
0.0394775390625
0.038671874999999994
0.038671874999999994
0.033837890625
3.0405761718749997
3.0421875
3.0389648437499996
3.0413818359375
3.0421875
3.0421875
3.0421875
3.0429931640624996
3.037353515625
3.0413818359375
3.0421875
3.0462158203125
3.043798828125
2.9753173828125
2.8681640625
3.043798828125
3.0429931640624996
3.0478271484375
3.0429931640624996
3.04541015625
3.043798828125
1.770849609375
0.043505859375
0.043505859375
0.04189453125
0.041088867187499996
0.040283203125
0.042700195312499994
0.0443115234375
0.0378662109375
0.041088867187499996
0.043505859375
0.14018554687499998
0.18046874999999998
0.41008300781249996
0.456005859375
0.043505859375
0.042700195312499994
0.0443115234375
0.0394775390625
0.0443115234375
0.0443115234375
0.0443115234375
3.0429931640624996
3.0494384765625
3.0470214843749996
3.043798828125
3.0486328124999997
3.0421875
3.0462158203125
3.0486328124999997
3.0470214843749996
3.0494384765625
3.0478271484375
3.050244140625
3.0478271484375
2.947119140625
3.0486328124999997
3.0478271484375
3.0494384765625
3.0470214843749996
3.0486328124999997
3.0526611328124997
2.5168945312499997
0.046728515624999994
0.04833984375
0.0515625
0.04833984375
0.050756835937499994
0.0443115234375
0.0539794921875
0.049145507812499996
0.045117187499999996
0.049145507812499996
0.04833984375
0.120849609375
0.217529296875
0.32951660156249996
0.049145507812499996
0.049145507812499996
0.042700195312499994
0.0475341796875
0.04833984375
0.049145507812499996
0.046728515624999994
3.0494384765625
3.0510498046874996
3.05185546875
3.0494384765625
3.053466796875
3.05185546875
3.053466796875
3.05185546875
3.0558837890625
3.0526611328124997
3.050244140625
3.05185546875
3.0550781249999996
2.972900390625
2.9189208984375
3.0542724609375
3.0526611328124997
3.0558837890625
3.0566894531249997
3.0566894531249997
2.8955566406249997
0.146630859375
0.049951171875
0.0523681640625
0.0604248046875
0.056396484375
0.059619140625
0.054785156249999994
0.059619140625
0.050756835937499994
0.054785156249999994
0.17885742187499998
0.16435546874999998
0.3150146484375
0.46164550781249997
0.5244873046874999
0.058813476562499994
0.056396484375
0.056396484375
0.061230468749999996
0.056396484375
0.0539794921875
0.9627685546875
3.0607177734374997
3.0655517578125
3.0623291015625
3.059912109375
3.06796875
3.0655517578125
3.0671630859374996
3.06796875
3.0687744140624997
3.0736083984375
3.0687744140624997
3.069580078125
3.0486328124999997
2.9712890625
3.0647460937499997
3.059912109375
3.0647460937499997
3.0639404296875
3.0655517578125
3.0631347656249996
2.064111328125
0.0604248046875
0.0604248046875
0.0604248046875
0.0620361328125
0.0620361328125
0.058813476562499994
0.0620361328125
0.059619140625
0.059619140625
0.061230468749999996
0.091845703125
0.2384765625
0.3714111328125
0.42539062499999997
0.0555908203125
0.054785156249999994
0.058813476562499994
0.061230468749999996
0.059619140625
0.053173828124999996
0.0539794921875
3.0615234375
3.0558837890625
3.0615234375
3.0558837890625
3.0542724609375
3.0558837890625
3.0550781249999996
3.0566894531249997
3.0566894531249997
3.0566894531249997
3.0558837890625
3.0550781249999996
3.0526611328124997
2.9849853515625
3.0470214843749996
3.053466796875
3.0542724609375
3.059912109375
3.0566894531249997
3.0574951171875
2.8423828125
0.0539794921875
0.0539794921875
0.0515625
0.054785156249999994
0.053173828124999996
0.053173828124999996
0.054785156249999994
0.0555908203125
0.0539794921875
0.049951171875
0.054785156249999994
0.104736328125
0.15629882812499998
0.28359375
0.0926513671875
0.053173828124999996
0.058813476562499994
0.049951171875
0.04833984375
0.0523681640625
0.0515625
3.0478271484375
3.053466796875
3.0526611328124997
3.0558837890625
3.0550781249999996
3.0558837890625
3.0494384765625
3.0550781249999996
3.0558837890625
3.0558837890625
3.0542724609375
3.0566894531249997
3.0550781249999996
3.05185546875
2.9801513671874997
3.0566894531249997
3.059912109375
3.0615234375
3.05185546875
3.053466796875
3.053466796875
0.2296142578125
0.050756835937499994
0.0515625
0.0555908203125
0.04833984375
0.0515625
0.0515625
0.0515625
0.050756835937499994
0.050756835937499994
0.1571044921875
0.24492187499999998
0.301318359375
0.4471435546875
0.4890380859375
0.0523681640625
0.0523681640625
0.049145507812499996
0.050756835937499994
0.04833984375
0.0523681640625
0.04833984375
3.053466796875
3.0542724609375
3.05830078125
3.0550781249999996
3.053466796875
3.05185546875
3.05185546875
3.0494384765625
3.05185546875
3.0494384765625
3.053466796875
3.0542724609375
3.0236572265625
2.91650390625
3.0558837890625
3.0591064453124996
3.0566894531249997
3.05830078125
3.0542724609375
3.0607177734374997
2.164013671875
0.056396484375
0.053173828124999996
0.0523681640625
0.0515625
0.0580078125
0.0620361328125
0.0555908203125
0.054785156249999994
0.0580078125
0.0580078125
0.08137207031249999
0.12568359375
0.25458984375
0.3520751953125
0.062841796875
0.056396484375
0.0555908203125
0.053173828124999996
0.056396484375
0.057202148437499996
0.0555908203125
3.05830078125
3.0566894531249997
3.0647460937499997
3.0591064453124996
3.0623291015625
3.0574951171875
3.059912109375
3.0615234375
3.0591064453124996
3.0591064453124996
3.0566894531249997
3.059912109375
3.0558837890625
3.027685546875
2.921337890625
3.0591064453124996
3.059912109375
3.0615234375
3.0607177734374997
3.05830078125
3.059912109375
0.34079589843749997
0.0580078125
0.059619140625
0.0620361328125
0.056396484375
0.054785156249999994
0.0580078125
0.0580078125
0.061230468749999996
0.056396484375
0.054785156249999994
0.0580078125
0.15146484375
0.2666748046875
0.30051269531249997
0.0555908203125
0.0555908203125
0.041088867187499996
0.054785156249999994
0.049951171875
0.061230468749999996
1.7176757812499999
3.059912109375
3.05830078125
3.0607177734374997
3.053466796875
3.0591064453124996
3.0566894531249997
3.0574951171875
3.0558837890625
3.0558837890625
3.05830078125
3.0591064453124996
3.0591064453124996
3.0510498046874996
2.995458984375
3.05830078125
3.0566894531249997
3.059912109375
3.05185546875
3.0607177734374997
3.0574951171875
0.41008300781249996
0.0523681640625
0.053173828124999996
0.053173828124999996
0.0539794921875
0.053173828124999996
0.053173828124999996
0.0555908203125
0.0523681640625
0.050756835937499994
0.057202148437499996
0.149853515625
0.22075195312499998
0.36416015625
0.4197509765625
0.053173828124999996
0.050756835937499994
0.0555908203125
0.049951171875
0.053173828124999996
0.0515625
0.0523681640625
3.0526611328124997
3.05830078125
3.0566894531249997
3.0486328124999997
3.053466796875
3.0510498046874996
3.0526611328124997
3.05185546875
3.05185546875
3.0526611328124997
3.050244140625
3.0566894531249997
3.053466796875
3.0421875
3.05185546875
3.05185546875
3.0526611328124997
3.053466796875
3.0566894531249997
3.0486328124999997
2.3017822265625
0.30051269531249997
0.050756835937499994
0.045117187499999996
0.04833984375
0.0515625
0.046728515624999994
0.0475341796875
0.045117187499999996
0.0459228515625
0.0475341796875
0.049145507812499996
0.1345458984375
0.2135009765625
0.2908447265625
0.17080078124999998
0.046728515624999994
0.043505859375
0.04833984375
0.049145507812499996
0.049951171875
0.0459228515625
2.9688720703125
3.0462158203125
3.043798828125
3.053466796875
3.043798828125
3.0470214843749996
3.0486328124999997
3.0494384765625
3.0478271484375
3.0446044921874997
3.0470214843749996
3.0486328124999997
2.9882080078124997
3.0486328124999997
2.9640380859374997
3.0542724609375
3.05185546875
3.0478271484375
3.050244140625
3.0486328124999997
3.0478271484375
0.49467773437499996
0.045117187499999996
0.0459228515625
0.0394775390625
0.0394775390625
0.0443115234375
0.0459228515625
0.04833984375
0.045117187499999996
0.049145507812499996
0.062841796875
0.0733154296875
0.169189453125
0.3053466796875
0.2441162109375
0.043505859375
0.043505859375
0.046728515624999994
0.043505859375
0.045117187499999996
0.046728515624999994
2.8609130859375
3.0429931640624996
3.0421875
3.0429931640624996
3.043798828125
3.0446044921874997
3.043798828125
3.0486328124999997
3.04541015625
3.0446044921874997
3.0462158203125
3.0462158203125
3.0446044921874997
3.0446044921874997
3.04541015625
3.0486328124999997
3.05185546875
3.0486328124999997
3.0470214843749996
3.0462158203125
3.0478271484375
0.9603515625
0.0394775390625
0.042700195312499994
0.04189453125
0.046728515624999994
0.0443115234375
0.041088867187499996
0.043505859375
0.043505859375
0.04189453125
0.198193359375
0.11923828125
0.191748046875
0.32548828124999996
0.36416015625
0.0443115234375
0.045117187499999996
0.043505859375
0.045117187499999996
0.04833984375
0.0443115234375
0.043505859375
3.0413818359375
3.0429931640624996
3.0478271484375
3.0462158203125
3.0478271484375
3.050244140625
3.0446044921874997
3.0478271484375
3.0486328124999997
3.043798828125
3.05185546875
3.0446044921874997
3.0421875
3.0164062499999997
2.9326171875
3.04541015625
3.04541015625
3.0462158203125
3.0413818359375
3.04541015625
2.3678466796874997
0.33676757812499997
0.043505859375
0.041088867187499996
0.0394775390625
0.042700195312499994
0.042700195312499994
0.042700195312499994
0.0475341796875
0.0443115234375
0.042700195312499994
0.043505859375
0.043505859375
0.13857421875
0.041088867187499996
0.23525390624999998
0.042700195312499994
0.038671874999999994
0.042700195312499994
0.043505859375
0.042700195312499994
0.04189453125
1.316455078125
3.0421875
3.0446044921874997
3.0446044921874997
3.04541015625
3.04541015625
3.0446044921874997
3.0389648437499996
3.0446044921874997
3.043798828125
3.043798828125
3.0462158203125
3.04541015625
3.0446044921874997
2.9511474609375
3.0446044921874997
3.04541015625
3.0446044921874997
3.0462158203125
3.0486328124999997
3.0446044921874997
0.5736328125
0.041088867187499996
0.0475341796875
0.045117187499999996
0.0378662109375
0.040283203125
0.045117187499999996
0.042700195312499994
0.040283203125
0.04189453125
0.0378662109375
0.088623046875
0.153076171875
0.25217285156249997
0.2892333984375
0.041088867187499996
0.045117187499999996
0.042700195312499994
0.04189453125
0.042700195312499994
0.04189453125
1.02158203125
3.0494384765625
3.04541015625
3.043798828125
3.043798828125
3.04541015625
3.0446044921874997
3.0462158203125
3.0470214843749996
3.0446044921874997
3.0462158203125
3.043798828125
3.0446044921874997
3.0462158203125
3.0252685546875
3.043798828125
3.0429931640624996
3.04541015625
3.0462158203125
3.04541015625
3.0421875
1.65966796875
0.040283203125
0.041088867187499996
0.042700195312499994
0.043505859375
0.037060546874999996
0.0394775390625
0.0443115234375
0.042700195312499994
0.043505859375
0.049145507812499996
0.127294921875
0.201416015625
0.49306640625
0.4165283203125
0.037060546874999996
0.041088867187499996
0.040283203125
0.042700195312499994
0.04189453125
0.042700195312499994
0.042700195312499994
3.043798828125
3.043798828125
3.043798828125
3.0381591796875
3.0421875
3.0462158203125
3.0446044921874997
3.0429931640624996
3.0470214843749996
3.0389648437499996
3.0413818359375
3.043798828125
3.04541015625
3.005126953125
2.9608154296875
3.0478271484375
3.0421875
3.043798828125
3.0446044921874997
3.0429931640624996
2.5974609374999997
0.6832031249999999
0.041088867187499996
0.040283203125
0.04189453125
0.041088867187499996
0.040283203125
0.042700195312499994
0.046728515624999994
0.043505859375
0.040283203125
0.042700195312499994
0.0443115234375
0.1426025390625
0.2135009765625
0.049951171875
0.046728515624999994
0.042700195312499994
0.042700195312499994
0.04189453125
0.0459228515625
0.04189453125
0.038671874999999994
3.050244140625
3.0470214843749996
3.0405761718749997
3.043798828125
3.0429931640624996
3.050244140625
3.0494384765625
3.04541015625
3.0470214843749996
3.0446044921874997
3.043798828125
3.0446044921874997
3.0486328124999997
2.9922363281249997
3.04541015625
3.0405761718749997
3.043798828125
3.04541015625
3.0397705078125
3.043798828125
0.5341552734375
0.042700195312499994
0.040283203125
0.046728515624999994
0.0443115234375
0.04189453125
0.0459228515625
0.040283203125
0.04189453125
0.041088867187499996
0.041088867187499996
0.10151367187499999
0.13857421875
0.233642578125
0.2827880859375
0.037060546874999996
0.041088867187499996
0.040283203125
0.04189453125
0.04189453125
0.04189453125
0.0539794921875
3.0405761718749997
3.043798828125
3.04541015625
3.04541015625
3.0429931640624996
3.043798828125
3.0478271484375
3.043798828125
3.0429931640624996
3.04541015625
3.0421875
3.0446044921874997
3.0413818359375
2.9833740234375
3.0397705078125
3.0429931640624996
3.0389648437499996
3.0429931640624996
3.0470214843749996
3.04541015625
2.20107421875
0.040283203125
0.0443115234375
0.041088867187499996
0.042700195312499994
0.041088867187499996
0.041088867187499996
0.041088867187499996
0.0394775390625
0.040283203125
0.04189453125
0.04189453125
0.11923828125
0.26425781249999997
0.37785644531249996
0.037060546874999996
0.041088867187499996
0.040283203125
0.042700195312499994
0.0378662109375
0.038671874999999994
0.041088867187499996
3.0413818359375
3.0421875
3.0429931640624996
3.0429931640624996
3.0446044921874997
3.0413818359375
3.0429931640624996
3.0397705078125
3.037353515625
3.0421875
3.043798828125
3.043798828125
3.0397705078125
3.0429931640624996
2.9833740234375
3.0429931640624996
3.0446044921874997
3.043798828125
3.04541015625
3.0429931640624996
2.9664550781249996
0.7629638671875
0.040283203125
0.041088867187499996
0.042700195312499994
0.041088867187499996
0.042700195312499994
0.04189453125
0.04189453125
0.037060546874999996
0.040283203125
0.0394775390625
0.08056640625
0.10231933593749999
0.2263916015625
0.252978515625
0.040283203125
0.040283203125
0.038671874999999994
0.041088867187499996
0.040283203125
0.041088867187499996
0.03544921875
3.0421875
3.0429931640624996
3.0429931640624996
3.04541015625
3.0429931640624996
3.04541015625
3.0413818359375
3.0462158203125
3.04541015625
3.0446044921874997
3.0421875
3.04541015625
3.029296875
2.9906249999999996
3.0446044921874997
3.0397705078125
3.0421875
3.0470214843749996
3.043798828125
3.0405761718749997
0.36174316406249996
0.041088867187499996
0.041088867187499996
0.0394775390625
0.045117187499999996
0.038671874999999994
0.0394775390625
0.0394775390625
0.043505859375
0.041088867187499996
0.040283203125
0.1071533203125
0.2263916015625
0.1651611328125
0.372216796875
0.042700195312499994
0.0394775390625
0.041088867187499996
0.040283203125
0.0378662109375
0.0459228515625
0.0459228515625
3.0446044921874997
3.0421875
3.043798828125
3.0421875
3.0413818359375
3.0421875
3.0421875
3.0405761718749997
3.0462158203125
3.0397705078125
3.0421875
3.0446044921874997
3.04541015625
3.0421875
3.0429931640624996
3.0429931640624996
3.043798828125
3.0421875
3.0421875
3.0413818359375
2.3396484374999997
0.040283203125
0.040283203125
0.037060546874999996
0.038671874999999994
0.041088867187499996
0.0394775390625
0.040283203125
0.0362548828125
0.0394775390625
0.0378662109375
0.08701171875
0.0958740234375
0.1554931640625
0.2900390625
0.0394775390625
0.045117187499999996
0.040283203125
0.041088867187499996
0.03544921875
0.037060546874999996
0.040283203125
2.9720947265624997
3.04541015625
3.043798828125
3.04541015625
3.0462158203125
3.0478271484375
3.0397705078125
3.0389648437499996
3.0429931640624996
3.0429931640624996
3.04541015625
3.0421875
3.0413818359375
3.0397705078125
3.0413818359375
3.0421875
3.0429931640624996
3.0397705078125
3.0429931640624996
3.0421875
3.0421875
0.894287109375
0.040283203125
0.040283203125
0.033837890625
0.0362548828125
0.040283203125
0.0394775390625
0.041088867187499996
0.04189453125
0.0394775390625
0.040283203125
0.040283203125
0.322265625
0.2634521484375
0.30051269531249997
0.040283203125
0.03544921875
0.0459228515625
0.038671874999999994
0.0362548828125
0.0459228515625
0.0362548828125
3.0389648437499996
3.043798828125
3.0421875
3.0429931640624996
3.043798828125
3.0397705078125
3.0429931640624996
3.043798828125
3.0429931640624996
3.0421875
3.0421875
3.0389648437499996
3.0429931640624996
3.0099609375
3.0405761718749997
3.0365478515624997
3.0421875
3.0470214843749996
3.0389648437499996
3.0429931640624996
2.1615966796875
0.043505859375
0.0394775390625
0.0362548828125
0.0394775390625
0.046728515624999994
0.040283203125
0.037060546874999996
0.040283203125
0.038671874999999994
0.038671874999999994
0.12246093749999999
0.191748046875
0.3182373046875
0.32548828124999996
0.0378662109375
0.038671874999999994
0.043505859375
0.041088867187499996
0.041088867187499996
0.0394775390625
0.0362548828125
3.0446044921874997
3.0421875
3.0413818359375
3.0357421875
3.0301025390625
3.043798828125
3.0389648437499996
3.0397705078125
3.0413818359375
3.0405761718749997
3.0413818359375
3.0429931640624996
3.0413818359375
3.0446044921874997
3.0421875
3.0429931640624996
3.0429931640624996
3.0429931640624996
3.0405761718749997
3.0462158203125
2.4041015624999997
0.2578125
0.0394775390625
0.042700195312499994
0.040283203125
0.0459228515625
0.040283203125
0.041088867187499996
0.045117187499999996
0.0443115234375
0.040283203125
0.041088867187499996
0.058813476562499994
0.175634765625
0.26103515625
0.0394775390625
0.0394775390625
0.041088867187499996
0.0362548828125
0.0394775390625
0.04189453125
0.045117187499999996
0.8274169921875
3.0462158203125
3.0421875
3.0413818359375
3.0389648437499996
3.0429931640624996
3.0421875
3.0405761718749997
3.04541015625
3.0421875
3.0429931640624996
3.0405761718749997
3.043798828125
3.043798828125
3.0421875
3.0421875
3.0470214843749996
3.0462158203125
3.043798828125
3.0486328124999997
3.0413818359375
0.717041015625
0.037060546874999996
0.040283203125
0.041088867187499996
0.0394775390625
0.040283203125
0.0362548828125
0.045117187499999996
0.041088867187499996
0.0378662109375
0.042700195312499994
0.07814941406249999
0.1635498046875
0.27231445312499997
0.298095703125
0.040283203125
0.038671874999999994
0.040283203125
0.040283203125
0.042700195312499994
0.045117187499999996
0.0394775390625
3.0429931640624996
3.0421875
3.0429931640624996
3.0389648437499996
3.0357421875
3.043798828125
3.0421875
3.0429931640624996
3.0381591796875
3.0429931640624996
3.0421875
3.0421875
3.0413818359375
3.0405761718749997
3.0421875
3.043798828125
3.043798828125
3.0421875
3.0421875
3.0429931640624996
2.3718749999999997
0.0394775390625
0.0362548828125
0.043505859375
0.0394775390625
0.04189453125
0.042700195312499994
0.0346435546875
0.040283203125
0.0378662109375
0.040283203125
0.041088867187499996
0.149853515625
0.2553955078125
0.3029296875
0.040283203125
0.041088867187499996
0.038671874999999994
0.0394775390625
0.040283203125
0.041088867187499996
0.0394775390625
3.037353515625
3.0413818359375
3.0429931640624996
3.0405761718749997
3.043798828125
3.0421875
3.034130859375
3.0413818359375
3.043798828125
3.0421875
3.0405761718749997
3.0429931640624996
3.043798828125
3.04541015625
3.04541015625
3.0405761718749997
3.0462158203125
3.0421875
3.0429931640624996
3.0486328124999997
3.0333251953125
0.4036376953125
0.040283203125
0.042700195312499994
0.0443115234375
0.040283203125
0.040283203125
0.0394775390625
0.041088867187499996
0.033837890625
0.041088867187499996
0.038671874999999994
0.041088867187499996
0.13857421875
0.24169921875
0.1732177734375
0.0443115234375
0.042700195312499994
0.0378662109375
0.0394775390625
0.041088867187499996
0.0443115234375
0.038671874999999994
3.0429931640624996
3.0421875
3.0413818359375
3.0421875
3.043798828125
3.0389648437499996
3.0421875
3.043798828125
3.0365478515624997
3.0397705078125
3.0413818359375
3.0429931640624996
3.0429931640624996
2.8770263671875
3.043798828125
3.043798828125
3.04541015625
3.0421875
3.0389648437499996
3.0421875
0.5696044921875
0.0394775390625
0.038671874999999994
0.041088867187499996
0.040283203125
0.037060546874999996
0.03544921875
0.0443115234375
0.027392578124999997
0.040283203125
0.12810058593749998
0.07734374999999999
0.14018554687499998
0.259423828125
0.2989013671875
0.0443115234375
0.042700195312499994
0.041088867187499996
0.0394775390625
0.040283203125
0.040283203125
0.0378662109375
3.0389648437499996
3.0429931640624996
3.0405761718749997
3.0462158203125
3.0405761718749997
3.0429931640624996
3.0413818359375
3.0405761718749997
3.04541015625
3.04541015625
3.0429931640624996
3.0421875
3.037353515625
3.0446044921874997
3.0429931640624996
3.043798828125
3.04541015625
3.0429931640624996
3.0470214843749996
3.0421875
2.3775146484375
0.11359863281249999
0.041088867187499996
0.04189453125
0.040283203125
0.040283203125
0.038671874999999994
0.033837890625
0.041088867187499996
0.040283203125
0.04189453125
0.058813476562499994
0.3424072265625
0.22719726562499998
0.24895019531249998
0.04189453125
0.037060546874999996
0.041088867187499996
0.0394775390625
0.040283203125
0.041088867187499996
0.041088867187499996
3.0462158203125
3.043798828125
3.0381591796875
3.0429931640624996
3.0421875
3.0421875
3.0429931640624996
3.0421875
3.0421875
3.0429931640624996
3.037353515625
3.0462158203125
3.0429931640624996
2.8721923828125
2.9447021484375
3.0462158203125
3.0429931640624996
3.0486328124999997
3.04541015625
3.0429931640624996
3.0421875
0.6429199218749999
0.046728515624999994
0.041088867187499996
0.0475341796875
0.0346435546875
0.04189453125
0.04189453125
0.042700195312499994
0.038671874999999994
0.045117187499999996
0.043505859375
0.038671874999999994
0.12568359375
0.2255859375
0.21672363281249998
0.040283203125
0.04189453125
0.040283203125
0.040283203125
0.038671874999999994
0.041088867187499996
0.041088867187499996
3.0389648437499996
3.0429931640624996
3.0429931640624996
3.0470214843749996
3.0494384765625
3.0429931640624996
3.0429931640624996
3.0446044921874997
3.0397705078125
3.050244140625
3.0446044921874997
3.0421875
3.04541015625
3.043798828125
3.04541015625
3.04541015625
3.0421875
3.0397705078125
3.0462158203125
3.0421875
0.45358886718749997
0.042700195312499994
0.041088867187499996
0.0378662109375
0.041088867187499996
0.040283203125
0.040283203125
0.042700195312499994
0.045117187499999996
0.045117187499999996
0.042700195312499994
0.1353515625
0.17482910156249998
0.27392578125
0.3343505859375
0.04189453125
0.0394775390625
0.042700195312499994
0.0459228515625
0.04189453125
0.04189453125
0.042700195312499994
3.0421875
3.0446044921874997
3.0478271484375
3.0462158203125
3.0446044921874997
3.0429931640624996
3.043798828125
3.0389648437499996
3.04541015625
3.04541015625
3.0446044921874997
3.04541015625
3.04541015625
3.0486328124999997
3.0429931640624996
3.0446044921874997
3.0478271484375
3.0446044921874997
3.0429931640624996
3.04541015625
2.624853515625
0.34965820312499996
0.0443115234375
0.043505859375
0.04189453125
0.042700195312499994
0.040283203125
0.040283203125
0.041088867187499996
0.0443115234375
0.04189453125
0.0459228515625
0.1329345703125
0.207861328125
0.2344482421875
0.33193359375
0.0459228515625
0.040283203125
0.043505859375
0.042700195312499994
0.0443115234375
0.04189453125
0.491455078125
3.0446044921874997
3.0446044921874997
3.0470214843749996
3.0421875
3.0462158203125
3.0413818359375
3.0413818359375
3.0470214843749996
3.0470214843749996
3.0421875
3.050244140625
3.0462158203125
3.04541015625
3.043798828125
3.0429931640624996
3.0462158203125
3.043798828125
3.0446044921874997
3.0446044921874997
3.0429931640624996
0.7919677734374999
0.040283203125
0.042700195312499994
0.04189453125
0.043505859375
0.038671874999999994
0.046728515624999994
0.0443115234375
0.0443115234375
0.041088867187499996
0.0749267578125
0.040283203125
0.07009277343749999
0.1699951171875
0.223974609375
0.0394775390625
0.038671874999999994
0.04189453125
0.043505859375
0.0378662109375
0.042700195312499994
0.042700195312499994
3.0486328124999997
3.0421875
3.0446044921874997
3.04541015625
3.0446044921874997
3.0389648437499996
3.0413818359375
3.043798828125
3.0478271484375
3.0446044921874997
3.0446044921874997
3.0462158203125
3.043798828125
3.0413818359375
3.0429931640624996
3.043798828125
3.0421875
3.0446044921874997
3.043798828125
3.043798828125
1.1666015625
0.042700195312499994
0.0394775390625
0.041088867187499996
0.04189453125
0.041088867187499996
0.0443115234375
0.0475341796875
0.046728515624999994
0.04189453125
0.045117187499999996
0.15871582031249998
0.2054443359375
0.35690917968749997
0.2989013671875
0.0394775390625
0.0459228515625
0.0362548828125
0.04189453125
0.04189453125
0.042700195312499994
0.042700195312499994
3.043798828125
3.043798828125
3.0421875
3.0389648437499996
3.0486328124999997
3.0429931640624996
3.043798828125
3.0397705078125
3.0421875
3.043798828125
3.043798828125
3.043798828125
3.0405761718749997
3.0405761718749997
2.96162109375
3.0446044921874997
3.04541015625
3.0446044921874997
3.0462158203125
3.0510498046874996
2.7183105468749997
0.530126953125
0.042700195312499994
0.04189453125
0.045117187499999996
0.042700195312499994
0.041088867187499996
0.0459228515625
0.043505859375
0.042700195312499994
0.042700195312499994
0.0459228515625
0.04189453125
0.16032714843749998
0.24089355468749998
0.21511230468749998
0.0459228515625
0.0475341796875
0.045117187499999996
0.04189453125
0.040283203125
0.04189453125
0.0443115234375
3.0429931640624996
3.0446044921874997
3.04541015625
3.04541015625
3.0429931640624996
3.0389648437499996
3.0381591796875
3.04541015625
3.0429931640624996
3.0446044921874997
3.04541015625
3.043798828125
3.043798828125
2.977734375
3.0486328124999997
3.0446044921874997
3.0421875
3.0494384765625
3.0413818359375
3.043798828125
0.8644775390624999
0.04189453125
0.04189453125
0.0378662109375
0.041088867187499996
0.042700195312499994
0.04189453125
0.041088867187499996
0.042700195312499994
0.041088867187499996
0.042700195312499994
0.038671874999999994
0.14501953125
0.310986328125
0.298095703125
0.043505859375
0.040283203125
0.041088867187499996
0.0459228515625
0.041088867187499996
0.042700195312499994
0.038671874999999994
3.0446044921874997
3.043798828125
3.0397705078125
3.043798828125
3.0405761718749997
3.043798828125
3.043798828125
3.0429931640624996
3.04541015625
3.0429931640624996
3.043798828125
3.0429931640624996
3.0413818359375
2.9583984374999996
3.0429931640624996
3.0462158203125
3.04541015625
3.043798828125
3.0470214843749996
3.0429931640624996
1.9835449218749999
0.03544921875
0.040283203125
0.0459228515625
0.0394775390625
0.038671874999999994
0.040283203125
0.0443115234375
0.038671874999999994
0.0394775390625
0.0394775390625
0.069287109375
0.14018554687499998
0.2384765625
0.2731201171875
0.0394775390625
0.0515625
0.0394775390625
0.0394775390625
0.0394775390625
0.0394775390625
0.040283203125
3.0413818359375
3.037353515625
3.0397705078125
3.0446044921874997
3.0413818359375
3.0405761718749997
3.0421875
3.0397705078125
3.0413818359375
3.0421875
3.0421875
3.0357421875
3.04541015625
3.0421875
2.9342285156249996
3.0429931640624996
3.0429931640624996
3.0381591796875
3.0446044921874997
3.0397705078125
2.905224609375
0.6936767578124999
0.038671874999999994
0.042700195312499994
0.038671874999999994
0.0378662109375
0.033837890625
0.0394775390625
0.0378662109375
0.0443115234375
0.0378662109375
0.0378662109375
0.0362548828125
0.0378662109375
0.15871582031249998
0.1998046875
0.0378662109375
0.038671874999999994
0.0362548828125
0.0346435546875
0.037060546874999996
0.038671874999999994
0.041088867187499996
3.04541015625
3.0405761718749997
3.0389648437499996
3.037353515625
3.0405761718749997
3.0405761718749997
3.0405761718749997
3.0421875
3.0333251953125
3.0405761718749997
3.0389648437499996
3.0381591796875
3.037353515625
2.99384765625
3.0462158203125
3.0397705078125
3.0397705078125
3.0397705078125
2.9350341796875
2.064111328125
0.037060546874999996
0.037060546874999996
0.037060546874999996
0.03544921875
2.1857666015625
1.8038818359375
1.044140625
0.8386962890624999
0.9627685546875
1.0570312499999999
1.2101074218749999
1.21171875
1.2366943359375
1.2785888671874999
1.3269287109374999
0.49790039062499997
1.4558349609374999
1.6185791015625
1.60166015625
1.6854492187499999
1.7394287109375
2.112451171875
2.05927734375
1.5106201171875
1.3873535156249999
1.3801025390625
1.3583496093749998
1.3639892578125
1.3365966796875
1.3309570312499999
1.3414306640625
1.3092041015625
1.3285400390625
1.3237060546875
1.3188720703124999
1.3075927734375
3.0381591796875
3.0365478515624997
1.533984375
1.4622802734375
1.313232421875
1.1464599609375
1.1045654296875
1.0852294921874999
1.1859374999999999
1.2802001953125
1.3212890625
1.3728515625
1.3744628906249998
1.4276367187499999
1.461474609375
1.4888671875
1.533984375
1.5243164062499999
1.51787109375
1.5380126953125
1.5364013671874999
1.4437499999999999
1.5992431640625
1.7764892578125
1.7313720703125
1.7120361328125
1.7813232421874998
1.7772949218749998
1.8941162109374998
1.635498046875
1.6089111328124999
1.538818359375
1.46953125
1.4413330078125
1.400244140625
1.3986328124999998
1.3994384765624999
1.3946044921874998
1.3728515625
1.384130859375
1.3704345703124998
1.3833251953124999
1.4171630859375
1.4888671875
1.271337890625
1.2995361328125
1.2673095703125
1.229443359375
1.2101074218749999
1.173046875
1.2455566406249998
1.3108154296874999
1.4381103515625
1.5484863281249999
1.4961181640624999
1.5025634765625
1.5879638671874998
1.6250244140624999
1.6395263671875
1.7023681640625
1.77890625
1.7128417968749998
1.6451660156249999
1.6218017578125
1.5186767578125
1.7579589843749999
1.7603759765625
1.791796875
1.8143554687499999
1.8296630859374998
1.893310546875
1.690283203125
1.67900390625
1.6636962890625
1.5919921874999998
1.5484863281249999
1.538818359375
1.5597656249999998
1.46630859375
1.4598632812499999
1.4840332031249999
1.5517089843749998
1.4896728515625
1.4638916015624999
1.458251953125
1.6048828124999999
1.3784912109374998
1.348681640625
1.3148437499999999
1.2890625
1.2399169921875
1.1794921875
1.248779296875
1.2930908203125
1.3865478515624998
1.4493896484375
1.5057861328125
1.5404296874999999
1.5637939453124998
1.5976318359375
1.619384765625
1.6330810546874999
1.622607421875
1.64677734375
1.6459716796875
1.6395263671875
1.529150390625
1.7281494140625
1.7507080078125
1.7797119140625
1.82724609375
1.8506103515624999
1.8981445312499998
1.8014648437499998
1.7015624999999999
1.6411376953124999
1.5678222656249998
1.52109375
1.5033691406249998
1.4671142578124998
1.4550292968749998
1.4332763671875
1.3349853515624999
1.3921875
1.429248046875
1.4268310546874998
1.44052734375
1.529150390625
1.416357421875
1.3398193359375
1.3092041015625
1.276171875
1.248779296875
1.2093017578125
1.2544189453124999
1.303564453125
1.3921875
1.4437499999999999
1.493701171875
1.5283447265624999
1.5976318359375
1.6105224609375
1.6218017578125
1.6564453124999998
1.6427490234375
1.64677734375
1.6459716796875
1.658056640625
1.5299560546875
1.6491943359374999
1.7265380859375
1.767626953125
1.799853515625
1.8473876953125
1.8707519531249999
1.9005615234375
1.764404296875
1.674169921875
1.6072998046875
1.5573486328125
1.5412353515625
1.5106201171875
1.4751708984374998
1.4445556640625
1.432470703125
1.4316650390624999
1.4373046875
1.43408203125
1.4381103515625
1.4373046875
1.4526123046875
1.332568359375
1.3309570312499999
1.3285400390625
1.3527099609375
1.2858398437499998
1.2536132812499998
1.2963134765625
1.348681640625
1.409912109375
1.4832275390624998
1.5186767578125
1.5525146484374999
1.5919921874999998
1.6056884765625
1.6250244140624999
1.6314697265625
1.6322753906249998
1.6459716796875
1.651611328125
1.5589599609375
1.6137451171875
1.7378173828124999
1.7635986328125
1.8006591796875
1.8361083984375
1.8546386718749999
1.9271484374999999
1.77890625
1.6943115234375
1.6089111328124999
1.5645996093749999
1.5202880859374999
1.4848388671875
1.464697265625
1.4542236328125
1.4413330078125
1.4300537109375
1.4300537109375
1.4228027343749998
1.44052734375
1.432470703125
1.5484863281249999
1.3422363281249998
1.319677734375
1.3011474609375
1.2665039062499999
1.2374999999999998
1.2141357421874999
1.271337890625
1.3599609375
1.40830078125
1.4630859374999998
1.5138427734375
1.5533203125
1.6451660156249999
1.6330810546874999
1.6346923828125
1.6459716796875
1.6451660156249999
1.6524169921874998
1.6540283203125
1.6379150390625
1.5347900390625
1.7370117187499998
1.7450683593749998
1.7958251953125
1.8312744140625
1.843359375
1.92392578125
1.7861572265624999
1.7007568359374998
1.6403320312499998
1.5815185546875
1.5331787109375
1.5001464843749999
1.464697265625
1.4477783203124999
1.442138671875
1.4397216796874999
1.558154296875
1.5017578125
1.4461669921875
1.448583984375
1.56298828125
1.3921875
1.3478759765625
1.3253173828125
1.3027587890624999
1.3075927734375
1.2262207031249999
1.26328125
1.3237060546875
1.3873535156249999
1.442138671875
1.4912841796874998
1.53076171875
1.58232421875
1.6218017578125
1.62744140625
1.6371093749999999
1.6395263671875
1.6427490234375
1.6371093749999999
1.6161621093749998
1.51787109375
1.6798095703125
1.7474853515625
1.783740234375
1.8280517578125
1.848193359375
1.8844482421875
1.8635009765625
1.7410400390624998
1.6564453124999998
1.6024658203125
1.545263671875
1.509814453125
1.4759765624999999
1.4606689453125
1.525927734375
1.4429443359374998
1.4469726562499998
1.4284423828125
1.4268310546874998
1.432470703125
1.4872558593749998
1.4034667968749999
1.3422363281249998
1.3180664062499998
1.284228515625
1.2366943359375
1.2205810546875
1.248779296875
1.2947021484374999
1.3688232421875
1.4252197265625
1.4767822265625
1.529150390625
1.56298828125
1.593603515625
1.6201904296874998
1.658056640625
1.6830322265625
1.658056640625
1.6532226562499999
1.6524169921874998
1.593603515625
1.6773925781249999
1.7692382812499998
1.7829345703125
1.8361083984375
1.851416015625
1.8457763671874998
1.9053955078125
1.7684326171875
1.690283203125
1.6169677734374999
1.554931640625
1.5138427734375
1.482421875
1.456640625
1.442138671875
1.43408203125
1.432470703125
1.4244140625
1.4228027343749998
1.4228027343749998
1.44052734375
1.4816162109375
1.3478759765625
1.3237060546875
1.2745605468749999
1.248779296875
1.224609375
1.224609375
1.2665039062499999
1.3510986328124999
1.4332763671875
1.477587890625
1.5138427734375
1.5621826171875
1.5992431640625
1.6129394531249999
1.6363037109374998
1.6435546875
1.6443603515624998
1.6443603515624998
1.6435546875
1.6209960937499999
1.5895751953125
1.7394287109375
1.7652099609374998
1.8095214843749998
1.8369140625
1.8546386718749999
1.9215087890625
1.8135498046874998
1.683837890625
1.6282470703124998
1.5654052734375
1.5154541015624998
1.4977294921875
1.46630859375
1.4526123046875
1.4276367187499999
1.4316650390624999
1.4332763671875
1.4316650390624999
1.4284423828125
1.4389160156249998
1.5114257812499998
1.3849365234375
1.3494873046875
1.3059814453124998
1.2568359375
1.24716796875
1.203662109375
1.268115234375
1.3301513671874998
1.400244140625
1.4526123046875
1.509814453125
1.5460693359375
1.5807128906249999
1.6121337890624998
1.62744140625
1.638720703125
1.6508056640625
1.64677734375
1.6475830078125
1.6451660156249999
1.571044921875
1.7233154296875
1.754736328125
1.8103271484374999
1.844970703125
1.8546386718749999
1.9037841796875
1.8465820312499999
1.7362060546875
1.6701416015625
1.5863525390625
1.5436523437499998
1.509814453125
1.477587890625
1.4526123046875
1.4413330078125
1.4244140625
1.4244140625
1.4236083984374999
1.4195800781249999
1.4236083984374999
1.5114257812499998
1.416357421875
1.3390136718749999
1.30517578125
1.26328125
1.2495849609374998
1.213330078125
1.2423339843749999
1.2890625
1.3905761718749998
1.4526123046875
1.4928955078125
1.5484863281249999
1.5831298828125
1.61455078125
1.62744140625
1.6451660156249999
1.6475830078125
1.6491943359374999
1.65
1.6459716796875
1.5597656249999998
1.7136474609374999
1.7619873046874999
1.791796875
1.835302734375
1.8602783203125
1.8763916015625
1.9021728515624998
1.7378173828124999
1.667724609375
1.603271484375
1.5404296874999999
1.5114257812499998
1.490478515625
1.4687255859375
1.4356933593749999
1.4300537109375
1.432470703125
1.426025390625
1.4252197265625
1.4373046875
1.5017578125
1.4364990234375
1.3502929687499998
1.3220947265624998
1.27939453125
1.255224609375
1.2334716796875
1.2399169921875
1.2866455078124999
1.3527099609375
1.4228027343749998
1.4872558593749998
1.53076171875
1.574267578125
1.6024658203125
1.6306640625
1.63388671875
1.6443603515624998
1.6435546875
1.6443603515624998
1.6435546875
1.5782958984375
1.63388671875
1.7499023437499999
1.77568359375
1.8167724609375
1.8457763671874998
1.8635009765625
1.909423828125
1.7772949218749998
1.6927001953124998
1.6161621093749998
1.554931640625
1.5243164062499999
1.4896728515625
1.4630859374999998
1.4437499999999999
1.4284423828125
1.4413330078125
1.429248046875
1.4276367187499999
1.4284423828125
1.4397216796874999
1.5017578125
1.345458984375
1.3349853515624999
1.29228515625
1.2439453125
1.2302490234374999
1.2125244140625
1.252001953125
1.345458984375
1.4107177734374998
1.4703369140625
1.5122314453124999
1.5662109375
1.5976318359375
1.6169677734374999
1.6411376953124999
1.6371093749999999
1.6475830078125
1.6491943359374999
1.6443603515624998
1.641943359375
1.5541259765625
1.7362060546875
1.7652099609374998
1.8046875
1.8465820312499999
1.8651123046875
1.8957275390625
1.8151611328125
1.719287109375
1.6556396484375
1.6008544921874999
1.53720703125
1.5057861328125
1.4800048828124999
1.45341796875
1.4429443359374998
1.4219970703125
1.4276367187499999
1.4268310546874998
1.429248046875
1.4219970703125
1.5275390624999998
1.3849365234375
1.348681640625
1.300341796875
1.2608642578125
1.2455566406249998
1.198828125
1.2544189453124999
1.3156494140625
1.3833251953124999
1.4518066406249999
1.5025634765625
1.5557373046874998
1.5911865234375
1.6121337890624998
1.63388671875
1.6483886718749998
1.6483886718749998
1.65
1.6459716796875
1.6411376953124999
1.5476806640624998
1.703173828125
1.7579589843749999
1.7990478515625
1.8296630859374998
1.8506103515624999
1.9086181640625
1.864306640625
1.7426513671875
1.654833984375
1.593603515625
1.5492919921875
1.5017578125
1.4791992187499998
1.464697265625
1.4429443359374998
1.432470703125
1.4373046875
1.4284423828125
1.4244140625
1.4316650390624999
1.4872558593749998
1.397021484375
1.33740234375
1.3156494140625
1.2697265624999998
1.239111328125
1.2157470703125
1.2310546875
1.2890625
1.3752685546874999
1.4308593749999998
1.4880615234374999
1.533984375
1.574267578125
1.6008544921874999
1.6330810546874999
1.6435546875
1.6524169921874998
1.6459716796875
1.658056640625
1.6564453124999998
1.593603515625
1.6943115234375
1.754736328125
1.7813232421874998
1.835302734375
1.861083984375
1.8699462890624998
1.880419921875
1.7652099609374998
1.6886718749999998
1.622607421875
1.554931640625
1.5235107421874998
1.4953124999999998
1.46630859375
1.448583984375
1.4332763671875
1.4236083984374999
1.4244140625
1.4300537109375
1.432470703125
1.4687255859375
1.4759765624999999
1.348681640625
1.3180664062499998
1.281005859375
1.2495849609374998
1.2205810546875
1.235888671875
1.2640869140625
1.3301513671874998
1.41796875
1.4590576171874998
1.5073974609374998
1.5597656249999998
1.5992431640625
1.6218017578125
1.6298583984375
1.6508056640625
1.6483886718749998
1.662890625
1.6572509765624999
1.6314697265625
1.6056884765625
1.7531249999999998
1.7821289062499999
1.8143554687499999
1.8465820312499999
1.87236328125
1.9279541015625
1.8377197265624998
1.714453125
1.6459716796875
1.5895751953125
1.5283447265624999
1.5017578125
1.477587890625
1.4622802734375
1.4469726562499998
1.4389160156249998
1.4300537109375
1.4268310546874998
1.429248046875
1.4316650390624999
1.493701171875
1.3631835937499999
1.3341796874999998
1.300341796875
1.2528076171875
1.2383056640624999
1.2076904296875
1.2624755859374999
1.3253173828125
1.3994384765624999
1.4510009765624998
1.5146484375
1.558154296875
1.590380859375
1.6161621093749998
1.6290527343749999
1.6612792968749999
1.6685302734374998
1.658056640625
1.65966796875
1.6524169921874998
1.5766845703124999
1.7337890624999999
1.7652099609374998
1.8167724609375
1.8489990234375
1.867529296875
1.915869140625
1.84013671875
1.7418457031249999
1.6701416015625
1.5879638671874998
1.546875
1.5170654296875
1.4767822265625
1.4679199218749999
1.442138671875
1.4389160156249998
1.4284423828125
1.43408203125
1.4364990234375
1.4300537109375
1.5170654296875
1.413134765625
1.340625
1.31162109375
1.271337890625
1.2431396484375
1.2076904296875
1.2447509765625
1.2914794921875
1.38896484375
1.4445556640625
1.496923828125
1.533984375
1.5831298828125
1.5984375
1.6185791015625
1.6395263671875
1.6532226562499999
1.65
1.64677734375
1.658056640625
1.5589599609375
1.6781982421875
1.764404296875
1.7982421874999999
1.8425537109374999
1.87236328125
1.9102294921874998
1.90458984375
1.7539306640624999
1.6894775390624999
1.6201904296874998
1.56943359375
1.5218994140625
1.4912841796874998
1.474365234375
1.456640625
1.4356933593749999
1.426025390625
1.432470703125
1.429248046875
1.4308593749999998
1.445361328125
1.4300537109375
1.3382080078124998
1.3269287109374999
1.2697265624999998
1.24072265625
1.2238037109375
1.229443359375
1.27939453125
1.3527099609375
1.4058837890625
1.4888671875
1.5251220703125
1.5670166015625
1.606494140625
1.625830078125
1.6403320312499998
1.6491943359374999
1.6443603515624998
1.6564453124999998
1.6564453124999998
1.5726562499999999
1.6532226562499999
1.75634765625
1.7934082031249998
1.8280517578125
1.869140625
1.8828369140624999
1.9295654296875
1.80791015625
1.72734375
1.6298583984375
1.5782958984375
1.53720703125
1.4993408203124998
1.480810546875
1.456640625
1.44052734375
1.4316650390624999
1.4316650390624999
1.4300537109375
1.432470703125
1.4397216796874999
1.5138427734375
1.3478759765625
1.3172607421875
1.2850341796875
1.252001953125
1.2221923828124999
1.206884765625
1.2560302734375
1.345458984375
1.409912109375
1.46630859375
1.5106201171875
1.5573486328125
1.5911865234375
1.6129394531249999
1.64677734375
1.6508056640625
1.64677734375
1.65
1.6588623046875
1.6532226562499999
1.5750732421875
1.7490966796874998
1.7603759765625
1.8167724609375
1.8602783203125
1.8707519531249999
1.9440673828125
1.8046875
1.7217041015624999
1.6564453124999998
1.5976318359375
1.533984375
1.5090087890625
1.4840332031249999
1.45341796875
1.448583984375
1.4284423828125
1.4300537109375
1.4348876953124998
1.4187744140624998
1.432470703125
1.5186767578125
