1.62744140625
1.5734619140625
1.53076171875
1.5090087890625
1.4655029296875
1.4445556640625
1.4308593749999998
1.4228027343749998
1.4284423828125
1.41796875
1.4195800781249999
1.4308593749999998
1.4872558593749998
1.35673828125
1.319677734375
1.271337890625
1.2455566406249998
1.2060791015624999
1.2109130859375
1.2270263671875
1.2995361328125
1.3873535156249999
1.4477783203124999
1.490478515625
1.5364013671874999
1.585546875
1.609716796875
1.6282470703124998
1.5919921874999998
1.6379150390625
1.65966796875
1.6524169921874998
1.6491943359374999
1.5911865234375
1.7249267578124998
1.7781005859374999
1.8216064453124998
1.8570556640625
1.89169921875
1.9625976562499998
1.835302734375
1.7313720703125
1.6532226562499999
1.5944091796875
1.55009765625
1.50498046875
1.48564453125
1.458251953125
1.4397216796874999
1.4308593749999998
1.426025390625
1.4228027343749998
1.4284423828125
1.4228027343749998
1.5009521484375
1.3720458984375
1.3317626953125
1.2995361328125
1.2479736328125
1.2173583984375
1.1923828125
1.2189697265625
1.2914794921875
1.35673828125
1.4155517578124999
1.4880615234374999
1.5194824218749998
1.5678222656249998
1.590380859375
1.6234130859375
1.6475830078125
1.6524169921874998
1.658056640625
1.66611328125
1.658056640625
1.5782958984375
1.7152587890625
1.767626953125
1.8062988281249999
1.8602783203125
1.883642578125
1.93681640625
1.9053955078125
1.7668212890625
1.6830322265625
1.622607421875
1.5533203125
1.5162597656249999
1.48564453125
1.4638916015624999
1.4477783203124999
1.4252197265625
1.4219970703125
1.416357421875
1.4107177734374998
1.4115234374999999
1.4928955078125
1.4284423828125
1.340625
1.2995361328125
1.2656982421874998
1.2205810546875
1.2028564453125
1.213330078125
1.24716796875
1.3172607421875
1.4010498046875
1.46630859375
1.5017578125
1.5525146484374999
1.5887695312499999
1.6121337890624998
1.635498046875
1.6475830078125
1.654833984375
1.6588623046875
1.6532226562499999
1.5863525390625
1.6483886718749998
1.751513671875
1.8046875
1.8304687499999999
1.8699462890624998
1.8949218749999999
1.9376220703125
1.8087158203125
1.7370117187499998
1.6330810546874999
1.5831298828125
1.5460693359375
1.506591796875
1.4735595703125
1.4526123046875
1.4381103515625
1.426025390625
1.4276367187499999
1.41796875
1.4228027343749998
1.426025390625
1.4977294921875
1.3430419921874999
1.313232421875
1.2777832031249998
1.235888671875
1.2109130859375
1.1883544921875
1.222998046875
1.3027587890624999
1.3728515625
1.442138671875
1.48564453125
1.5444580078124999
1.5718505859374998
1.606494140625
1.6395263671875
1.6540283203125
1.6508056640625
1.6588623046875
1.654833984375
1.658056640625
1.571044921875
1.7378173828124999
1.77568359375
1.815966796875
1.844970703125
1.883642578125
1.9440673828125
1.8635009765625
1.7394287109375
1.6645019531249998
1.603271484375
1.5589599609375
1.5162597656249999
1.4872558593749998
1.4703369140625
1.4300537109375
1.4300537109375
1.4252197265625
1.4228027343749998
1.4187744140624998
1.4276367187499999
1.4880615234374999
1.3849365234375
1.3261230468749998
1.2979248046874998
1.2415283203124998
1.2221923828124999
1.1883544921875
1.216552734375
1.2769775390625
1.3390136718749999
1.4074951171874999
1.477587890625
1.51787109375
1.5605712890624999
1.5984375
1.622607421875
1.6379150390625
1.6459716796875
1.651611328125
1.6564453124999998
1.65966796875
1.5718505859374998
1.6967285156249998
1.7587646484375
1.7893798828124998
1.851416015625
1.8860595703124998
1.8900878906249998
1.893310546875
1.7901855468749999
1.7200927734375
1.65
1.5654052734375
1.5355957031249998
1.4993408203124998
1.4767822265625
1.4501953125
1.432470703125
1.416357421875
1.4252197265625
1.41796875
1.4228027343749998
1.4606689453125
1.4445556640625
1.34384765625
1.303564453125
1.2608642578125
1.22783203125
1.1786865234375
1.206884765625
1.2463623046874999
1.3148437499999999
1.393798828125
1.4558349609374999
1.506591796875
1.5573486328125
1.5831298828125
1.6161621093749998
1.6322753906249998
1.6451660156249999
1.651611328125
1.6564453124999998
1.6540283203125
1.6024658203125
1.6379150390625
1.7474853515625
1.77890625
1.8328857421875
1.8747802734374999
1.88525390625
1.941650390625
1.8256347656249998
1.7450683593749998
1.6435546875
1.590380859375
1.5509033203125
1.5017578125
1.474365234375
1.4558349609374999
1.4316650390624999
1.4268310546874998
1.426025390625
1.4187744140624998
1.413134765625
1.4203857421875
1.5009521484375
1.353515625
1.3261230468749998
1.297119140625
1.235888671875
1.206884765625
1.184326171875
1.21494140625
1.2987304687499999
1.36962890625
1.4308593749999998
1.4920898437499999
1.5396240234374998
1.5637939453124998
1.5976318359375
1.6250244140624999
1.651611328125
1.65
1.6636962890625
1.6483886718749998
1.6556396484375
1.5605712890624999
1.738623046875
1.77568359375
1.8151611328125
1.861083984375
1.87236328125
1.9303710937499998
1.8860595703124998
1.7450683593749998
1.6830322265625
1.6161621093749998
1.55009765625
1.5243164062499999
1.4872558593749998
1.4638916015624999
1.4364990234375
1.4252197265625
1.4195800781249999
1.4123291015625
1.4236083984374999
1.4187744140624998
1.506591796875
1.3978271484375
1.3349853515624999
1.29228515625
1.252001953125
1.224609375
1.203662109375
1.2181640624999999
1.271337890625
1.3333740234375
1.4219970703125
1.4687255859375
1.51787109375
1.5541259765625
1.59521484375
1.6209960937499999
1.6379150390625
1.6443603515624998
1.6564453124999998
1.6572509765624999
1.654833984375
1.5718505859374998
1.6781982421875
1.7587646484375
1.799853515625
1.8498046874999998
1.8731689453125
1.8908935546874999
1.9279541015625
1.8046875
1.7208984374999998
1.63388671875
1.5766845703124999
1.5315673828124998
1.5009521484375
1.4719482421874999
1.45341796875
1.4308593749999998
1.4228027343749998
1.4203857421875
1.4107177734374998
1.4268310546874998
1.4469726562499998
1.4711425781249998
1.3333740234375
1.316455078125
1.2665039062499999
1.239111328125
1.197216796875
1.2093017578125
1.2342773437499999
1.3253173828125
1.3921875
1.4469726562499998
1.4888671875
1.5533203125
1.5815185546875
1.6056884765625
1.638720703125
1.6508056640625
1.6556396484375
1.6532226562499999
1.654833984375
1.6314697265625
1.6105224609375
1.740234375
1.7740722656249999
1.8256347656249998
1.8651123046875
1.883642578125
1.944873046875
1.8441650390625
1.7217041015624999
1.658056640625
1.6000488281249998
1.5525146484374999
1.5057861328125
1.4832275390624998
1.4606689453125
1.4356933593749999
1.4316650390624999
1.4268310546874998
1.4268310546874998
1.4147460937499998
1.4203857421875
1.5122314453124999
1.3559326171875
1.3261230468749998
1.287451171875
1.239111328125
1.224609375
1.1802978515625
1.235888671875
1.2906738281249999
1.3728515625
1.42119140625
1.4888671875
1.5275390624999998
1.5678222656249998
1.603271484375
1.6234130859375
1.6508056640625
1.651611328125
1.6612792968749999
1.651611328125
1.658056640625
1.5815185546875
1.7233154296875
1.767626953125
1.812744140625
1.8586669921874999
1.8796142578125
1.912646484375
1.8578613281249998
1.7595703125
1.6910888671875
1.622607421875
1.56298828125
1.5299560546875
1.4945068359375
1.461474609375
1.442138671875
1.4276367187499999
1.4219970703125
1.416357421875
1.4155517578124999
1.4244140625
1.496923828125
1.4139404296875
1.33740234375
1.2979248046874998
1.24716796875
1.22783203125
1.1819091796874999
1.213330078125
1.2592529296875
1.3301513671874998
1.4058837890625
1.4622802734375
1.50498046875
1.5678222656249998
1.5976318359375
1.61455078125
1.63388671875
1.651611328125
1.6443603515624998
1.6564453124999998
1.6475830078125
1.5831298828125
1.6645019531249998
1.7539306640624999
1.796630859375
1.8344970703124999
1.8683349609375
1.8941162109374998
1.92392578125
1.8264404296874999
1.7281494140625
1.6483886718749998
1.5879638671874998
1.5364013671874999
1.4977294921875
1.4751708984374998
1.445361328125
1.4284423828125
1.4364990234375
1.4219970703125
1.4244140625
1.426025390625
1.4228027343749998
1.4840332031249999
1.34384765625
1.3253173828125
1.2777832031249998
1.2302490234374999
1.21171875
1.1923828125
1.2342773437499999
1.3108154296874999
1.3857421875
1.4397216796874999
1.5090087890625
1.545263671875
1.5887695312499999
1.603271484375
1.6363037109374998
1.6435546875
1.6475830078125
1.6588623046875
1.651611328125
1.64677734375
1.59521484375
1.7450683593749998
1.7764892578125
1.815966796875
1.867529296875
1.8812255859375
1.941650390625
1.8522216796875
1.73056640625
1.6653076171874999
1.5984375
1.5404296874999999
1.5122314453124999
1.4840332031249999
1.4550292968749998
1.4373046875
1.429248046875
1.4252197265625
1.416357421875
1.42119140625
1.4276367187499999
1.5001464843749999
1.3704345703124998
1.3414306640625
1.3607666015625
1.24072265625
1.2270263671875
1.1883544921875
1.2262207031249999
1.2769775390625
1.3478759765625
1.42119140625
1.48564453125
1.525927734375
1.5686279296874999
1.5984375
1.6290527343749999
1.6435546875
1.654833984375
1.6508056640625
1.6564453124999998
1.6483886718749998
1.5726562499999999
1.7168701171874998
1.77568359375
1.8038818359375
1.85625
1.8755859375
1.9037841796875
1.877197265625
1.7732666015624998
1.7023681640625
1.6161621093749998
1.56298828125
1.5267333984375
1.4953124999999998
1.4719482421874999
1.45341796875
1.4228027343749998
1.426025390625
1.4155517578124999
1.4147460937499998
1.4187744140624998
1.48564453125
1.4308593749999998
1.3365966796875
1.2979248046874998
1.264892578125
1.219775390625
1.1867431640625
1.2028564453125
1.2560302734375
1.3285400390625
1.405078125
1.458251953125
1.506591796875
1.55009765625
1.5919921874999998
1.606494140625
1.6330810546874999
1.641943359375
1.651611328125
1.662890625
1.6532226562499999
1.593603515625
1.6427490234375
1.7442626953125
1.7990478515625
1.84013671875
1.8635009765625
1.893310546875
1.9400390625
1.8199951171875
1.7184814453125
1.6403320312499998
1.593603515625
1.5428466796875
1.4920898437499999
1.4719482421874999
1.4510009765624998
1.4308593749999998
1.4268310546874998
1.4219970703125
1.4228027343749998
1.41796875
1.4219970703125
1.4880615234374999
1.3398193359375
1.3108154296874999
1.2850341796875
1.2334716796875
1.213330078125
1.1923828125
1.2270263671875
1.313232421875
1.3744628906249998
1.4356933593749999
1.5001464843749999
1.5444580078124999
1.5815185546875
1.603271484375
1.6330810546874999
1.6443603515624998
1.6540283203125
1.6540283203125
1.654833984375
1.6459716796875
1.5807128906249999
1.7458740234374999
1.77890625
1.8183837890624999
1.8626953124999999
1.8796142578125
1.93681640625
1.8280517578125
1.7370117187499998
1.6749755859375
1.6048828124999999
1.5509033203125
1.5114257812499998
1.4880615234374999
1.4574462890625
1.4348876953124998
1.429248046875
1.426025390625
1.4147460937499998
1.4219970703125
1.4219970703125
1.5057861328125
1.3825195312499998
1.3309570312499999
1.2785888671874999
1.2415283203124998
1.224609375
1.18916015625
1.2254150390625
1.2777832031249998
1.34384765625
1.4252197265625
1.477587890625
1.525927734375
1.56943359375
1.5992431640625
1.6266357421875
1.6435546875
1.65
1.6475830078125
1.6540283203125
1.6612792968749999
1.5702392578125
1.699951171875
1.7619873046874999
1.8054931640624998
1.8489990234375
1.8739746093749998
1.8884765625
1.8989501953124999
1.791796875
1.7208984374999998
1.6242187499999998
1.5758789062499998
1.525927734375
1.49853515625
1.4719482421874999
1.4510009765624998
1.43408203125
1.4244140625
1.42119140625
1.416357421875
1.42119140625
1.4671142578124998
1.4373046875
1.3333740234375
1.2995361328125
1.2616699218749998
1.2262207031249999
1.1883544921875
1.197216796875
1.2439453125
1.3398193359375
1.400244140625
1.4526123046875
1.5025634765625
1.554931640625
1.5887695312499999
1.6081054687499998
1.6411376953124999
1.638720703125
1.651611328125
1.6540283203125
1.6532226562499999
1.6048828124999999
1.6298583984375
1.75634765625
1.7821289062499999
1.82724609375
1.8667236328124999
1.8957275390625
1.9392333984374999
1.8296630859374998
1.716064453125
1.65
1.585546875
1.5299560546875
1.49853515625
1.4783935546875
1.456640625
1.4332763671875
1.426025390625
1.4236083984374999
1.4195800781249999
1.41796875
1.4171630859375
1.456640625
1.35673828125
1.3204833984375
1.2785888671874999
1.2399169921875
1.224609375
1.1770751953125
1.2310546875
1.3043701171875
1.3752685546874999
1.4348876953124998
1.4953124999999998
1.5412353515625
1.5750732421875
1.6161621093749998
1.6330810546874999
1.6435546875
1.6491943359374999
1.6564453124999998
1.6540283203125
1.6604736328124998
1.6209960937499999
1.7450683593749998
1.77568359375
1.8046875
1.8618896484374998
1.883642578125
1.9432617187499999
1.8280517578125
1.740234375
1.6717529296875
1.5919921874999998
1.5541259765625
1.51787109375
1.482421875
1.4622802734375
1.4469726562499998
1.43408203125
1.4268310546874998
1.4203857421875
1.41796875
1.4219970703125
1.5041748046874999
1.3913818359374999
1.332568359375
1.2906738281249999
1.248779296875
1.2270263671875
1.1851318359375
1.2109130859375
1.2769775390625
1.364794921875
1.4187744140624998
1.46953125
1.5106201171875
1.5791015625
1.5944091796875
1.6209960937499999
1.641943359375
1.6524169921874998
1.6572509765624999
1.654833984375
1.6540283203125
1.5734619140625
1.6894775390624999
1.7748779296875
1.799853515625
1.8546386718749999
1.8780029296874998
1.9086181640625
1.915869140625
1.7974365234374998
1.7039794921875
1.6250244140624999
1.577490234375
1.5323730468749999
1.4920898437499999
1.4759765624999999
1.4493896484375
1.4268310546874998
1.4252197265625
1.4123291015625
1.4203857421875
1.4276367187499999
1.45341796875
1.480810546875
1.3398193359375
1.3108154296874999
1.2640869140625
1.222998046875
1.2020507812499999
1.206884765625
1.26328125
1.3301513671874998
1.397021484375
1.4542236328125
1.5082031249999999
1.5541259765625
1.5847412109374999
1.6161621093749998
1.63388671875
1.6451660156249999
1.6564453124999998
1.6612792968749999
1.6508056640625
1.6161621093749998
1.6701416015625
1.7531249999999998
1.7877685546875
1.8264404296874999
1.8715576171875
1.8925048828125
1.9392333984374999
1.7926025390625
1.714453125
1.6459716796875
1.5992431640625
1.5380126953125
1.5009521484375
1.482421875
1.458251953125
1.4373046875
1.4300537109375
1.4203857421875
1.4236083984374999
1.429248046875
1.426025390625
1.4711425781249998
1.3583496093749998
1.3220947265624998
1.271337890625
1.24072265625
1.213330078125
1.1931884765625
1.2318603515625
1.3067871093749999
1.3623779296874998
1.4437499999999999
1.4912841796874998
1.546875
1.5670166015625
1.6105224609375
1.6209960937499999
1.6475830078125
1.6451660156249999
1.6483886718749998
1.6540283203125
1.635498046875
1.5984375
1.7297607421874999
1.7652099609374998
1.8240234375
1.8659179687499998
1.8908935546874999
1.9464843749999998
1.851416015625
1.754736328125
1.6967285156249998
1.609716796875
1.5533203125
1.5194824218749998
1.48564453125
1.4638916015624999
1.4445556640625
1.4308593749999998
1.4203857421875
1.41796875
1.41796875
1.4252197265625
1.5001464843749999
1.3986328124999998
1.32451171875
1.2930908203125
1.2560302734375
1.2181640624999999
1.1899658203124999
1.219775390625
1.2689208984375
1.3583496093749998
1.4091064453125
1.461474609375
1.5323730468749999
1.5637939453124998
1.5879638671874998
1.619384765625
1.63388671875
1.64677734375
1.64677734375
1.6564453124999998
1.6508056640625
1.5662109375
1.6773925781249999
1.767626953125
1.7990478515625
1.844970703125
1.8876708984375
1.8957275390625
1.928759765625
1.8014648437499998
1.6951171875
1.63388671875
1.585546875
1.5364013671874999
1.4993408203124998
1.4703369140625
1.4413330078125
1.4356933593749999
1.4284423828125
1.42119140625
1.42119140625
1.41796875
1.4332763671875
1.4284423828125
1.3365966796875
1.303564453125
1.2568359375
1.224609375
1.206884765625
1.203662109375
1.2584472656249999
1.3253173828125
1.3946044921874998
1.4469726562499998
1.509814453125
1.5509033203125
1.5758789062499998
1.6089111328124999
1.6379150390625
1.641943359375
1.658056640625
1.6564453124999998
1.6604736328124998
1.6250244140624999
1.66611328125
1.751513671875
1.7797119140625
1.8248291015625
1.8659179687499998
1.8796142578125
1.9432617187499999
1.799853515625
1.7257324218749999
1.6532226562499999
1.5847412109374999
1.5412353515625
1.5041748046874999
1.4880615234374999
1.4526123046875
1.4381103515625
1.4268310546874998
1.4332763671875
1.4187744140624998
1.4187744140624998
1.4195800781249999
1.490478515625
1.3712402343749999
1.3172607421875
1.2737548828124998
1.239111328125
1.2262207031249999
1.181103515625
1.2254150390625
1.2834228515625
1.3543212890624998
1.4397216796874999
1.4912841796874998
1.5275390624999998
1.577490234375
1.5968261718749999
1.6209960937499999
1.641943359375
1.6532226562499999
1.65
1.662890625
1.6532226562499999
1.5927978515624999
1.738623046875
1.7942138671874999
1.8135498046874998
1.8457763671874998
1.867529296875
1.9327880859375
1.8538330078124998
1.7724609375
1.6830322265625
1.6105224609375
1.5766845703124999
1.538818359375
1.49853515625
1.4622802734375
1.4373046875
1.4276367187499999
1.4348876953124998
1.4268310546874998
1.41796875
1.4091064453125
1.4759765624999999
1.400244140625
1.3285400390625
1.3019531249999998
1.2560302734375
1.2125244140625
1.1786865234375
1.21171875
1.2640869140625
1.3502929687499998
1.409912109375
1.4630859374999998
1.5146484375
1.56298828125
1.5863525390625
1.6169677734374999
1.6346923828125
1.6250244140624999
1.6411376953124999
1.6346923828125
1.6395263671875
1.5766845703124999
1.6645019531249998
1.7684326171875
1.8006591796875
1.8578613281249998
1.9070068359374999
1.9271484374999999
1.9408447265625
1.8046875
1.6967285156249998
1.6242187499999998
1.590380859375
1.55009765625
1.4945068359375
1.456640625
1.44052734375
1.4147460937499998
1.41796875
1.4236083984374999
1.4147460937499998
1.4034667968749999
1.4300537109375
1.47275390625
1.364794921875
1.3043701171875
1.2431396484375
1.2044677734375
1.197216796875
1.1778808593749999
1.24716796875
1.3172607421875
1.3921875
1.4791992187499998
1.5541259765625
1.5815185546875
1.5807128906249999
1.6048828124999999
1.6137451171875
1.651611328125
1.635498046875
1.6403320312499998
1.6371093749999999
1.6322753906249998
1.6234130859375
1.7539306640624999
1.77890625
1.8111328125
1.8707519531249999
1.9053955078125
1.9714599609374999
1.8062988281249999
1.7152587890625
1.65
1.58232421875
1.533984375
1.5009521484375
1.4630859374999998
1.4413330078125
1.429248046875
1.4276367187499999
1.4236083984374999
1.426025390625
1.4268310546874998
1.4316650390624999
1.5057861328125
1.3672119140624999
1.3212890625
1.2737548828124998
1.264892578125
1.2479736328125
1.2020507812499999
1.2221923828124999
1.2697265624999998
1.3075927734375
1.3913818359374999
1.4630859374999998
1.52109375
1.5791015625
1.625830078125
1.6765869140624998
1.67578125
1.6081054687499998
1.606494140625
1.6201904296874998
1.6105224609375
1.5323730468749999
1.7184814453125
1.7458740234374999
1.7660156249999999
1.8111328125
1.8256347656249998
1.8820312499999998
1.8409423828125
1.7418457031249999
1.6975341796874999
1.6612792968749999
1.622607421875
1.5984375
1.5404296874999999
1.4993408203124998
1.46953125
1.4477783203124999
1.4630859374999998
1.4953124999999998
1.545263671875
1.4477783203124999
1.4445556640625
1.284228515625
1.2399169921875
1.2415283203124998
1.2205810546875
1.1947998046875
1.1666015625
1.1939941406249999
1.2439453125
1.303564453125
1.4042724609375
1.4800048828124999
1.5597656249999998
1.603271484375
1.625830078125
1.611328125
1.6371093749999999
1.65
1.6604736328124998
1.66611328125
1.6612792968749999
1.5678222656249998
1.63388671875
1.7499023437499999
1.7724609375
1.832080078125
1.8892822265625
1.883642578125
1.8739746093749998
1.738623046875
1.6878662109375
1.6403320312499998
1.6177734375
1.5678222656249998
1.5396240234374998
1.5146484375
1.4783935546875
1.4139404296875
1.3921875
1.3929931640625
1.4598632812499999
1.458251953125
1.3946044921874998
1.4155517578124999
1.3261230468749998
1.3285400390625
1.264892578125
1.2350830078125
1.2383056640624999
1.2495849609374998
1.316455078125
1.368017578125
1.4147460937499998
1.426025390625
1.4526123046875
1.49853515625
1.5670166015625
1.6395263671875
1.66611328125
1.6975341796874999
1.6475830078125
1.6443603515624998
1.6798095703125
1.7023681640625
1.6540283203125
1.7700439453124999
1.7700439453124999
1.8618896484374998
1.8884765625
1.8659179687499998
1.9754882812499999
1.8062988281249999
1.719287109375
1.651611328125
1.5887695312499999
1.5283447265624999
1.493701171875
1.46953125
1.4469726562499998
1.445361328125
1.4373046875
1.4219970703125
1.4364990234375
1.4356933593749999
1.4252197265625
1.5702392578125
1.3623779296874998
1.3317626953125
1.2955078125
1.24072265625
1.216552734375
1.168212890625
1.2020507812499999
1.24716796875
1.3543212890624998
1.4139404296875
1.4574462890625
1.5114257812499998
1.5791015625
1.5960205078124998
1.6185791015625
1.6483886718749998
1.6540283203125
1.6669189453125
1.6451660156249999
1.66611328125
1.5017578125
1.7748779296875
1.8095214843749998
1.8046875
1.8385253906249999
1.8820312499999998
1.9658203125
1.9384277343749998
1.7426513671875
1.6298583984375
1.6266357421875
1.5589599609375
1.525927734375
1.506591796875
1.496923828125
1.4679199218749999
1.4332763671875
1.4413330078125
1.4510009765624998
1.4711425781249998
1.4332763671875
1.5662109375
1.4655029296875
1.2834228515625
1.3108154296874999
1.300341796875
1.3083984375
1.2125244140625
1.239111328125
1.3575439453125
1.340625
1.393798828125
1.6363037109374998
1.5831298828125
1.58232421875
1.5831298828125
1.587158203125
1.6105224609375
1.577490234375
1.63388671875
1.67578125
2.591015625
2.3396484374999997
1.94970703125
1.9142578124999998
1.7982421874999999
1.8385253906249999
1.8788085937499999
1.8731689453125
2.0423583984375
1.6435546875
1.571044921875
1.5194824218749998
1.4945068359375
1.4373046875
1.4171630859375
1.400244140625
1.3897705078125
1.3502929687499998
1.3704345703124998
1.3728515625
1.3664062499999998
1.36962890625
1.3857421875
1.5509033203125
1.2310546875
1.2624755859374999
1.2399169921875
1.134375
1.13115234375
1.1053710937499999
1.18271484375
1.3124267578125
1.4155517578124999
1.4558349609374999
1.5041748046874999
1.5412353515625
1.5734619140625
1.625830078125
1.546875
1.5992431640625
1.587158203125
1.6524169921874998
1.66611328125
1.380908203125
1.4912841796874998
1.98515625
1.8699462890624998
1.899755859375
1.93681640625
1.9029785156249999
2.260693359375
1.8256347656249998
1.6161621093749998
1.5670166015625
1.529150390625
1.4630859374999998
1.6234130859375
1.8151611328125
1.8570556640625
2.022216796875
1.545263671875
1.4606689453125
1.297119140625
1.200439453125
1.07958984375
3.0381591796875
3.034130859375
3.034130859375
3.037353515625
2.931005859375
1.6910888671875
0.033032226562499996
0.03544921875
0.033032226562499996
0.03544921875
0.033032226562499996
0.033837890625
0.033837890625
0.0314208984375
0.165966796875
0.7025390625
0.881396484375
1.181103515625
1.456640625
1.7120361328125
1.9569580078125
0.0362548828125
0.033032226562499996
0.0298095703125
0.033837890625
0.103125
0.98291015625
3.0365478515624997
3.0365478515624997
3.037353515625
3.0333251953125
3.0357421875
3.0365478515624997
3.0397705078125
3.0357421875
3.0317138671875
3.0309082031249996
2.8302978515625
2.6852783203125
2.5716796874999996
2.147900390625
1.8755859375
3.0365478515624997
3.0357421875
3.0365478515624997
3.0405761718749997
3.0389648437499996
2.470166015625
0.8129150390625
0.037060546874999996
0.033032226562499996
0.0281982421875
0.0314208984375
0.033032226562499996
0.033837890625
0.033032226562499996
0.033837890625
0.033837890625
0.16677246093749998
0.346435546875
0.51884765625
0.791162109375
0.9313476562499999
0.0394775390625
0.033032226562499996
0.033032226562499996
0.02900390625
0.033837890625
0.033032226562499996
0.5986083984375
3.0365478515624997
3.0325195312499997
3.037353515625
3.0333251953125
3.0357421875
3.0365478515624997
3.0381591796875
3.0349365234374996
3.0365478515624997
3.037353515625
3.0357421875
3.0357421875
3.034130859375
2.9382568359374996
2.811767578125
3.037353515625
3.0357421875
3.0349365234374996
3.0357421875
3.0365478515624997
2.795654296875
0.1812744140625
0.033837890625
0.033837890625
0.033837890625
0.0346435546875
0.033837890625
0.033837890625
0.0314208984375
0.033032226562499996
0.033032226562499996
0.033032226562499996
0.0362548828125
0.18288574218749998
0.2972900390625
0.3069580078125
0.0314208984375
0.0322265625
0.02900390625
0.033837890625
0.033837890625
0.033837890625
2.6047119140625
3.0365478515624997
3.0357421875
3.0349365234374996
3.0309082031249996
3.0365478515624997
3.0301025390625
3.0357421875
3.0357421875
3.0381591796875
3.0357421875
3.0333251953125
3.0357421875
2.9559814453124997
2.860107421875
3.037353515625
3.037353515625
3.0349365234374996
3.0357421875
3.037353515625
3.037353515625
1.268115234375
0.02900390625
0.033032226562499996
0.038671874999999994
0.0298095703125
0.033032226562499996
0.033032226562499996
0.037060546874999996
0.033032226562499996
0.037060546874999996
0.0322265625
0.0322265625
0.033837890625
0.127294921875
0.1893310546875
0.030615234374999998
0.0322265625
0.027392578124999997
0.0322265625
0.0378662109375
0.0298095703125
0.033032226562499996
3.0349365234374996
3.037353515625
3.0357421875
3.0357421875
3.0357421875
3.0317138671875
3.0357421875
3.0357421875
3.034130859375
3.0365478515624997
3.0405761718749997
3.0357421875
3.034130859375
3.005126953125
2.8681640625
3.0365478515624997
3.0365478515624997
3.0365478515624997
3.0357421875
3.0309082031249996
2.65869140625
0.5164306640624999
0.033032226562499996
0.0346435546875
0.0362548828125
0.033032226562499996
0.037060546874999996
0.0298095703125
0.03544921875
0.02900390625
0.03544921875
0.030615234374999998
0.12568359375
0.2054443359375
0.31259765624999997
0.3279052734375
0.033032226562499996
0.0314208984375
0.02900390625
0.0346435546875
0.0322265625
0.037060546874999996
3.0309082031249996
3.037353515625
3.034130859375
3.034130859375
3.037353515625
3.034130859375
3.0349365234374996
3.0357421875
3.0309082031249996
3.0325195312499997
3.0365478515624997
3.034130859375
3.0333251953125
3.0301025390625
2.9656494140625
3.0357421875
3.0349365234374996
3.0204345703124997
3.0309082031249996
3.0357421875
3.0365478515624997
1.77568359375
0.033032226562499996
0.0322265625
0.033032226562499996
0.03544921875
0.0362548828125
0.030615234374999998
0.03544921875
0.02900390625
0.02900390625
0.033837890625
0.0281982421875
0.072509765625
0.198193359375
0.22478027343749998
0.0298095703125
0.033837890625
0.033032226562499996
0.0322265625
0.0346435546875
0.0298095703125
0.033837890625
3.0357421875
3.0357421875
3.0349365234374996
3.0381591796875
3.0357421875
3.0317138671875
3.0317138671875
3.0349365234374996
3.0349365234374996
3.0325195312499997
3.0325195312499997
3.0357421875
3.0333251953125
2.745703125
3.0309082031249996
3.0357421875
3.0365478515624997
3.034130859375
3.037353515625
3.0325195312499997
2.779541015625
0.033837890625
0.033032226562499996
0.02900390625
0.033837890625
0.02900390625
0.037060546874999996
0.0322265625
0.033837890625
0.0322265625
0.027392578124999997
0.033837890625
0.0322265625
0.069287109375
0.1377685546875
0.033032226562499996
0.03544921875
0.033032226562499996
0.0322265625
0.0322265625
0.0281982421875
0.0322265625
0.0322265625
3.034130859375
3.0349365234374996
3.0365478515624997
3.0333251953125
3.0365478515624997
3.0349365234374996
3.0325195312499997
3.0365478515624997
3.0333251953125
3.0413818359375
3.037353515625
3.0405761718749997
2.9785400390624996
2.9044189453125
3.0357421875
3.0349365234374996
3.0389648437499996
3.034130859375
3.034130859375
3.0365478515624997
0.6421142578125
0.033032226562499996
0.0298095703125
0.02900390625
0.033837890625
0.0346435546875
0.030615234374999998
0.0378662109375
0.033837890625
0.0314208984375
0.033032226562499996
0.0797607421875
0.1329345703125
0.21108398437499998
0.30051269531249997
0.0314208984375
0.038671874999999994
0.033032226562499996
0.0298095703125
0.033032226562499996
0.0378662109375
0.0314208984375
3.0381591796875
3.034130859375
3.0413818359375
3.0381591796875
3.0357421875
3.0365478515624997
3.037353515625
3.0309082031249996
3.0365478515624997
3.0333251953125
3.037353515625
3.037353515625
3.037353515625
2.995458984375
3.0405761718749997
3.0349365234374996
3.0349365234374996
3.0357421875
3.0365478515624997
3.0357421875
1.8151611328125
0.030615234374999998
0.033032226562499996
0.033032226562499996
0.03544921875
0.033032226562499996
0.0362548828125
0.033032226562499996
0.033837890625
0.033837890625
0.0322265625
0.033032226562499996
0.037060546874999996
0.054785156249999994
0.1353515625
0.0298095703125
0.0322265625
0.033837890625
0.033837890625
0.0322265625
0.02900390625
0.037060546874999996
3.034130859375
3.0389648437499996
3.0349365234374996
3.0365478515624997
3.0309082031249996
3.0397705078125
3.0333251953125
3.0365478515624997
3.0357421875
3.037353515625
3.029296875
3.0301025390625
3.0381591796875
2.599072265625
2.9447021484375
3.0325195312499997
3.0397705078125
3.0357421875
3.0389648437499996
3.0365478515624997
2.7884033203125
0.994189453125
0.037060546874999996
0.0346435546875
0.030615234374999998
0.033032226562499996
0.0322265625
0.033032226562499996
0.02900390625
0.033837890625
0.033032226562499996
0.0378662109375
0.03544921875
0.030615234374999998
0.0765380859375
0.09426269531249999
0.0378662109375
0.0322265625
0.0362548828125
0.0322265625
0.033837890625
0.030615234374999998
0.030615234374999998
3.0365478515624997
3.0357421875
3.0381591796875
3.0389648437499996
3.037353515625
3.0381591796875
3.0357421875
3.034130859375
3.0405761718749997
3.0309082031249996
3.0317138671875
3.0325195312499997
3.034130859375
3.0333251953125
3.0357421875
3.0357421875
3.034130859375
3.0325195312499997
3.0405761718749997
3.0365478515624997
2.204296875
0.033837890625
0.0346435546875
0.033837890625
0.033032226562499996
0.033032226562499996
0.0314208984375
0.0322265625
0.033837890625
0.0346435546875
0.0362548828125
0.033032226562499996
0.06606445312499999
0.13212890624999998
0.136962890625
0.033032226562499996
0.0298095703125
0.0298095703125
0.033837890625
0.0346435546875
0.038671874999999994
0.033032226562499996
2.7134765625
3.0357421875
3.034130859375
3.037353515625
3.0357421875
3.0357421875
3.0325195312499997
3.0486328124999997
3.037353515625
3.029296875
3.037353515625
3.0349365234374996
3.034130859375
3.034130859375
2.9986816406249996
3.0357421875
3.034130859375
3.0494384765625
3.0397705078125
3.0357421875
3.0325195312499997
1.003857421875
0.03544921875
0.02900390625
0.030615234374999998
0.033032226562499996
0.0322265625
0.037060546874999996
0.033032226562499996
0.033837890625
0.0346435546875
0.02900390625
0.033032226562499996
0.033032226562499996
0.061230468749999996
0.09023437499999999
0.033032226562499996
0.033032226562499996
0.02900390625
0.033837890625
0.0322265625
0.033032226562499996
0.0346435546875
3.0349365234374996
3.0333251953125
3.034130859375
3.0357421875
3.0429931640624996
3.0365478515624997
3.0389648437499996
3.0357421875
3.034130859375
3.0357421875
3.0357421875
3.0325195312499997
3.0397705078125
3.0349365234374996
3.037353515625
3.0389648437499996
3.0405761718749997
3.0357421875
3.034130859375
3.0333251953125
1.353515625
0.0346435546875
0.0322265625
0.033837890625
0.0314208984375
0.0346435546875
0.0346435546875
0.0322265625
0.0298095703125
0.02900390625
0.0314208984375
0.030615234374999998
0.033032226562499996
0.0958740234375
0.15146484375
0.027392578124999997
0.033837890625
0.033837890625
0.033032226562499996
0.033837890625
0.0322265625
0.0322265625
2.7988769531249997
3.034130859375
3.037353515625
3.0349365234374996
3.0421875
3.0365478515624997
3.0309082031249996
3.0349365234374996
3.0357421875
3.0365478515624997
3.0365478515624997
3.0349365234374996
3.0349365234374996
3.0365478515624997
3.0349365234374996
3.0357421875
3.0365478515624997
3.0365478515624997
3.0349365234374996
3.037353515625
3.0284912109374997
0.6904541015625
0.0322265625
0.037060546874999996
0.033032226562499996
0.030615234374999998
0.0298095703125
0.0298095703125
0.02900390625
0.03544921875
0.0322265625
0.033837890625
0.033837890625
0.0878173828125
0.1329345703125
0.11762695312499999
0.038671874999999994
0.0314208984375
0.038671874999999994
0.0346435546875
0.0314208984375
0.0346435546875
0.0298095703125
3.0284912109374997
3.0365478515624997
3.0357421875
3.0365478515624997
3.0357421875
3.034130859375
3.0357421875
3.0349365234374996
3.0381591796875
3.0365478515624997
3.0349365234374996
3.0405761718749997
3.034130859375
3.0381591796875
3.0365478515624997
3.0357421875
3.0317138671875
3.0365478515624997
3.0317138671875
3.037353515625
1.1754638671875
0.033032226562499996
0.0346435546875
0.02900390625
0.0346435546875
0.0346435546875
0.02900390625
0.0314208984375
0.033032226562499996
0.027392578124999997
0.02900390625
0.033032226562499996
0.03544921875
0.07009277343749999
0.10151367187499999
0.03544921875
0.033032226562499996
0.0322265625
0.033032226562499996
0.0322265625
0.033032226562499996
0.030615234374999998
3.0357421875
3.0325195312499997
3.0381591796875
3.0333251953125
3.0365478515624997
3.0349365234374996
3.0357421875
3.037353515625
3.0317138671875
3.034130859375
3.0349365234374996
3.0349365234374996
3.0349365234374996
3.0349365234374996
3.0309082031249996
3.0333251953125
3.037353515625
3.034130859375
3.034130859375
3.0365478515624997
2.8617187499999996
0.0322265625
0.033837890625
0.033032226562499996
0.0346435546875
0.03544921875
0.0346435546875
0.037060546874999996
0.0346435546875
0.0322265625
0.027392578124999997
0.02900390625
0.038671874999999994
0.0322265625
0.16677246093749998
0.193359375
0.033837890625
0.033032226562499996
0.033032226562499996
0.0314208984375
0.0298095703125
0.037060546874999996
1.9231201171874999
3.0325195312499997
3.0389648437499996
3.0357421875
3.0365478515624997
3.0397705078125
3.034130859375
3.0357421875
3.0325195312499997
3.0421875
3.0349365234374996
3.0365478515624997
3.0389648437499996
3.0349365234374996
3.01318359375
3.0365478515624997
3.0357421875
3.0365478515624997
3.0389648437499996
3.034130859375
3.037353515625
0.6147216796875
0.0362548828125
0.033032226562499996
0.037060546874999996
0.03544921875
0.0346435546875
0.03544921875
0.030615234374999998
0.033837890625
0.0314208984375
0.0322265625
0.0314208984375
0.0910400390625
0.175634765625
0.19255371093749998
0.033032226562499996
0.0362548828125
0.0346435546875
0.027392578124999997
0.0394775390625
0.0322265625
0.0322265625
3.0421875
3.034130859375
3.0349365234374996
3.0357421875
3.0365478515624997
3.034130859375
3.0357421875
3.0357421875
3.0405761718749997
3.0405761718749997
3.0357421875
3.0357421875
3.037353515625
3.0357421875
3.0405761718749997
3.0381591796875
3.0325195312499997
3.0357421875
3.0365478515624997
3.0357421875
1.353515625
0.033032226562499996
0.038671874999999994
0.0346435546875
0.033837890625
0.0322265625
0.033837890625
0.0346435546875
0.0346435546875
0.0322265625
0.033032226562499996
0.0298095703125
0.0322265625
0.033837890625
0.037060546874999996
0.033032226562499996
0.033032226562499996
0.0314208984375
0.0322265625
0.033837890625
0.0281982421875
0.0322265625
3.0357421875
3.0357421875
3.0357421875
3.0397705078125
3.0365478515624997
3.0349365234374996
3.0365478515624997
3.0365478515624997
3.0357421875
3.0325195312499997
3.0333251953125
3.0357421875
3.0357421875
3.0381591796875
3.0309082031249996
3.037353515625
3.0333251953125
3.0357421875
3.0357421875
3.0365478515624997
2.9712890625
0.8572265625
0.0322265625
0.033837890625
0.033032226562499996
0.0298095703125
0.0322265625
0.0346435546875
0.033837890625
0.026586914062499998
0.0362548828125
0.0322265625
0.033032226562499996
0.049145507812499996
0.1861083984375
0.1941650390625
0.033032226562499996
0.0378662109375
0.037060546874999996
0.0314208984375
0.0298095703125
0.033837890625
0.0378662109375
3.0349365234374996
3.0365478515624997
3.0309082031249996
3.0357421875
3.0349365234374996
3.0389648437499996
3.0357421875
3.0357421875
3.034130859375
3.0357421875
3.037353515625
3.037353515625
3.0349365234374996
3.0357421875
3.0429931640624996
3.0397705078125
3.0333251953125
3.0381591796875
3.0309082031249996
3.0381591796875
1.2640869140625
0.0322265625
0.03544921875
0.033032226562499996
0.033837890625
0.0322265625
0.033837890625
0.0346435546875
0.0314208984375
0.0281982421875
0.0346435546875
0.0378662109375
0.0362548828125
0.06606445312499999
0.12568359375
0.015307617187499999
0.0378662109375
0.0314208984375
0.033032226562499996
0.0346435546875
0.033032226562499996
0.0362548828125
3.0099609375
3.0357421875
3.037353515625
3.0405761718749997
3.0349365234374996
3.0357421875
3.0397705078125
3.0349365234374996
3.0357421875
3.0309082031249996
3.0309082031249996
3.0405761718749997
3.0349365234374996
3.0365478515624997
3.0317138671875
3.0365478515624997
3.0357421875
3.0325195312499997
3.0333251953125
3.029296875
2.9261718749999996
0.8048583984375
0.033837890625
0.038671874999999994
0.03544921875
0.0298095703125
0.033032226562499996
0.033837890625
0.02900390625
0.0281982421875
0.0394775390625
0.0378662109375
0.0298095703125
0.033837890625
0.12165527343749999
0.12246093749999999
0.0322265625
0.0281982421875
0.033837890625
0.0298095703125
0.033837890625
0.0322265625
0.033032226562499996
3.0397705078125
3.0349365234374996
3.0405761718749997
3.0357421875
3.0389648437499996
3.0333251953125
3.0389648437499996
3.0309082031249996
3.0349365234374996
3.0405761718749997
3.0421875
3.037353515625
3.0413818359375
3.0365478515624997
3.037353515625
3.034130859375
3.034130859375
3.0349365234374996
3.034130859375
3.0317138671875
1.0973144531249999
0.0322265625
0.033837890625
0.033032226562499996
0.0322265625
0.033032226562499996
0.033032226562499996
0.0346435546875
0.0346435546875
0.033032226562499996
0.0322265625
0.0346435546875
0.059619140625
0.1635498046875
0.2255859375
0.033837890625
0.033032226562499996
0.02900390625
0.0322265625
0.033032226562499996
0.03544921875
0.0322265625
3.0397705078125
3.0349365234374996
3.037353515625
3.0365478515624997
3.0365478515624997
3.0333251953125
3.0357421875
3.0317138671875
3.0357421875
3.0325195312499997
3.0397705078125
3.0333251953125
3.0357421875
3.0357421875
3.0381591796875
3.0365478515624997
3.0317138671875
3.0365478515624997
3.0325195312499997
3.0349365234374996
2.9205322265625
0.7621582031249999
0.037060546874999996
0.033032226562499996
0.03544921875
0.0322265625
0.038671874999999994
0.0346435546875
0.0281982421875
0.033032226562499996
0.0346435546875
0.0314208984375
0.027392578124999997
0.033032226562499996
0.0733154296875
0.0281982421875
0.033032226562499996
0.030615234374999998
0.033837890625
0.0314208984375
0.0378662109375
0.042700195312499994
0.0298095703125
3.0357421875
3.0357421875
3.0349365234374996
3.037353515625
3.0381591796875
3.034130859375
3.0365478515624997
3.0365478515624997
3.0349365234374996
3.0349365234374996
3.0349365234374996
3.0357421875
3.0357421875
3.0349365234374996
3.034130859375
3.0333251953125
3.0349365234374996
3.0357421875
3.0309082031249996
3.0365478515624997
1.24716796875
0.02900390625
0.0322265625
0.0322265625
0.0322265625
0.0322265625
0.0362548828125
0.027392578124999997
0.027392578124999997
0.0322265625
0.033032226562499996
0.0322265625
0.033837890625
0.116015625
0.136962890625
0.033032226562499996
0.0281982421875
0.033837890625
0.0322265625
0.033032226562499996
0.02900390625
0.033032226562499996
3.0365478515624997
3.0365478515624997
3.0333251953125
3.0357421875
3.0309082031249996
3.0349365234374996
3.034130859375
3.0413818359375
3.0357421875
3.0389648437499996
3.0365478515624997
3.0381591796875
3.0405761718749997
3.0309082031249996
3.0365478515624997
3.0357421875
3.037353515625
3.037353515625
3.0381591796875
3.0365478515624997
2.7481201171875
0.033032226562499996
0.037060546874999996
0.033032226562499996
0.033837890625
0.0314208984375
0.0378662109375
0.033032226562499996
0.02900390625
0.033837890625
0.037060546874999996
0.037060546874999996
0.038671874999999994
0.11762695312499999
0.19899902343749998
0.0346435546875
0.0281982421875
0.0281982421875
0.0314208984375
0.033032226562499996
0.02900390625
0.033837890625
2.4564697265624997
3.034130859375
3.037353515625
3.0365478515624997
3.034130859375
3.0389648437499996
3.0317138671875
3.0357421875
3.0357421875
3.037353515625
3.0357421875
3.0365478515624997
3.0357421875
3.0357421875
3.0365478515624997
3.0365478515624997
3.0357421875
3.0317138671875
3.0357421875
3.0397705078125
3.0349365234374996
0.9095947265625
0.033032226562499996
0.038671874999999994
0.0378662109375
0.0298095703125
0.033032226562499996
0.027392578124999997
0.037060546874999996
0.02900390625
0.0314208984375
0.0346435546875
0.0322265625
0.033032226562499996
0.0829833984375
0.0717041015625
0.033032226562499996
0.033837890625
0.033032226562499996
0.033032226562499996
0.0346435546875
0.03544921875
0.0322265625
3.037353515625
3.0389648437499996
3.0333251953125
3.037353515625
3.0309082031249996
3.0365478515624997
3.0325195312499997
3.0357421875
3.0317138671875
3.034130859375
3.034130859375
3.0349365234374996
3.0397705078125
3.034130859375
3.0365478515624997
3.0349365234374996
3.0333251953125
3.0389648437499996
3.0397705078125
3.0357421875
1.119873046875
0.03544921875
0.0322265625
0.038671874999999994
0.0322265625
0.033032226562499996
0.03544921875
0.033032226562499996
0.0281982421875
0.03544921875
0.027392578124999997
0.033032226562499996
0.0322265625
0.033032226562499996
0.08217773437499999
0.033032226562499996
0.033837890625
0.0322265625
0.0362548828125
0.0314208984375
0.037060546874999996
0.033032226562499996
3.0325195312499997
3.0381591796875
3.0357421875
3.037353515625
3.0333251953125
3.0357421875
3.0365478515624997
3.0357421875
3.034130859375
3.0357421875
3.0357421875
3.0309082031249996
3.0365478515624997
3.037353515625
3.0365478515624997
3.0357421875
3.0381591796875
3.0349365234374996
3.0357421875
3.034130859375
2.9986816406249996
0.66064453125
0.02900390625
0.0322265625
0.033032226562499996
0.033837890625
0.033032226562499996
0.033032226562499996
0.0322265625
0.033032226562499996
0.0322265625
0.033032226562499996
0.033032226562499996
0.0749267578125
0.09748535156249999
0.07412109374999999
0.033837890625
0.033032226562499996
0.037060546874999996
0.033837890625
0.033837890625
0.033032226562499996
0.030615234374999998
3.0349365234374996
3.0325195312499997
3.0365478515624997
3.0357421875
3.0357421875
3.037353515625
3.0333251953125
3.029296875
3.034130859375
3.0365478515624997
3.0381591796875
3.0357421875
3.0349365234374996
3.0357421875
3.0397705078125
3.0349365234374996
3.0333251953125
3.0405761718749997
3.0365478515624997
3.0365478515624997
1.2616699218749998
0.0362548828125
0.037060546874999996
0.037060546874999996
0.0322265625
0.033032226562499996
0.038671874999999994
0.033032226562499996
0.033837890625
0.033032226562499996
0.037060546874999996
0.033032226562499996
0.033032226562499996
0.056396484375
0.0708984375
0.033032226562499996
0.033032226562499996
0.0362548828125
0.0314208984375
0.0322265625
0.037060546874999996
0.030615234374999998
3.0357421875
3.0333251953125
3.034130859375
3.0357421875
3.0365478515624997
3.0365478515624997
3.0405761718749997
3.0357421875
3.0357421875
3.0357421875
3.0333251953125
3.0325195312499997
3.034130859375
3.0325195312499997
3.0365478515624997
3.0357421875
3.0405761718749997
3.0357421875
3.0381591796875
3.037353515625
2.7916259765625
0.65419921875
0.0314208984375
0.0314208984375
0.030615234374999998
0.033837890625
0.033837890625
0.027392578124999997
0.030615234374999998
0.0169189453125
0.0314208984375
0.037060546874999996
0.03544921875
0.033032226562499996
0.1474365234375
0.0362548828125
0.0322265625
0.033032226562499996
0.033837890625
0.033837890625
0.0281982421875
0.033032226562499996
2.1019775390624997
3.0357421875
3.037353515625
3.0365478515624997
3.0317138671875
3.0357421875
3.0365478515624997
3.0357421875
3.0357421875
3.0349365234374996
3.0357421875
3.0405761718749997
3.034130859375
3.0349365234374996
3.0325195312499997
3.0357421875
3.0357421875
3.0349365234374996
3.0365478515624997
3.0349365234374996
3.0357421875
1.039306640625
0.0322265625
0.027392578124999997
0.0346435546875
0.033837890625
0.0281982421875
0.033837890625
0.033837890625
0.0322265625
0.033032226562499996
0.0322265625
0.02900390625
0.0378662109375
0.1329345703125
0.111181640625
0.033837890625
0.030615234374999998
0.03544921875
0.0249755859375
0.033032226562499996
0.0346435546875
0.038671874999999994
3.0349365234374996
3.0357421875
3.0349365234374996
3.0357421875
3.034130859375
3.034130859375
3.0389648437499996
3.034130859375
3.0365478515624997
3.0357421875
3.0365478515624997
3.0357421875
3.0381591796875
3.0357421875
3.0357421875
3.0357421875
3.0333251953125
3.0357421875
3.0381591796875
3.0397705078125
2.6240478515624996
0.59619140625
0.02900390625
0.033032226562499996
0.033837890625
0.0346435546875
0.02900390625
0.033032226562499996
0.0314208984375
0.0322265625
0.030615234374999998
0.033032226562499996
0.03544921875
0.033032226562499996
0.037060546874999996
0.033837890625
0.030615234374999998
0.0322265625
0.033032226562499996
0.030615234374999998
0.033837890625
0.0378662109375
0.0322265625
3.034130859375
3.034130859375
3.0365478515624997
3.0349365234374996
3.0333251953125
3.0333251953125
3.0365478515624997
3.043798828125
3.0421875
3.0405761718749997
3.0357421875
3.0357421875
3.0381591796875
3.0333251953125
3.0333251953125
3.034130859375
3.0357421875
3.0357421875
3.0333251953125
3.0301025390625
0.8161376953124999
0.0378662109375
0.033032226562499996
0.033837890625
0.033837890625
0.030615234374999998
0.02900390625
0.0322265625
0.030615234374999998
0.0314208984375
0.033837890625
0.0281982421875
0.064453125
0.1474365234375
0.15227050781249998
0.03544921875
0.033837890625
0.02900390625
0.0314208984375
0.033837890625
0.03544921875
0.0322265625
3.034130859375
3.0333251953125
3.0365478515624997
3.0357421875
3.0421875
3.0381591796875
3.037353515625
3.0325195312499997
3.0357421875
3.0317138671875
3.0333251953125
3.0365478515624997
3.037353515625
3.0365478515624997
3.034130859375
3.0381591796875
3.037353515625
3.0349365234374996
3.0349365234374996
3.0357421875
2.6965576171874996
0.0314208984375
0.0322265625
0.033837890625
0.033032226562499996
0.0298095703125
0.037060546874999996
0.0346435546875
0.0314208984375
0.033032226562499996
0.0346435546875
0.0322265625
0.033032226562499996
0.09426269531249999
0.1353515625
0.033837890625
0.0298095703125
0.033032226562499996
0.0322265625
0.0346435546875
0.03544921875
0.0346435546875
1.9706542968749998
3.0397705078125
3.0365478515624997
3.034130859375
3.0365478515624997
3.0365478515624997
3.0389648437499996
3.0381591796875
3.0357421875
3.0357421875
3.0357421875
3.0365478515624997
3.0357421875
3.0365478515624997
3.0405761718749997
3.034130859375
3.0333251953125
3.0325195312499997
3.0405761718749997
3.0389648437499996
3.0325195312499997
0.726708984375
0.033837890625
0.0322265625
0.0322265625
0.037060546874999996
0.033837890625
0.0322265625
0.037060546874999996
0.0378662109375
0.033032226562499996
0.0378662109375
0.038671874999999994
0.0717041015625
0.1345458984375
0.09829101562499999
0.033032226562499996
0.033837890625
0.03544921875
0.0378662109375
0.033032226562499996
0.037060546874999996
0.03544921875
3.0349365234374996
3.0365478515624997
3.0309082031249996
3.0349365234374996
3.0325195312499997
3.0349365234374996
3.0357421875
3.034130859375
3.0389648437499996
3.037353515625
3.034130859375
3.0357421875
3.0317138671875
3.0381591796875
3.0333251953125
3.0357421875
3.0413818359375
3.0389648437499996
3.0349365234374996
3.0357421875
1.03125
0.0346435546875
0.033837890625
0.0362548828125
0.033837890625
0.0322265625
0.033032226562499996
0.033032226562499996
0.0314208984375
0.0322265625
0.0322265625
0.033032226562499996
0.033032226562499996
0.07734374999999999
0.11359863281249999
0.033032226562499996
0.033032226562499996
0.0346435546875
0.0298095703125
0.033837890625
0.0281982421875
0.033837890625
3.0349365234374996
3.029296875
3.0301025390625
3.0325195312499997
3.0317138671875
3.037353515625
3.0357421875
3.037353515625
3.0397705078125
3.034130859375
3.0365478515624997
3.0325195312499997
3.037353515625
3.0228515624999996
3.0301025390625
3.0349365234374996
3.0357421875
3.0365478515624997
3.0365478515624997
3.0333251953125
2.9398681640624997
0.6775634765624999
0.037060546874999996
0.033837890625
0.033837890625
0.033837890625
0.02900390625
0.0362548828125
0.0322265625
0.0322265625
0.033032226562499996
0.030615234374999998
0.033032226562499996
0.030615234374999998
0.0966796875
0.0322265625
0.0346435546875
0.0346435546875
0.033032226562499996
0.0322265625
0.033837890625
0.0322265625
0.159521484375
3.0333251953125
3.0365478515624997
3.0349365234374996
3.0309082031249996
3.0325195312499997
3.0357421875
3.037353515625
3.0381591796875
3.029296875
3.0349365234374996
3.0357421875
3.0405761718749997
3.0397705078125
3.0325195312499997
3.0397705078125
3.0325195312499997
3.0333251953125
3.0349365234374996
3.0325195312499997
3.0349365234374996
1.271337890625
0.0298095703125
0.02900390625
0.033837890625
0.033837890625
0.02900390625
0.033837890625
0.0322265625
0.0322265625
0.0314208984375
0.02900390625
0.061230468749999996
0.033837890625
0.07412109374999999
0.11279296875
0.0281982421875
0.0346435546875
0.0322265625
0.0322265625
0.0322265625
0.033032226562499996
0.033837890625
3.01318359375
3.0381591796875
3.037353515625
3.0357421875
3.0365478515624997
3.0301025390625
3.0365478515624997
3.0349365234374996
3.0357421875
3.0357421875
3.0349365234374996
3.0357421875
3.0333251953125
3.037353515625
3.0389648437499996
3.0397705078125
3.0381591796875
3.0317138671875
3.0357421875
3.0349365234374996
2.657080078125
0.45842285156249996
0.037060546874999996
0.033837890625
0.0298095703125
0.0346435546875
0.033837890625
0.0249755859375
0.0322265625
0.033837890625
0.0322265625
0.033032226562499996
0.0314208984375
0.07009277343749999
0.16032714843749998
0.0362548828125
0.0298095703125
0.0322265625
0.033837890625
0.037060546874999996
0.0378662109375
0.033032226562499996
2.2695556640625
3.0397705078125
3.034130859375
3.0365478515624997
3.037353515625
3.0397705078125
3.0333251953125
3.0365478515624997
3.0389648437499996
3.0333251953125
3.0365478515624997
3.0365478515624997
3.034130859375
3.0357421875
3.0397705078125
3.0494384765625
3.0381591796875
3.037353515625
3.0365478515624997
3.037353515625
3.0365478515624997
1.02158203125
0.0322265625
0.0314208984375
0.033032226562499996
0.0322265625
0.03544921875
0.0346435546875
0.033837890625
0.0378662109375
0.033032226562499996
0.0362548828125
0.027392578124999997
0.0362548828125
0.0652587890625
0.0845947265625
0.033032226562499996
0.033837890625
0.0362548828125
0.033032226562499996
0.0314208984375
0.033032226562499996
0.033032226562499996
3.0405761718749997
3.0349365234374996
3.0325195312499997
3.0389648437499996
3.0365478515624997
3.0357421875
3.034130859375
3.0381591796875
3.037353515625
3.0349365234374996
3.034130859375
3.0397705078125
3.0357421875
3.0405761718749997
3.0349365234374996
3.034130859375
3.0389648437499996
3.0357421875
3.034130859375
3.0357421875
2.5225341796875
0.2908447265625
0.0314208984375
0.0322265625
0.033032226562499996
0.033032226562499996
0.0362548828125
0.02900390625
0.033032226562499996
0.0322265625
0.0362548828125
0.0346435546875
0.2586181640625
0.033032226562499996
0.033032226562499996
0.0322265625
0.033032226562499996
0.037060546874999996
0.0314208984375
0.033837890625
0.0314208984375
0.0362548828125
2.164013671875
3.0349365234374996
3.0365478515624997
3.0309082031249996
3.0357421875
3.0333251953125
3.0365478515624997
3.0301025390625
3.034130859375
3.0381591796875
3.0365478515624997
3.0325195312499997
3.0357421875
3.034130859375
3.0357421875
3.0309082031249996
3.034130859375
3.0325195312499997
3.0365478515624997
3.037353515625
2.5330078124999997
0.0346435546875
0.033837890625
0.033032226562499996
0.033837890625
0.033032226562499996
0.03544921875
0.033032226562499996
0.033032226562499996
0.0378662109375
0.0346435546875
0.4833984375
0.694482421875
1.039306640625
1.3341796874999998
1.606494140625
0.0322265625
0.0322265625
0.033837890625
3.0357421875
3.0357421875
3.0317138671875
3.0357421875
1.9053955078125
1.625830078125
1.82724609375
1.8578613281249998
1.7507080078125
1.6822265625
1.622607421875
1.55009765625
1.4800048828124999
1.4300537109375
1.4469726562499998
1.40185546875
1.4066894531249998
1.4252197265625
2.2824462890625
1.5476806640624998
1.158544921875
1.22783203125
1.1754638671875
1.1029541015625
0.863671875
0.9353759765624999
1.1174560546874999
1.3172607421875
1.4228027343749998
1.458251953125
1.5194824218749998
1.625830078125
1.6282470703124998
1.62744140625
1.6532226562499999
1.6451660156249999
1.6572509765624999
1.6379150390625
1.603271484375
1.0763671875
1.5444580078124999
1.8908935546874999
1.8296630859374998
1.8957275390625
1.9545410156249998
2.0326904296875
2.38154296875
1.9279541015625
1.69189453125
1.585546875
1.561376953125
3.0357421875
3.0381591796875
2.4049072265625
1.7410400390624998
1.5243164062499999
1.4961181640624999
1.37607421875
1.30517578125
1.2906738281249999
1.3067871093749999
1.426025390625
1.119873046875
1.148876953125
1.126318359375
1.0763671875
1.0610595703124999
1.02802734375
1.087646484375
1.19560546875
1.2802001953125
1.3414306640625
1.3962158203125
1.4526123046875
1.5001464843749999
1.5009521484375
1.5404296874999999
1.561376953125
1.558154296875
1.5573486328125
1.571044921875
1.5645996093749999
1.4364990234375
1.73056640625
1.7217041015624999
1.7926025390625
1.8812255859375
1.8344970703124999
1.98193359375
1.8232177734375
1.6451660156249999
1.609716796875
1.5637939453124998
1.5090087890625
1.4703369140625
1.4542236328125
1.4203857421875
1.4123291015625
1.3978271484375
1.4058837890625
1.4042724609375
1.3994384765624999
1.3744628906249998
1.5355957031249998
1.3212890625
1.364794921875
1.2745605468749999
1.2254150390625
1.19560546875
1.1770751953125
1.1980224609374999
1.26328125
1.34384765625
1.429248046875
1.4920898437499999
1.5170654296875
1.554931640625
1.58232421875
1.6081054687499998
1.625830078125
1.6451660156249999
1.6612792968749999
1.635498046875
1.6524169921874998
1.546875
1.7458740234374999
1.7684326171875
1.8014648437499998
1.8489990234375
1.877197265625
1.915869140625
1.8868652343749999
1.75634765625
1.6846435546874998
1.6177734375
1.5766845703124999
1.5428466796875
1.5001464843749999
1.4912841796874998
1.4437499999999999
1.4308593749999998
1.4195800781249999
1.4042724609375
1.4026611328124998
1.4437499999999999
1.554931640625
1.44052734375
1.3446533203125
1.31162109375
1.2584472656249999
1.222998046875
1.1859374999999999
1.213330078125
1.300341796875
1.3551269531249999
1.409912109375
1.4606689453125
1.546875
1.6306640625
1.6250244140624999
1.6346923828125
1.6306640625
1.6314697265625
1.638720703125
1.6508056640625
1.6532226562499999
1.5380126953125
1.59521484375
1.7499023437499999
1.77890625
1.8393310546875
1.8796142578125
1.8876708984375
1.9521240234375
1.8135498046874998
1.716064453125
1.6508056640625
1.5927978515624999
1.5323730468749999
1.5122314453124999
1.4888671875
1.4598632812499999
1.4284423828125
1.4219970703125
1.4091064453125
1.4066894531249998
1.4139404296875
1.4115234374999999
1.46953125
1.37607421875
1.3333740234375
1.2858398437499998
1.2439453125
1.2383056640624999
1.2101074218749999
1.22783203125
1.303564453125
1.368017578125
1.429248046875
1.4920898437499999
1.5315673828124998
1.5718505859374998
1.5984375
1.6201904296874998
1.6250244140624999
1.6411376953124999
1.638720703125
1.638720703125
1.6475830078125
1.5992431640625
1.7370117187499998
1.7555419921875
1.8038818359375
1.861083984375
1.883642578125
1.95615234375
1.80791015625
1.722509765625
1.658056640625
1.5895751953125
1.5396240234374998
1.5082031249999999
1.4759765624999999
1.4493896484375
1.4228027343749998
1.4308593749999998
1.429248046875
1.429248046875
1.4115234374999999
1.4187744140624998
1.51787109375
1.3744628906249998
1.3422363281249998
1.3261230468749998
1.2584472656249999
1.2181640624999999
1.1666015625
1.20849609375
1.2673095703125
1.3494873046875
1.4356933593749999
1.4912841796874998
1.53720703125
1.5662109375
1.58232421875
1.609716796875
1.6403320312499998
1.65
1.654833984375
1.6620849609375
1.6636962890625
1.5476806640624998
1.7055908203124999
1.7595703125
1.8103271484374999
1.851416015625
1.8763916015625
1.920703125
1.915869140625
1.7829345703125
1.6781982421875
1.6161621093749998
1.5621826171875
1.5412353515625
1.4888671875
1.46953125
1.4469726562499998
1.4195800781249999
1.4107177734374998
1.4244140625
1.42119140625
1.4276367187499999
1.533984375
1.4840332031249999
1.353515625
1.3253173828125
1.3873535156249999
1.235888671875
1.190771484375
1.1939941406249999
1.2608642578125
1.3269287109374999
1.3744628906249998
1.445361328125
1.5025634765625
1.5347900390625
1.5678222656249998
1.65966796875
1.6540283203125
1.6572509765624999
1.6427490234375
1.6346923828125
1.651611328125
1.5758789062499998
1.6612792968749999
1.7362060546875
1.7700439453124999
1.8151611328125
1.8506103515624999
1.8780029296874998
1.9384277343749998
1.780517578125
1.6951171875
1.6379150390625
1.5831298828125
1.525927734375
1.4920898437499999
1.4719482421874999
1.448583984375
1.426025390625
1.426025390625
1.4187744140624998
1.4203857421875
1.42119140625
1.445361328125
1.46953125
1.332568359375
1.3140380859374998
1.2697265624999998
1.2302490234374999
1.21171875
1.197216796875
1.22783203125
1.3027587890624999
1.3792968749999999
1.4510009765624998
1.493701171875
1.5347900390625
1.5887695312499999
1.606494140625
1.62744140625
1.65
1.6451660156249999
1.6508056640625
1.651611328125
1.619384765625
1.5984375
1.738623046875
1.7716552734375
1.8312744140625
1.8578613281249998
1.877197265625
1.94970703125
1.8425537109374999
1.754736328125
1.6717529296875
1.5919921874999998
1.5557373046874998
1.51787109375
1.4783935546875
1.4622802734375
1.4397216796874999
1.4397216796874999
1.4171630859375
1.4244140625
1.4091064453125
1.42119140625
1.5073974609374998
1.3905761718749998
1.3349853515624999
1.2914794921875
1.2616699218749998
1.2262207031249999
1.1939941406249999
1.2238037109375
1.2673095703125
1.3639892578125
1.4155517578124999
1.4735595703125
1.5251220703125
1.571044921875
1.590380859375
1.6169677734374999
1.6346923828125
1.651611328125
1.6483886718749998
1.6540283203125
1.6556396484375
1.5573486328125
1.6894775390624999
1.764404296875
1.8038818359375
1.8506103515624999
1.880419921875
1.9078125
1.9263427734374998
1.7934082031249998
1.703173828125
1.6306640625
1.5782958984375
1.522705078125
1.4880615234374999
1.4719482421874999
1.4469726562499998
1.4356933593749999
1.4356933593749999
1.4316650390624999
1.4219970703125
1.4252197265625
1.456640625
1.409912109375
1.3341796874999998
1.3027587890624999
1.2479736328125
1.2205810546875
1.1939941406249999
1.1947998046875
1.2528076171875
1.3285400390625
1.400244140625
1.4630859374999998
1.5154541015624998
1.5605712890624999
1.5911865234375
1.6290527343749999
1.635498046875
1.638720703125
1.6532226562499999
1.658056640625
1.6733642578124999
1.61455078125
1.6620849609375
1.7635986328125
1.803076171875
1.848193359375
1.8780029296874998
1.8900878906249998
1.9537353515625
1.799853515625
1.7200927734375
1.6524169921874998
1.5927978515624999
1.5436523437499998
1.5194824218749998
1.474365234375
1.45341796875
1.4348876953124998
1.426025390625
1.41796875
1.4139404296875
1.4010498046875
1.426025390625
1.480810546875
1.3446533203125
1.3019531249999998
1.2665039062499999
1.2383056640624999
1.21171875
1.184326171875
1.2238037109375
1.29228515625
1.377685546875
1.4469726562499998
1.506591796875
1.542041015625
1.5782958984375
1.6129394531249999
1.619384765625
1.6411376953124999
1.6435546875
1.6483886718749998
1.651611328125
1.6459716796875
1.5919921874999998
1.740234375
1.77568359375
1.8216064453124998
1.8635009765625
1.8739746093749998
1.9408447265625
1.8626953124999999
1.75634765625
1.6636962890625
1.609716796875
1.5702392578125
1.5315673828124998
1.480810546875
1.46953125
1.4429443359374998
1.4195800781249999
1.4107177734374998
1.4058837890625
1.42119140625
1.4139404296875
1.496923828125
1.4058837890625
1.3317626953125
1.2834228515625
1.2560302734375
1.2221923828124999
1.171435546875
1.2101074218749999
1.26005859375
1.3607666015625
1.413134765625
1.46953125
1.5251220703125
1.5726562499999999
1.5887695312499999
1.611328125
1.6403320312499998
1.64677734375
1.6475830078125
1.6508056640625
1.6475830078125
1.5686279296874999
1.6765869140624998
1.7668212890625
1.7942138671874999
1.8457763671874998
1.883642578125
1.896533203125
1.928759765625
1.8014648437499998
1.7104248046875
1.63388671875
1.58232421875
1.5251220703125
1.5009521484375
1.46630859375
1.4389160156249998
1.426025390625
1.42119140625
1.4195800781249999
1.4123291015625
1.413134765625
1.4413330078125
1.41796875
1.3341796874999998
1.3067871093749999
1.2528076171875
1.2238037109375
1.203662109375
1.1947998046875
1.2528076171875
1.3269287109374999
1.3873535156249999
1.4550292968749998
1.50498046875
1.5460693359375
1.587158203125
1.619384765625
1.6298583984375
1.6371093749999999
1.6508056640625
1.6524169921874998
1.658056640625
1.6290527343749999
1.6532226562499999
1.7466796875
1.7829345703125
1.8385253906249999
1.8739746093749998
1.8957275390625
1.931982421875
1.8014648437499998
1.7265380859375
1.667724609375
1.5831298828125
1.5315673828124998
1.4993408203124998
1.4751708984374998
1.4461669921875
1.4348876953124998
1.4300537109375
1.4268310546874998
1.4195800781249999
1.4219970703125
1.4236083984374999
1.49853515625
1.3656005859375
1.3180664062499998
1.2785888671874999
1.2342773437499999
1.21494140625
1.1778808593749999
1.2238037109375
1.2898681640624998
1.3825195312499998
1.4373046875
1.4888671875
1.5331787109375
1.5758789062499998
1.5984375
1.6282470703124998
1.6443603515624998
1.65966796875
1.6612792968749999
1.662890625
1.654833984375
1.5887695312499999
1.7217041015624999
1.7668212890625
1.8167724609375
1.8570556640625
1.8780029296874998
1.9408447265625
1.8699462890624998
1.7684326171875
1.67578125
1.6089111328124999
1.5605712890624999
1.5154541015624998
1.482421875
1.4598632812499999
1.4510009765624998
1.4308593749999998
1.4123291015625
1.4171630859375
1.4187744140624998
1.4195800781249999
1.5033691406249998
1.3792968749999999
1.3253173828125
1.2987304687499999
1.2584472656249999
1.216552734375
1.184326171875
1.20849609375
1.27294921875
1.351904296875
1.4066894531249998
1.4590576171874998
1.5154541015624998
1.56943359375
1.5927978515624999
1.6250244140624999
1.635498046875
1.6379150390625
1.6524169921874998
1.658056640625
1.6508056640625
1.5799072265624998
1.7096191406249999
1.7635986328125
1.791796875
1.8425537109374999
1.8812255859375
1.8981445312499998
1.9360107421875
1.7926025390625
1.7080078125
1.6427490234375
1.56943359375
1.533984375
1.4953124999999998
1.4703369140625
1.445361328125
1.4332763671875
1.42119140625
1.42119140625
1.4155517578124999
1.40830078125
1.4791992187499998
1.4252197265625
1.3430419921874999
1.3156494140625
1.2640869140625
1.229443359375
1.216552734375
1.2052734375
1.2431396484375
1.32451171875
1.3849365234375
1.4542236328125
1.5082031249999999
1.5412353515625
1.590380859375
1.6153564453125
1.635498046875
1.6475830078125
1.65966796875
1.6564453124999998
1.658056640625
1.5919921874999998
1.6242187499999998
1.7370117187499998
1.7740722656249999
1.8224121093749999
1.8667236328124999
1.8812255859375
1.9392333984374999
1.8240234375
1.7394287109375
1.6556396484375
1.5879638671874998
1.5428466796875
1.5154541015624998
1.4767822265625
1.4526123046875
1.4429443359374998
1.43408203125
1.4252197265625
1.4219970703125
1.4139404296875
1.41796875
1.4961181640624999
1.3792968749999999
1.3148437499999999
1.2818115234374998
1.24072265625
1.216552734375
1.1666015625
1.2157470703125
1.3108154296874999
1.3784912109374998
1.4316650390624999
1.4848388671875
1.5412353515625
1.5766845703124999
1.6056884765625
1.6306640625
1.6443603515624998
1.6459716796875
1.6491943359374999
1.65
1.6508056640625
1.56943359375
1.74345703125
1.7692382812499998
1.8151611328125
1.85625
1.8796142578125
1.9279541015625
1.8780029296874998
1.7539306640624999
1.6806152343749998
1.6185791015625
1.571044921875
1.5122314453124999
1.4945068359375
1.458251953125
1.4381103515625
1.4308593749999998
1.429248046875
1.4268310546874998
1.4171630859375
1.4147460937499998
1.5025634765625
1.3873535156249999
1.3261230468749998
1.2947021484374999
1.2592529296875
1.2342773437499999
1.1931884765625
1.222998046875
1.2802001953125
1.3341796874999998
1.4066894531249998
1.474365234375
1.5162597656249999
1.5589599609375
1.6000488281249998
1.6218017578125
1.6395263671875
1.6363037109374998
1.6540283203125
1.6564453124999998
1.6483886718749998
1.5718505859374998
1.6975341796874999
1.7595703125
1.786962890625
1.8522216796875
1.8780029296874998
1.893310546875
1.9102294921874998
1.803076171875
1.7120361328125
1.6524169921874998
1.5750732421875
1.5331787109375
1.49853515625
1.4759765624999999
1.4518066406249999
1.4300537109375
1.42119140625
1.4155517578124999
1.429248046875
1.4195800781249999
1.456640625
1.4501953125
1.3430419921874999
1.300341796875
1.26328125
1.2238037109375
1.200439453125
1.2012451171875
1.2439453125
1.3100097656249998
1.397021484375
1.4550292968749998
1.513037109375
1.5484863281249999
1.5807128906249999
1.609716796875
1.6306640625
1.6435546875
1.65966796875
1.6564453124999998
1.65966796875
1.60166015625
1.6234130859375
1.7418457031249999
1.7893798828124998
1.8344970703124999
1.8659179687499998
1.9005615234375
1.9360107421875
1.8264404296874999
1.7378173828124999
1.6411376953124999
1.5960205078124998
1.5492919921875
1.50498046875
1.477587890625
1.456640625
1.4308593749999998
1.4308593749999998
1.4228027343749998
1.416357421875
1.4171630859375
1.416357421875
1.5057861328125
1.3591552734374999
1.319677734375
1.2802001953125
1.2383056640624999
1.2141357421874999
1.181103515625
1.21494140625
1.303564453125
1.3704345703124998
1.4236083984374999
1.4993408203124998
1.5299560546875
1.5782958984375
1.5960205078124998
1.6371093749999999
1.6363037109374998
1.6459716796875
1.6451660156249999
1.6636962890625
1.6572509765624999
1.56298828125
1.7329833984374998
1.767626953125
1.8071044921875
1.8651123046875
1.877197265625
1.9182861328124998
1.8973388671875
1.76279296875
1.6806152343749998
1.6234130859375
1.554931640625
1.53076171875
1.490478515625
1.4622802734375
1.4437499999999999
1.429248046875
1.4228027343749998
1.413134765625
1.4147460937499998
1.4171630859375
1.5033691406249998
1.3897705078125
1.327734375
1.284228515625
1.2447509765625
1.2238037109375
1.1835205078125
1.20849609375
1.268115234375
1.3365966796875
1.416357421875
1.4687255859375
1.4993408203124998
1.5533203125
1.5976318359375
1.6218017578125
1.6403320312499998
1.64677734375
1.6483886718749998
1.6483886718749998
1.65
1.5678222656249998
1.687060546875
1.7595703125
1.8062988281249999
1.848193359375
1.8739746093749998
1.8884765625
1.9118408203125
1.8006591796875
1.722509765625
1.63388671875
1.5726562499999999
1.5347900390625
1.5122314453124999
1.4711425781249998
1.461474609375
1.4356933593749999
1.426025390625
1.4268310546874998
1.4236083984374999
1.41796875
1.4526123046875
1.4574462890625
1.3527099609375
1.3067871093749999
1.2640869140625
1.2374999999999998
1.2060791015624999
1.187548828125
1.2350830078125
1.327734375
1.393798828125
1.4526123046875
1.4953124999999998
1.5460693359375
1.590380859375
1.6161621093749998
1.63388671875
1.6443603515624998
1.6564453124999998
1.6653076171874999
1.6532226562499999
1.6314697265625
1.6129394531249999
1.748291015625
1.7813232421874998
1.82724609375
1.861083984375
1.88525390625
1.9352050781249999
1.84013671875
1.7257324218749999
1.65
1.5968261718749999
1.554931640625
1.5001464843749999
1.480810546875
1.4638916015624999
1.4284423828125
1.4228027343749998
1.4252197265625
1.4147460937499998
1.42119140625
1.4147460937499998
1.4783935546875
1.3551269531249999
1.3285400390625
1.287451171875
1.2431396484375
1.2125244140625
1.1802978515625
1.2262207031249999
1.2898681640624998
1.3583496093749998
1.4228027343749998
1.493701171875
1.5380126953125
1.571044921875
1.6048828124999999
1.625830078125
1.6371093749999999
1.654833984375
1.6564453124999998
