1.91748046875
1.7958251953125
1.7096191406249999
1.60166015625
1.5484863281249999
1.509814453125
1.46630859375
1.4445556640625
1.4147460937499998
1.4066894531249998
1.405078125
1.3962158203125
1.380908203125
1.3962158203125
1.5275390624999998
1.36962890625
1.276171875
1.2181640624999999
1.1738525390624999
1.1384033203125
1.0812011718749999
1.11826171875
1.1939941406249999
1.3212890625
1.3913818359374999
1.4574462890625
1.5243164062499999
1.5799072265624998
1.6081054687499998
1.638720703125
1.658056640625
1.670947265625
1.6781982421875
1.683837890625
1.6725585937499998
1.5460693359375
1.719287109375
1.8425537109374999
1.8788085937499999
1.93681640625
1.9593749999999999
2.023828125
2.0391357421875
1.8667236328124999
1.735400390625
1.6612792968749999
1.5750732421875
1.5194824218749998
1.4832275390624998
1.4526123046875
1.4171630859375
1.40830078125
1.3962158203125
1.4010498046875
1.3913818359374999
1.393798828125
1.4574462890625
1.3744628906249998
1.2737548828124998
1.2455566406249998
1.1722412109375
1.1448486328125
1.1110107421875
1.1013427734374999
1.1851318359375
1.2826171874999999
1.3599609375
1.4244140625
1.490478515625
1.5573486328125
1.5927978515624999
1.6395263671875
1.6540283203125
1.6653076171874999
1.6798095703125
1.6862548828125
1.6830322265625
1.6024658203125
1.7080078125
1.82724609375
1.8602783203125
1.9182861328124998
1.9650146484375
1.9843505859375
2.0761962890625
1.861083984375
1.7595703125
1.6693359374999999
1.5807128906249999
1.5275390624999998
1.493701171875
1.4590576171874998
1.4276367187499999
1.413134765625
1.40830078125
1.4010498046875
1.3962158203125
1.3913818359374999
1.4389160156249998
1.4655029296875
1.30517578125
1.264892578125
1.19560546875
1.1577392578124999
1.1351806640625
1.0868408203125
1.1529052734375
1.2350830078125
1.3301513671874998
1.4155517578124999
1.4872558593749998
1.5347900390625
1.5879638671874998
1.622607421875
1.65966796875
1.65966796875
1.674169921875
1.6846435546874998
1.6846435546874998
1.622607421875
1.6081054687499998
1.8071044921875
1.8522216796875
1.9182861328124998
1.9529296875
1.9658203125
2.083447265625
1.93359375
1.8022705078124999
1.6806152343749998
1.6089111328124999
1.5492919921875
1.5106201171875
1.4606689453125
1.4445556640625
1.4147460937499998
1.4066894531249998
1.3994384765624999
1.3946044921874998
1.3857421875
1.3946044921874998
1.52109375
1.3430419921874999
1.26328125
1.2141357421874999
1.168212890625
1.1375976562499999
1.0787841796875
1.1255126953124999
1.2366943359375
1.3237060546875
1.3905761718749998
1.4598632812499999
1.5154541015624998
1.5847412109374999
1.6089111328124999
1.6475830078125
1.662890625
1.6693359374999999
1.6798095703125
1.6781982421875
1.6798095703125
1.5484863281249999
1.7942138671874999
1.8393310546875
1.8812255859375
1.9464843749999998
1.960986328125
2.028662109375
2.0294677734374997
1.8175781249999998
1.722509765625
1.65
1.5758789062499998
1.513037109375
1.4791992187499998
1.4493896484375
1.4268310546874998
1.40830078125
1.4042724609375
1.3986328124999998
1.3897705078125
1.3946044921874998
1.4719482421874999
1.3688232421875
1.276171875
1.24072265625
1.1690185546875
1.1367919921875
1.103759765625
1.1271240234375
1.1964111328125
1.2850341796875
1.361572265625
1.456640625
1.5025634765625
1.558154296875
1.6081054687499998
1.6290527343749999
1.6532226562499999
1.6693359374999999
1.6765869140624998
1.6830322265625
1.6862548828125
1.5380126953125
1.7152587890625
1.8264404296874999
1.8489990234375
1.9343994140624998
1.9625976562499998
1.9859619140625
2.0520263671875
1.8788085937499999
1.764404296875
1.6822265625
1.5863525390625
1.5347900390625
1.4993408203124998
1.45341796875
1.4187744140624998
1.4123291015625
1.4091064453125
1.405078125
1.3946044921874998
1.3929931640625
1.4477783203124999
1.4542236328125
1.2955078125
1.2447509765625
1.19560546875
1.1512939453125
1.1077880859375
1.09248046875
1.1545166015625
1.252001953125
1.3631835937499999
1.4284423828125
1.4848388671875
1.5476806640624998
1.59521484375
1.6298583984375
1.6411376953124999
1.6645019531249998
1.6749755859375
1.6798095703125
1.683837890625
1.6048828124999999
1.6169677734374999
1.8111328125
1.8578613281249998
1.91748046875
1.9553466796874999
1.98837890625
2.0737792968749997
1.9303710937499998
1.8054931640624998
1.6878662109375
1.6072998046875
1.5484863281249999
1.4945068359375
1.4679199218749999
1.4364990234375
1.4123291015625
1.4066894531249998
1.40185546875
1.3929931640625
1.3921875
1.400244140625
1.5202880859374999
1.3059814453124998
1.26328125
1.2141357421874999
1.1529052734375
1.135986328125
1.0723388671875
1.13115234375
1.2439453125
1.329345703125
1.400244140625
1.4638916015624999
1.529150390625
1.5791015625
1.6089111328124999
1.6459716796875
1.6693359374999999
1.6645019531249998
1.683837890625
1.6830322265625
1.6806152343749998
1.542041015625
1.7893798828124998
1.8361083984375
1.88525390625
1.9424560546874998
1.9730712890625
2.03671875
2.00771484375
1.8135498046874998
1.7152587890625
1.638720703125
1.55009765625
1.5154541015624998
1.4791992187499998
1.4477783203124999
1.4147460937499998
1.4139404296875
1.40830078125
1.3954101562499999
1.3994384765624999
1.3905761718749998
1.53076171875
1.3502929687499998
1.27294921875
1.2318603515625
1.1706298828125
1.1448486328125
1.1061767578125
1.1222900390625
1.197216796875
1.29228515625
1.37607421875
1.456640625
1.4961181640624999
1.5605712890624999
1.6081054687499998
1.6403320312499998
1.65966796875
1.6685302734374998
1.6854492187499999
1.683837890625
1.6886718749999998
1.546875
1.735400390625
1.8256347656249998
1.8538330078124998
1.9392333984374999
1.9682373046875
1.989990234375
2.0294677734374997
1.869140625
1.75634765625
1.6540283203125
1.58232421875
1.5331787109375
1.4872558593749998
1.448583984375
1.426025390625
1.4115234374999999
1.397021484375
1.3954101562499999
1.38896484375
1.3865478515624998
1.47275390625
1.4332763671875
1.29228515625
1.239111328125
1.1851318359375
1.1416259765624999
1.10859375
1.0932861328124999
1.16337890625
1.2568359375
1.3736572265625
1.429248046875
1.4872558593749998
1.5645996093749999
1.5984375
1.6218017578125
1.6459716796875
1.6653076171874999
1.6749755859375
1.6854492187499999
1.6806152343749998
1.5919921874999998
1.6403320312499998
1.80791015625
1.8554443359375
1.912646484375
1.9601806640625
1.9907958984374998
2.075390625
1.9223144531249998
1.7958251953125
1.67900390625
1.6040771484374998
1.5476806640624998
1.496923828125
1.4622802734375
1.44052734375
1.4042724609375
1.3994384765624999
1.4010498046875
1.3849365234375
1.3946044921874998
1.3994384765624999
1.5162597656249999
1.297119140625
1.2576416015624998
1.2101074218749999
1.1512939453125
1.1279296875
1.0771728515624999
1.1279296875
1.24072265625
1.33740234375
1.4058837890625
1.4928955078125
1.53720703125
1.5799072265624998
1.6161621093749998
1.6459716796875
1.6669189453125
1.670947265625
1.6781982421875
1.6765869140624998
1.6822265625
1.5597656249999998
1.8006591796875
1.8417480468749998
1.8892822265625
1.9593749999999999
1.9617919921875
2.0439697265625
2.006103515625
1.8151611328125
1.71123046875
1.6314697265625
1.554931640625
1.5122314453124999
1.480810546875
1.4373046875
1.41796875
1.405078125
1.3994384765624999
1.3905761718749998
1.3881591796875
1.3921875
1.5170654296875
1.3365966796875
1.2753662109375
1.22138671875
1.164990234375
1.1408203125
1.0852294921874999
1.1206787109375
1.2052734375
1.3043701171875
1.3736572265625
1.4638916015624999
1.5146484375
1.574267578125
1.6250244140624999
1.6443603515624998
1.6604736328124998
1.674169921875
1.67578125
1.6806152343749998
1.6701416015625
1.545263671875
1.7587646484375
1.8336914062499998
1.8707519531249999
1.9456787109375
1.9601806640625
2.0020751953125
2.018994140625
1.8554443359375
1.748291015625
1.6572509765624999
1.5702392578125
1.5299560546875
1.4912841796874998
1.4469726562499998
1.4236083984374999
1.4058837890625
1.4010498046875
1.3954101562499999
1.3905761718749998
1.3913818359374999
1.4912841796874998
1.4155517578124999
1.2906738281249999
1.2318603515625
1.1859374999999999
1.14404296875
1.1021484375
1.1013427734374999
1.1690185546875
1.2665039062499999
1.3736572265625
1.4356933593749999
1.4840332031249999
1.5686279296874999
1.6072998046875
1.6218017578125
1.6475830078125
1.6612792968749999
1.6765869140624998
1.67900390625
1.6806152343749998
1.5718505859374998
1.6604736328124998
1.8175781249999998
1.8602783203125
1.9263427734374998
1.9617919921875
1.9907958984374998
2.064111328125
1.9150634765624999
1.786962890625
1.674169921875
1.6056884765625
1.538818359375
1.4977294921875
1.4630859374999998
1.429248046875
1.41796875
1.4034667968749999
1.397021484375
1.3897705078125
1.400244140625
1.3986328124999998
1.5090087890625
1.2858398437499998
1.2503906249999999
1.206884765625
1.15048828125
1.1271240234375
1.077978515625
1.134375
1.252001953125
1.3430419921874999
1.416357421875
1.4719482421874999
1.5396240234374998
1.5831298828125
1.6169677734374999
1.6524169921874998
1.6669189453125
1.6725585937499998
1.67578125
1.6798095703125
1.667724609375
1.5573486328125
1.8087158203125
1.8441650390625
1.9005615234375
1.9456787109375
1.9754882812499999
2.051220703125
1.9891845703125
1.8006591796875
1.7023681640625
1.6346923828125
1.5460693359375
1.5082031249999999
1.4711425781249998
1.448583984375
1.4187744140624998
1.4026611328124998
1.397021484375
1.3897705078125
1.3897705078125
1.3946044921874998
1.5146484375
1.3188720703124999
1.271337890625
1.2254150390625
1.1577392578124999
1.139208984375
1.0900634765625
1.134375
1.2181640624999999
1.303564453125
1.380908203125
1.4719482421874999
1.5170654296875
1.56943359375
1.6185791015625
1.6363037109374998
1.6556396484375
1.667724609375
1.6830322265625
1.687060546875
1.6806152343749998
1.5484863281249999
1.7668212890625
1.8336914062499998
1.8747802734374999
1.9400390625
1.9617919921875
2.0085205078125
2.0036865234375
1.8377197265624998
1.740234375
1.6298583984375
1.5718505859374998
1.5218994140625
1.48564453125
1.4518066406249999
1.4187744140624998
1.405078125
1.4010498046875
1.397021484375
1.3865478515624998
1.3881591796875
1.5025634765625
1.3905761718749998
1.281005859375
1.2286376953125
1.1698242187499999
1.1456542968749999
1.095703125
1.1053710937499999
1.1923828125
1.2777832031249998
1.37607421875
1.4373046875
1.4993408203124998
1.5678222656249998
1.6000488281249998
1.6330810546874999
1.6508056640625
1.662890625
1.6773925781249999
1.6878662109375
1.6765869140624998
1.5662109375
1.6822265625
1.8183837890624999
1.8651123046875
1.9303710937499998
1.9601806640625
1.998046875
2.0633056640625
1.9013671875
1.8344970703124999
1.66611328125
1.5927978515624999
1.546875
1.4840332031249999
1.4542236328125
1.4397216796874999
1.4123291015625
1.397021484375
1.3954101562499999
1.3905761718749998
1.3913818359374999
1.4155517578124999
1.4783935546875
1.2882568359375
1.2536132812499998
1.1996337890625
1.14404296875
1.11826171875
1.0803955078125
1.1351806640625
1.27294921875
1.3446533203125
1.42119140625
1.4953124999999998
1.5444580078124999
1.5887695312499999
1.6161621093749998
1.6556396484375
1.6653076171874999
1.667724609375
1.683837890625
1.6733642578124999
1.6572509765624999
1.58232421875
1.8087158203125
1.8441650390625
1.90458984375
1.9601806640625
1.9754882812499999
2.0536376953124997
1.973876953125
1.7877685546875
1.6959228515625
1.622607421875
1.5460693359375
1.506591796875
1.4735595703125
1.43408203125
1.4203857421875
1.40185546875
1.4010498046875
1.38896484375
1.3905761718749998
1.38896484375
1.5009521484375
1.316455078125
1.27294921875
1.222998046875
1.15693359375
1.1303466796875
1.0820068359375
1.1375976562499999
1.224609375
1.3212890625
1.3865478515624998
1.4711425781249998
1.5235107421874998
1.5750732421875
1.6209960937499999
1.6403320312499998
1.6645019531249998
1.6806152343749998
1.674169921875
1.683837890625
1.6773925781249999
1.5645996093749999
1.7772949218749998
1.8369140625
1.8780029296874998
1.9432617187499999
1.960986328125
2.0165771484375
1.9843505859375
1.8232177734375
1.735400390625
1.63388671875
1.5654052734375
1.5251220703125
1.477587890625
1.4445556640625
1.426025390625
1.4066894531249998
1.3905761718749998
1.3865478515624998
1.393798828125
1.3921875
1.5194824218749998
1.3728515625
1.2866455078124999
1.2238037109375
1.1625732421875
1.134375
1.0852294921874999
1.1150390625
1.184326171875
1.2818115234374998
1.38896484375
1.4469726562499998
1.5073974609374998
1.5702392578125
1.6040771484374998
1.6346923828125
1.658056640625
1.6588623046875
1.6773925781249999
1.6806152343749998
1.6798095703125
1.5444580078124999
1.7047851562499998
1.8304687499999999
1.8739746093749998
1.931982421875
1.9569580078125
2.0085205078125
2.0568603515625
1.89169921875
1.7740722656249999
1.662890625
1.5944091796875
1.5380126953125
1.4872558593749998
1.456640625
1.4316650390624999
1.4074951171874999
1.3986328124999998
1.3905761718749998
1.3921875
1.393798828125
1.4348876953124998
1.4550292968749998
1.2890625
1.24716796875
1.1939941406249999
1.142431640625
1.110205078125
1.0852294921874999
1.15693359375
1.268115234375
1.35673828125
1.42119140625
1.5073974609374998
1.5525146484374999
1.5879638671874998
1.6201904296874998
1.6524169921874998
1.6693359374999999
1.6765869140624998
1.6806152343749998
1.6822265625
1.625830078125
1.6040771484374998
1.812744140625
1.8506103515624999
1.9102294921874998
1.9593749999999999
1.9746826171874998
2.070556640625
1.95615234375
1.7797119140625
1.69189453125
1.6129394531249999
1.5380126953125
1.5001464843749999
1.4671142578124998
1.4316650390624999
1.4187744140624998
1.4107177734374998
1.4010498046875
1.3946044921874998
1.3873535156249999
1.3881591796875
1.4783935546875
1.3083984375
1.2608642578125
1.19560546875
1.1537109374999999
1.1448486328125
1.0723388671875
1.142431640625
1.239111328125
1.3237060546875
1.3921875
1.4735595703125
1.522705078125
1.5758789062499998
1.6314697265625
1.6403320312499998
1.6556396484375
1.670947265625
1.670947265625
1.6846435546874998
1.6854492187499999
1.593603515625
1.7974365234374998
1.832080078125
1.8796142578125
1.9521240234375
1.9617919921875
2.0197998046875
1.9666259765624998
1.8232177734375
1.722509765625
1.6234130859375
1.5573486328125
1.52109375
1.47275390625
1.4437499999999999
1.4219970703125
1.41796875
1.3913818359374999
1.3921875
1.3905761718749998
1.393798828125
1.5243164062499999
1.3664062499999998
1.2769775390625
1.2262207031249999
1.1609619140625
1.1448486328125
1.0731445312499999
1.1222900390625
1.197216796875
1.281005859375
1.3849365234375
1.448583984375
1.496923828125
1.5815185546875
1.6081054687499998
1.6427490234375
1.6524169921874998
1.6693359374999999
1.6781982421875
1.6765869140624998
1.6806152343749998
1.5444580078124999
1.7152587890625
1.8199951171875
1.8667236328124999
1.931982421875
1.9698486328125
2.0044921875
2.0214111328124997
1.85302734375
1.7120361328125
1.6346923828125
1.590380859375
1.5541259765625
1.496923828125
1.4840332031249999
1.474365234375
1.4526123046875
1.43408203125
1.4058837890625
1.3784912109374998
1.3744628906249998
1.4437499999999999
1.4381103515625
1.264892578125
1.2125244140625
1.1802978515625
1.1279296875
1.0916748046875
1.0900634765625
1.1456542968749999
1.2640869140625
1.3430419921874999
1.4147460937499998
1.4977294921875
1.5517089843749998
1.5944091796875
1.62744140625
1.662890625
1.6669189453125
1.6620849609375
1.6765869140624998
1.6935058593749999
1.6201904296874998
1.683837890625
1.8949218749999999
1.899755859375
1.9070068359374999
1.9384277343749998
1.9746826171874998
2.05927734375
1.899755859375
1.7531249999999998
1.6717529296875
1.5895751953125
1.5235107421874998
1.4896728515625
1.4510009765624998
1.442138671875
1.4107177734374998
1.405078125
1.393798828125
1.393798828125
1.3752685546874999
1.3720458984375
1.4638916015624999
1.2898681640624998
1.271337890625
1.229443359375
1.1512939453125
1.1271240234375
1.07958984375
1.147265625
1.2463623046874999
1.3559326171875
1.4219970703125
1.50498046875
1.533984375
1.5565429687499999
1.6040771484374998
1.6524169921874998
1.6798095703125
1.6991455078125
1.6894775390624999
1.6645019531249998
1.662890625
1.5815185546875
1.791796875
1.848193359375
1.8973388671875
1.93681640625
1.9617919921875
2.0431640625
1.931982421875
1.7909912109375
1.7055908203124999
1.5976318359375
1.558154296875
1.5283447265624999
1.5541259765625
1.5186767578125
1.40830078125
1.3712402343749999
1.3712402343749999
1.3728515625
1.38896484375
1.3946044921874998
1.5218994140625
1.348681640625
1.2697265624999998
1.224609375
1.174658203125
1.1222900390625
1.0191650390625
1.0755615234375
1.1939941406249999
1.2995361328125
1.409912109375
1.46953125
1.5122314453124999
1.5895751953125
1.6346923828125
1.6612792968749999
1.6951171875
1.7217041015624999
1.7208984374999998
1.7474853515625
1.7660156249999999
1.574267578125
1.67578125
1.7531249999999998
1.8199951171875
1.9110351562499999
1.9529296875
2.0149658203125
2.01416015625
1.835302734375
1.6773925781249999
1.6024658203125
1.5597656249999998
1.5186767578125
1.4638916015624999
1.4622802734375
1.4501953125
1.4284423828125
1.413134765625
1.3986328124999998
1.4268310546874998
1.464697265625
1.5670166015625
1.448583984375
1.2189697265625
1.1867431640625
1.1480712890625
1.1335693359374999
1.11826171875
1.08603515625
1.1408203125
1.3108154296874999
1.3801025390625
1.4526123046875
1.4816162109375
1.5025634765625
1.5807128906249999
1.6411376953124999
1.667724609375
1.667724609375
1.65966796875
1.683837890625
1.6862548828125
1.561376953125
1.662890625
1.85947265625
1.8546386718749999
1.9231201171874999
2.02060546875
2.0093261718749997
2.0302734375
1.8240234375
1.6927001953124998
1.6250244140624999
1.5662109375
1.509814453125
1.4888671875
1.46953125
1.4389160156249998
1.41796875
1.4316650390624999
1.4010498046875
1.397021484375
1.397021484375
1.4034667968749999
1.4558349609374999
1.2689208984375
1.2415283203124998
1.1980224609374999
1.1367919921875
1.106982421875
1.0465576171875
1.12470703125
1.2181640624999999
1.3043701171875
1.3817138671875
1.4848388671875
1.5364013671874999
1.5831298828125
1.5847412109374999
1.658056640625
1.6749755859375
1.6846435546874998
1.6765869140624998
1.6830322265625
1.6588623046875
1.574267578125
1.796630859375
1.8361083984375
1.8989501953124999
1.9537353515625
1.9537353515625
2.0616943359374997
1.9464843749999998
1.803076171875
1.71123046875
1.6169677734374999
1.5589599609375
1.5315673828124998
1.4872558593749998
1.4445556640625
1.4413330078125
1.44052734375
1.3849365234375
1.3688232421875
1.3712402343749999
1.3849365234375
1.56943359375
1.3124267578125
1.2576416015624998
1.2125244140625
1.164990234375
1.1408203125
1.090869140625
1.1537109374999999
1.216552734375
1.2987304687499999
1.400244140625
1.4888671875
1.53720703125
1.6177734375
1.6363037109374998
1.6242187499999998
1.6411376953124999
1.674169921875
1.6975341796874999
1.7047851562499998
1.732177734375
1.509814453125
1.7716552734375
1.8498046874999998
1.85302734375
1.90458984375
1.948095703125
2.0568603515625
2.0375244140624997
1.8344970703124999
1.7410400390624998
1.6371093749999999
1.56298828125
1.5146484375
1.52109375
1.513037109375
1.4445556640625
1.4010498046875
1.3623779296874998
1.3744628906249998
1.3792968749999999
1.3817138671875
1.522705078125
1.4010498046875
1.2640869140625
1.2205810546875
1.1512939453125
1.1448486328125
1.0973144531249999
1.1142333984375
1.1915771484375
1.3067871093749999
1.3929931640625
1.480810546875
1.529150390625
1.5533203125
1.58232421875
1.5960205078124998
1.6072998046875
1.6346923828125
1.6572509765624999
1.714453125
1.7128417968749998
1.5364013671874999
1.6814208984374999
1.880419921875
1.8844482421875
1.9215087890625
1.9682373046875
1.948095703125
2.09150390625
1.94970703125
1.73056640625
1.6435546875
1.5895751953125
1.5396240234374998
1.5122314453124999
1.4759765624999999
1.3905761718749998
1.3510986328124999
1.3688232421875
1.3704345703124998
1.4074951171874999
1.432470703125
1.4735595703125
1.5476806640624998
1.3672119140624999
1.3059814453124998
1.216552734375
1.132763671875
1.09248046875
1.0159423828125
1.08603515625
1.1802978515625
1.2785888671874999
1.3664062499999998
1.4526123046875
1.5106201171875
1.5541259765625
1.6169677734374999
1.6645019531249998
1.6749755859375
1.69833984375
1.71123046875
1.6927001953124998
1.6806152343749998
1.6201904296874998
1.8304687499999999
1.8344970703124999
1.869140625
1.928759765625
1.9456787109375
2.0842529296875
1.9384277343749998
1.803076171875
1.7208984374999998
1.603271484375
1.5686279296874999
1.5573486328125
1.4872558593749998
1.4228027343749998
1.4373046875
1.4316650390624999
1.380908203125
1.3792968749999999
1.3913818359374999
1.384130859375
1.5847412109374999
1.29228515625
1.2624755859374999
1.2076904296875
1.14404296875
1.1222900390625
1.026416015625
1.11181640625
1.2125244140625
1.297119140625
1.4058837890625
1.482421875
1.5251220703125
1.619384765625
1.6298583984375
1.6250244140624999
1.6290527343749999
1.65966796875
1.6717529296875
1.6733642578124999
1.6669189453125
1.4630859374999998
1.7942138671874999
1.8216064453124998
1.896533203125
1.9537353515625
1.9625976562499998
2.0971435546875
2.0359130859375
1.8296630859374998
1.719287109375
1.6330810546874999
1.59521484375
1.5686279296874999
1.4945068359375
1.456640625
1.3801025390625
1.35673828125
1.3849365234375
1.3986328124999998
1.397021484375
1.4010498046875
1.619384765625
1.397021484375
1.2890625
1.2447509765625
1.1142333984375
1.139208984375
1.0763671875
1.0828125
1.1802978515625
1.30517578125
1.409912109375
1.4711425781249998
1.48564453125
1.5605712890624999
1.6048828124999999
1.6298583984375
1.6604736328124998
1.6564453124999998
1.674169921875
1.67578125
1.6765869140624998
1.458251953125
1.683837890625
1.8344970703124999
1.867529296875
1.9303710937499998
1.973876953125
2.0020751953125
2.109228515625
1.8578613281249998
1.72412109375
1.651611328125
1.59521484375
1.5670166015625
1.5283447265624999
1.5243164062499999
1.493701171875
1.4356933593749999
1.4356933593749999
1.377685546875
1.3962158203125
1.36962890625
1.4276367187499999
1.3865478515624998
1.2334716796875
1.2238037109375
1.1883544921875
1.158544921875
1.1222900390625
1.0078857421875
1.126318359375
1.2568359375
1.3317626953125
1.361572265625
1.442138671875
1.5355957031249998
1.6056884765625
1.6749755859375
1.72412109375
1.6951171875
1.65966796875
1.72412109375
1.73056640625
1.6604736328124998
1.6927001953124998
1.8280517578125
1.812744140625
1.8973388671875
1.9617919921875
1.972265625
2.1438720703125
1.8707519531249999
1.7531249999999998
1.6854492187499999
1.6048828124999999
1.5517089843749998
1.5082031249999999
1.4711425781249998
1.44052734375
1.4139404296875
1.4074951171874999
1.38896484375
1.368017578125
1.3607666015625
1.40185546875
1.561376953125
1.2536132812499998
1.2399169921875
1.1674072265625
1.0417236328125
1.0650878906249999
1.0006347656249999
1.1150390625
1.229443359375
1.30517578125
1.4139404296875
1.4896728515625
1.533984375
1.6072998046875
1.635498046875
1.6443603515624998
1.6636962890625
1.65966796875
1.67900390625
1.690283203125
1.658056640625
1.448583984375
1.8417480468749998
1.867529296875
1.912646484375
1.9464843749999998
1.9907958984374998
2.215576171875
2.0415527343749997
1.786962890625
1.6967285156249998
1.6403320312499998
1.622607421875
1.571044921875
1.44052734375
1.4397216796874999
1.42119140625
1.3712402343749999
1.3502929687499998
1.3736572265625
1.3946044921874998
1.4042724609375
1.72734375
1.3623779296874998
1.30517578125
1.30517578125
1.1537109374999999
1.11181640625
1.02158203125
1.0836181640625
1.1794921875
1.3317626953125
1.4074951171874999
1.480810546875
1.5243164062499999
1.593603515625
1.5968261718749999
1.60166015625
1.593603515625
1.6024658203125
1.66611328125
1.6935058593749999
1.6935058593749999
1.3220947265624998
1.780517578125
1.864306640625
1.92392578125
1.9956298828124999
1.9746826171874998
2.0818359374999997
2.2034912109375
1.8304687499999999
1.6290527343749999
1.4872558593749998
1.554931640625
1.4920898437499999
1.464697265625
1.4630859374999998
1.4397216796874999
1.41796875
1.4195800781249999
1.3873535156249999
1.3857421875
1.3929931640625
1.5960205078124998
1.3253173828125
0.631640625
0.0322265625
0.033837890625
0.3923583984375
0.49790039062499997
0.45842285156249996
0.8225830078124999
1.106982421875
1.2930908203125
1.405078125
1.48564453125
1.5831298828125
1.6653076171874999
1.7120361328125
1.7337890624999999
1.7555419921875
1.767626953125
1.7926025390625
1.7958251953125
1.3857421875
1.6234130859375
2.0761962890625
2.03671875
2.101171875
2.176904296875
2.2695556640625
2.8617187499999996
2.1648193359375
1.8256347656249998
1.7096191406249999
1.651611328125
1.5960205078124998
1.5726562499999999
1.55009765625
1.5275390624999998
1.4767822265625
1.4719482421874999
1.461474609375
1.4381103515625
1.448583984375
1.7345947265625
2.086669921875
1.264892578125
1.229443359375
1.1770751953125
1.0892578124999999
1.0272216796875
0.6662841796875
0.8950927734374999
1.2101074218749999
1.3849365234375
1.4687255859375
1.5267333984375
1.5621826171875
1.6612792968749999
1.714453125
1.706396484375
1.7088134765624998
1.7104248046875
1.72412109375
1.7120361328125
1.3317626953125
0.9353759765624999
1.993212890625
1.972265625
2.0302734375
2.1076171875
2.0665283203125
2.96162109375
2.4032958984375
1.7829345703125
1.5702392578125
1.554931640625
1.5057861328125
1.5243164062499999
1.4711425781249998
1.4332763671875
1.3929931640625
1.38896484375
1.3881591796875
1.4123291015625
1.38896484375
1.3857421875
2.6562744140624996
1.3946044921874998
1.147265625
1.1239013671875
1.0119140625
0.9998291015624999
0.533349609375
0.6840087890625
1.0505859375
1.38896484375
1.4187744140624998
1.5364013671874999
1.5517089843749998
1.5992431640625
1.6000488281249998
1.6781982421875
1.687060546875
1.69189453125
1.7055908203124999
1.7088134765624998
1.6636962890625
0.3029296875
1.641943359375
2.0052978515624997
2.035107421875
2.1825439453124997
2.1342041015624997
2.5894042968749997
2.874609375
2.0665283203125
1.5484863281249999
1.4598632812499999
1.4687255859375
1.5146484375
1.4445556640625
1.4115234374999999
1.37607421875
1.3825195312499998
1.3986328124999998
1.4107177734374998
1.4316650390624999
1.3962158203125
2.183349609375
1.4687255859375
1.0997314453125
1.103759765625
1.029638671875
1.00224609375
0.791162109375
0.58974609375
0.9788818359375
1.2858398437499998
1.4034667968749999
1.4542236328125
1.458251953125
1.5847412109374999
1.6024658203125
1.6693359374999999
1.6693359374999999
1.6564453124999998
1.7152587890625
1.7724609375
1.7345947265625
0.8306396484374999
1.6564453124999998
2.1213134765625
2.0085205078125
2.0520263671875
2.1205078125
2.23330078125
3.0381591796875
2.0262451171875
1.6556396484375
1.5364013671874999
1.490478515625
1.4630859374999998
1.44052734375
1.445361328125
1.4236083984374999
1.3728515625
1.4034667968749999
1.38896484375
1.327734375
1.33740234375
2.0616943359374997
2.064111328125
1.171435546875
1.103759765625
1.03447265625
0.9289306640624999
0.8580322265625
0.507568359375
0.7798828124999999
1.1698242187499999
1.3897705078125
1.4671142578124998
1.4993408203124998
1.5380126953125
1.6371093749999999
1.658056640625
1.7104248046875
1.6927001953124998
1.6830322265625
1.6991455078125
1.6878662109375
0.8958984375
0.8765624999999999
2.03671875
2.028662109375
2.08505859375
2.1760986328125
2.147900390625
3.0381591796875
2.3879882812499997
1.7039794921875
1.474365234375
1.4413330078125
1.4518066406249999
1.5001464843749999
1.458251953125
1.416357421875
1.3994384765624999
1.400244140625
1.4606689453125
1.4735595703125
1.3543212890624998
1.3172607421875
2.9447021484375
1.3309570312499999
1.0723388671875
1.0256103515625
0.91845703125
0.8314453125
0.2135009765625
0.41733398437499997
0.9998291015624999
1.4437499999999999
1.525927734375
1.5637939453124998
1.5597656249999998
1.6564453124999998
1.67900390625
1.6894775390624999
1.66611328125
1.6395263671875
1.4115234374999999
1.068310546875
0.7798828124999999
0.03544921875
0.0322265625
0.030615234374999998
0.02900390625
0.033032226562499996
0.033032226562499996
0.033032226562499996
2.4814453125
3.0389648437499996
3.0405761718749997
3.034130859375
3.0349365234374996
3.0357421875
3.0325195312499997
3.0365478515624997
3.0357421875
3.0357421875
3.0309082031249996
3.0357421875
3.0357421875
3.0365478515624997
3.034130859375
3.0357421875
3.0349365234374996
3.0333251953125
3.0349365234374996
3.0357421875
1.667724609375
0.0281982421875
0.0314208984375
0.0346435546875
0.033032226562499996
0.027392578124999997
0.0346435546875
0.0322265625
0.0298095703125
0.033032226562499996
0.033032226562499996
0.033837890625
0.033837890625
0.0346435546875
0.033032226562499996
0.0298095703125
0.033837890625
0.0362548828125
0.033837890625
0.033837890625
0.033837890625
0.0314208984375
0.033837890625
2.9664550781249996
3.0357421875
3.0365478515624997
3.034130859375
3.0357421875
3.0389648437499996
3.0333251953125
3.0405761718749997
3.0357421875
3.0365478515624997
3.0365478515624997
3.0357421875
3.0381591796875
3.037353515625
3.0357421875
3.0389648437499996
3.0357421875
3.0365478515624997
3.0389648437499996
3.0381591796875
0.0443115234375
0.033837890625
0.033032226562499996
0.0346435546875
0.033837890625
0.0298095703125
0.033032226562499996
0.033032226562499996
0.033837890625
0.033032226562499996
0.0346435546875
0.033032226562499996
0.033837890625
0.056396484375
0.033032226562499996
0.033837890625
0.033837890625
0.033837890625
0.0362548828125
0.03544921875
0.033837890625
0.033032226562499996
2.4194091796875
3.0405761718749997
3.0349365234374996
3.0389648437499996
3.0357421875
3.0357421875
3.037353515625
3.0365478515624997
3.0397705078125
3.0357421875
3.0389648437499996
3.0357421875
3.0365478515624997
3.037353515625
3.037353515625
3.0365478515624997
3.037353515625
3.0333251953125
3.034130859375
3.0357421875
0.5687988281249999
0.0346435546875
0.033032226562499996
0.0298095703125
0.0346435546875
0.030615234374999998
0.0322265625
0.033032226562499996
0.0378662109375
0.0378662109375
0.033837890625
0.033837890625
0.0322265625
0.10957031249999999
0.08217773437499999
0.0362548828125
0.0362548828125
0.0362548828125
0.033032226562499996
0.033837890625
0.038671874999999994
0.0298095703125
0.1957763671875
3.0349365234374996
3.0413818359375
3.0357421875
3.0365478515624997
3.0389648437499996
3.0365478515624997
3.0349365234374996
3.0357421875
3.034130859375
3.037353515625
3.0317138671875
3.0309082031249996
3.0333251953125
3.0365478515624997
3.0381591796875
3.0349365234374996
3.0333251953125
3.0325195312499997
3.0333251953125
2.9350341796875
0.14824218749999998
0.033837890625
0.033032226562499996
0.033837890625
0.033837890625
0.0378662109375
0.033837890625
0.0378662109375
0.0281982421875
0.037060546874999996
0.033837890625
0.033032226562499996
0.1071533203125
0.1200439453125
0.02900390625
0.033837890625
0.037060546874999996
0.033032226562499996
0.0322265625
0.033032226562499996
0.0281982421875
0.0346435546875
2.7626220703124997
3.037353515625
3.0365478515624997
3.037353515625
3.037353515625
3.0333251953125
3.0309082031249996
3.0333251953125
3.037353515625
3.037353515625
3.0365478515624997
3.0381591796875
3.0365478515624997
3.0349365234374996
3.0365478515624997
3.0365478515624997
3.034130859375
3.0301025390625
3.0333251953125
3.0397705078125
0.43344726562499997
0.033032226562499996
0.033837890625
0.033032226562499996
0.0322265625
0.0362548828125
0.033032226562499996
0.03544921875
0.033032226562499996
0.02900390625
0.027392578124999997
0.033032226562499996
0.054785156249999994
0.1200439453125
0.12890625
0.033032226562499996
0.033032226562499996
0.033837890625
0.0314208984375
0.0322265625
0.033032226562499996
0.037060546874999996
2.2494140625
3.0397705078125
3.0349365234374996
3.0413818359375
3.0365478515624997
3.037353515625
3.0365478515624997
3.0357421875
3.0349365234374996
3.0317138671875
3.037353515625
3.0349365234374996
3.0357421875
3.0365478515624997
3.0357421875
3.0357421875
3.0397705078125
3.0357421875
3.0333251953125
3.0301025390625
2.1060058593749997
0.0314208984375
0.0314208984375
0.033032226562499996
0.0346435546875
0.0346435546875
0.033837890625
0.033837890625
0.03544921875
0.0346435546875
0.02900390625
0.037060546874999996
0.037060546874999996
0.0926513671875
0.107958984375
0.0346435546875
0.0298095703125
0.0378662109375
0.033837890625
0.033032226562499996
0.0346435546875
0.03544921875
0.0346435546875
3.0252685546875
3.0333251953125
3.0381591796875
3.0365478515624997
3.034130859375
3.0349365234374996
3.037353515625
3.0333251953125
3.0317138671875
3.0357421875
3.037353515625
3.034130859375
3.0365478515624997
3.034130859375
3.034130859375
3.0389648437499996
3.0357421875
3.0325195312499997
3.0325195312499997
3.0421875
0.175634765625
0.0362548828125
0.033837890625
0.0314208984375
0.03544921875
0.0378662109375
0.033837890625
0.0362548828125
0.033032226562499996
0.0378662109375
0.038671874999999994
0.207861328125
0.5285156249999999
0.7081787109375
0.7935791015625
0.02900390625
0.033032226562499996
0.03544921875
0.0314208984375
0.033032226562499996
0.0298095703125
0.9128173828124999
3.0357421875
3.0357421875
3.037353515625
3.0389648437499996
3.037353515625
3.0357421875
3.034130859375
3.0397705078125
3.0349365234374996
3.0381591796875
3.034130859375
3.0357421875
3.0357421875
3.037353515625
3.034130859375
3.037353515625
3.0389648437499996
3.0325195312499997
3.0325195312499997
3.0349365234374996
0.033032226562499996
0.037060546874999996
0.033837890625
0.033032226562499996
0.033032226562499996
0.033032226562499996
0.033837890625
0.0362548828125
0.033032226562499996
0.027392578124999997
0.0717041015625
0.1635498046875
0.3601318359375
0.5687988281249999
0.6872314453124999
0.037060546874999996
0.0314208984375
0.033837890625
0.033032226562499996
0.033032226562499996
0.0322265625
0.0346435546875
3.0365478515624997
3.034130859375
3.0349365234374996
3.0333251953125
3.0349365234374996
3.0333251953125
3.037353515625
3.0333251953125
3.0365478515624997
3.0365478515624997
3.0349365234374996
3.034130859375
3.0357421875
2.9479248046874997
3.0365478515624997
3.0365478515624997
3.037353515625
3.0309082031249996
3.0357421875
3.0349365234374996
2.07216796875
0.037060546874999996
0.02900390625
0.0322265625
0.033837890625
0.030615234374999998
0.0346435546875
0.0314208984375
0.026586914062499998
0.0314208984375
0.0378662109375
0.030615234374999998
0.16838378906249998
0.34885253906249997
0.47373046874999997
0.033032226562499996
0.033032226562499996
0.027392578124999997
0.0322265625
0.037060546874999996
0.0346435546875
0.0322265625
3.0349365234374996
3.0325195312499997
3.0365478515624997
3.0301025390625
3.037353515625
3.037353515625
3.037353515625
3.037353515625
3.0309082031249996
3.0325195312499997
3.0325195312499997
3.0349365234374996
3.0365478515624997
3.027685546875
3.0325195312499997
3.0357421875
3.0349365234374996
3.034130859375
3.0365478515624997
3.037353515625
3.005126953125
0.0322265625
0.033032226562499996
0.0362548828125
0.0298095703125
0.0314208984375
0.0314208984375
0.033032226562499996
0.0322265625
0.033032226562499996
0.033837890625
0.033837890625
0.0797607421875
0.22478027343749998
0.3923583984375
0.46164550781249997
0.0322265625
0.033837890625
0.0346435546875
0.037060546874999996
0.033032226562499996
0.0322265625
0.033837890625
3.0333251953125
3.0309082031249996
3.034130859375
3.034130859375
3.0397705078125
3.0333251953125
3.0325195312499997
3.0365478515624997
3.0357421875
3.0365478515624997
3.0365478515624997
3.0333251953125
3.0365478515624997
2.953564453125
3.0357421875
3.0389648437499996
3.0397705078125
3.0357421875
3.0397705078125
3.0357421875
0.033032226562499996
0.0362548828125
0.033837890625
0.033032226562499996
0.0362548828125
0.0378662109375
0.033032226562499996
0.0322265625
0.033032226562499996
0.0322265625
0.0281982421875
0.0322265625
0.141796875
0.3117919921875
0.36577148437499996
0.033837890625
0.033837890625
0.033032226562499996
0.033032226562499996
0.0281982421875
0.0298095703125
0.037060546874999996
3.0365478515624997
3.0389648437499996
3.0357421875
3.034130859375
3.0309082031249996
3.034130859375
3.0349365234374996
3.0325195312499997
3.0357421875
3.0357421875
3.0325195312499997
3.0357421875
3.029296875
2.9841796874999997
3.0325195312499997
3.0365478515624997
3.0365478515624997
3.0365478515624997
3.0317138671875
3.043798828125
2.1309814453125
0.033032226562499996
0.033032226562499996
0.033032226562499996
0.033032226562499996
0.033032226562499996
0.0314208984375
0.03544921875
0.033032226562499996
0.033837890625
0.027392578124999997
0.0346435546875
0.09748535156249999
0.2586181640625
0.343212890625
0.0362548828125
0.0322265625
0.0314208984375
0.0298095703125
0.0314208984375
0.033032226562499996
0.03544921875
3.037353515625
3.0317138671875
3.034130859375
3.034130859375
3.0365478515624997
3.0349365234374996
3.0357421875
3.0365478515624997
3.0365478515624997
3.0349365234374996
3.0317138671875
3.0357421875
3.0325195312499997
3.0349365234374996
2.9624267578124996
3.0357421875
3.0349365234374996
3.034130859375
3.0309082031249996
0.0322265625
0.038671874999999994
0.030615234374999998
0.027392578124999997
1.1190673828125
1.690283203125
1.142431640625
0.829833984375
0.7597412109374999
0.9933837890624999
1.11826171875
1.2858398437499998
1.335791015625
1.248779296875
1.2576416015624998
1.3398193359375
1.329345703125
0.0322265625
1.5517089843749998
1.98837890625
1.96904296875
2.0496093749999997
1.9779052734375
2.7166992187499996
2.9583984374999996
1.7120361328125
1.1142333984375
1.1738525390624999
1.2141357421874999
1.3446533203125
1.3100097656249998
1.3212890625
1.3019531249999998
1.2592529296875
1.2455566406249998
1.2528076171875
1.2536132812499998
1.2560302734375
2.6111572265625
1.400244140625
0.8741455078125
0.9498779296875
0.8427246093749999
0.8467529296874999
0.53818359375
0.39799804687499996
0.84755859375
1.29228515625
1.4622802734375
1.4888671875
1.4252197265625
1.6137451171875
1.6242187499999998
1.6935058593749999
1.6749755859375
1.6588623046875
1.6693359374999999
1.7176757812499999
1.690283203125
0.15629882812499998
1.6081054687499998
2.2179931640625
2.0633056640625
2.1438720703125
2.189794921875
2.3823486328125
3.0349365234374996
1.9110351562499999
1.458251953125
1.3768798828125
1.426025390625
1.4687255859375
1.4751708984374998
1.48564453125
1.4139404296875
1.335791015625
1.3865478515624998
1.3656005859375
1.340625
1.3801025390625
1.377685546875
2.1583740234374997
1.0376953125
0.9418212890625
0.952294921875
0.9031494140624999
0.81533203125
0.4447265625
0.6501708984375
1.200439453125
1.496923828125
1.533984375
1.525927734375
1.5919921874999998
1.66611328125
1.6346923828125
1.7249267578124998
1.714453125
1.7096191406249999
1.7072021484375
1.6935058593749999
0.5438232421875
0.71865234375
2.1567626953125
2.1632080078125
2.1060058593749997
2.1922119140625
2.1140624999999997
3.0389648437499996
2.3638183593749997
1.6250244140624999
1.4219970703125
1.4219970703125
1.509814453125
1.5331787109375
1.4397216796874999
1.3768798828125
1.3929931640625
1.36962890625
1.3784912109374998
1.3656005859375
1.368017578125
1.384130859375
3.0284912109374997
1.2640869140625
0.9990234375
1.02802734375
0.9353759765624999
0.8451416015625
0.1119873046875
0.47775878906249997
0.9982177734375
1.4953124999999998
1.5355957031249998
1.561376953125
1.5517089843749998
1.6814208984374999
1.7345947265625
1.7523193359375
1.69833984375
1.6822265625
1.706396484375
1.7152587890625
1.6927001953124998
0.037060546874999996
1.8667236328124999
2.1809326171875
2.165625
2.241357421875
2.2002685546875
3.0365478515624997
2.8689697265625
1.780517578125
1.3736572265625
1.4284423828125
1.4671142578124998
1.5162597656249999
1.4703369140625
1.4501953125
1.3664062499999998
1.3672119140624999
1.397021484375
1.397021484375
1.364794921875
1.3631835937499999
2.98740234375
1.348681640625
0.984521484375
0.9756591796874999
0.8741455078125
0.9434326171874999
0.46728515625
0.451171875
0.920068359375
1.3736572265625
1.5670166015625
1.5863525390625
1.513037109375
1.716064453125
1.7313720703125
1.7539306640624999
1.6927001953124998
1.7184814453125
1.7217041015624999
1.69833984375
1.6669189453125
0.0322265625
1.7579589843749999
2.2872802734374997
2.1164794921875
2.1978515625
2.2647216796875
2.4967529296874997
3.0357421875
1.85302734375
1.4155517578124999
1.340625
1.397021484375
1.542041015625
1.4316650390624999
1.456640625
1.377685546875
1.3333740234375
1.380908203125
1.3792968749999999
1.3494873046875
1.384130859375
1.46953125
2.080224609375
0.9917724609374999
0.8983154296875
0.8709228515624999
0.8451416015625
0.7154296874999999
0.38671875
0.652587890625
1.2447509765625
1.5637939453124998
1.590380859375
1.5460693359375
1.606494140625
1.6564453124999998
1.60166015625
1.754736328125
1.73056640625
1.7080078125
1.7418457031249999
1.722509765625
1.6330810546874999
0.85400390625
2.3275634765624997
2.27841796875
2.27841796875
2.2921142578125
2.2405517578125
3.034130859375
2.2228271484374997
1.3986328124999998
1.2044677734375
1.3285400390625
1.380908203125
1.506591796875
1.5001464843749999
1.3527099609375
1.41796875
1.353515625
1.3543212890624998
1.3446533203125
1.3543212890624998
1.3672119140624999
3.0421875
1.224609375
0.8765624999999999
0.8854248046875
0.7057617187499999
0.8241943359374999
0.0322265625
0.1635498046875
0.945849609375
1.7619873046874999
1.8361083984375
1.7595703125
1.55009765625
1.3317626953125
1.0449462890624999
0.7822998046874999
1.1375976562499999
1.2536132812499998
1.4598632812499999
1.6508056640625
1.7845458984375
0.037060546874999996
0.0314208984375
0.6509765624999999
1.9537353515625
3.0349365234374996
3.0349365234374996
3.034130859375
3.0397705078125
3.034130859375
3.0389648437499996
2.167236328125
1.3720458984375
1.0288330078124999
0.34482421874999997
0.1796630859375
0.0298095703125
0.0829833984375
0.28681640625
0.5067626953125
0.6735351562499999
1.02158203125
3.0486328124999997
3.0365478515624997
3.0405761718749997
2.5193115234374996
1.4026611328124998
0.3311279296875
0.033837890625
0.0362548828125
0.0322265625
0.0322265625
0.7774658203125
1.585546875
2.1003662109375
3.0365478515624997
3.034130859375
3.0349365234374996
3.0309082031249996
3.003515625
2.827880859375
2.689306640625
2.325146484375
0.023364257812499997
0.0322265625
0.030615234374999998
0.39396972656249996
1.7732666015624998
3.034130859375
3.0317138671875
3.0349365234374996
3.0349365234374996
3.037353515625
3.0357421875
2.4484130859374997
1.8747802734374999
1.0771728515624999
0.8080810546874999
0.9716308593749999
0.033032226562499996
0.02900390625
0.0346435546875
0.08137207031249999
0.22236328125
1.9787109374999998
3.0357421875
3.0357421875
2.8166015625
2.325146484375
0.36577148437499996
0.0346435546875
0.0298095703125
0.033837890625
0.033032226562499996
0.069287109375
0.9313476562499999
1.7176757812499999
2.431494140625
2.98095703125
3.0333251953125
3.034130859375
3.0357421875
2.9712890625
2.7755126953125
2.5112548828124996
1.00224609375
0.0378662109375
0.033032226562499996
0.0314208984375
0.9152343749999999
2.2308837890624997
3.0325195312499997
3.0349365234374996
3.0325195312499997
3.0357421875
3.0381591796875
2.6764160156249996
1.928759765625
1.53076171875
0.9756591796874999
0.5035400390625
0.033032226562499996
0.0322265625
0.0281982421875
0.11279296875
0.165966796875
0.31743164062499996
3.0357421875
3.037353515625
3.037353515625
2.338037109375
0.9402099609375
0.033837890625
0.0378662109375
0.033837890625
0.033837890625
0.0378662109375
0.6920654296875
1.674169921875
2.1076171875
2.7046142578124996
3.0349365234374996
3.0357421875
3.034130859375
2.9559814453124997
2.745703125
2.5088378906249997
2.180126953125
0.033837890625
0.0322265625
0.037060546874999996
0.8258056640625
2.3614013671875
3.0357421875
3.0349365234374996
3.0357421875
3.0317138671875
3.037353515625
2.4822509765625
1.4606689453125
0.968408203125
0.346435546875
0.0314208984375
0.0281982421875
0.0346435546875
0.12246093749999999
0.36174316406249996
0.515625
0.71220703125
3.034130859375
3.0357421875
2.4822509765625
1.7893798828124998
0.0322265625
0.033837890625
0.0298095703125
0.033837890625
0.030615234374999998
0.95068359375
2.2083251953125
3.037353515625
3.0357421875
3.0357421875
2.9100585937499996
2.8367431640625
2.3291748046875
1.89169921875
1.4759765624999999
1.2890625
1.095703125
0.033837890625
0.033032226562499996
2.47177734375
3.0381591796875
3.0365478515624997
3.0397705078125
3.0365478515624997
3.0381591796875
0.439892578125
0.033837890625
0.2570068359375
1.03447265625
1.3494873046875
1.41796875
1.368017578125
1.448583984375
1.1706298828125
1.1794921875
1.281005859375
1.2745605468749999
1.255224609375
2.1382324218749997
2.4548583984375
0.9369873046874999
0.7951904296875
0.84111328125
0.7387939453125
0.7339599609374999
0.1353515625
0.53818359375
1.1617675781249999
1.5347900390625
1.546875
1.5275390624999998
1.5484863281249999
1.6459716796875
1.735400390625
1.69833984375
1.687060546875
1.6781982421875
1.6951171875
1.6886718749999998
1.0812011718749999
0.468896484375
2.1382324218749997
2.16884765625
2.1301757812499997
2.1543457031249997
2.109228515625
3.034130859375
2.5072265624999996
1.6346923828125
1.4010498046875
1.4203857421875
1.4735595703125
1.5364013671874999
1.448583984375
1.3913818359374999
1.3752685546874999
1.3744628906249998
1.3897705078125
1.3688232421875
1.353515625
1.3631835937499999
2.9390625
1.3607666015625
1.044140625
1.0409179687499999
0.952294921875
0.9796874999999999
0.343212890625
0.64453125
1.1456542968749999
1.3921875
1.4630859374999998
1.5106201171875
1.533984375
1.641943359375
1.65966796875
1.7909912109375
1.7652099609374998
1.7023681640625
1.6886718749999998
1.71123046875
1.6822265625
0.3552978515625
1.996435546875
2.028662109375
2.0036865234375
2.1720703125
2.0600830078125
2.4564697265624997
2.72314453125
1.7587646484375
1.5839355468749998
1.5637939453124998
1.522705078125
1.5275390624999998
1.4655029296875
1.4477783203124999
1.3720458984375
1.3881591796875
1.3801025390625
1.3946044921874998
1.3712402343749999
1.3720458984375
2.0052978515624997
1.3768798828125
1.11826171875
1.1706298828125
1.05380859375
1.0119140625
0.8677001953125
0.833056640625
1.0336669921875
1.284228515625
1.3857421875
1.4598632812499999
1.4767822265625
1.590380859375
1.6218017578125
1.6612792968749999
1.67578125
1.6693359374999999
1.6814208984374999
1.6991455078125
1.6733642578124999
1.1190673828125
1.62744140625
1.9795166015624999
1.9078125
2.0471923828125
2.07216796875
2.1632080078125
2.70380859375
1.973876953125
1.7080078125
1.6161621093749998
2.9841796874999997
3.0357421875
2.193017578125
1.5557373046874998
1.4953124999999998
1.3946044921874998
1.3333740234375
1.3188720703124999
1.300341796875
1.2963134765625
1.4767822265625
1.4236083984374999
1.1093994140624999
1.1351806640625
1.0731445312499999
1.03447265625
1.00546875
0.8934814453125
1.0449462890624999
1.3108154296874999
1.35673828125
1.3849365234375
1.5146484375
1.496923828125
1.5283447265624999
1.5525146484374999
1.5686279296874999
1.5976318359375
1.5984375
1.6008544921874999
1.606494140625
1.4679199218749999
1.47275390625
1.8167724609375
1.8119384765625
1.869140625
1.9215087890625
1.91748046875
2.1624023437499997
1.912646484375
1.7265380859375
1.6298583984375
1.5686279296874999
1.5218994140625
1.480810546875
1.4284423828125
1.4091064453125
1.4058837890625
1.3784912109374998
1.405078125
1.3792968749999999
1.36962890625
1.40830078125
1.67900390625
1.2334716796875
1.235888671875
1.2076904296875
1.1512939453125
1.1077880859375
0.9877441406249999
1.0675048828125
1.2463623046874999
1.3398193359375
1.3994384765624999
1.458251953125
1.5154541015624998
1.5662109375
1.6048828124999999
1.7184814453125
1.6451660156249999
1.638720703125
1.6959228515625
1.690283203125
1.6669189453125
1.4074951171874999
1.8344970703124999
1.8425537109374999
1.8981445312499998
1.9529296875
1.9762939453125
2.0794189453125
2.0858642578124997
1.8361083984375
1.7370117187499998
1.65966796875
1.6169677734374999
1.5267333984375
1.456640625
1.4477783203124999
1.426025390625
1.4284423828125
1.429248046875
1.38896484375
1.3784912109374998
1.36962890625
1.5484863281249999
1.3188720703124999
1.2479736328125
1.2205810546875
1.148876953125
1.110205078125
1.0771728515624999
1.1110107421875
1.1915771484375
1.2769775390625
1.3583496093749998
1.4332763671875
1.4896728515625
1.5565429687499999
1.5863525390625
1.6250244140624999
1.641943359375
1.6508056640625
1.6620849609375
1.6669189453125
1.6693359374999999
1.5275390624999998
1.7257324218749999
1.84013671875
1.8578613281249998
1.960986328125
2.0085205078125
2.006103515625
2.1148681640625
1.867529296875
1.7660156249999999
1.687060546875
1.587158203125
1.5275390624999998
1.4864501953125
1.4445556640625
1.4228027343749998
1.432470703125
1.5106201171875
1.456640625
1.4284423828125
1.4147460937499998
1.5202880859374999
1.4993408203124998
1.3156494140625
1.235888671875
1.1939941406249999
1.1408203125
1.0755615234375
1.0546142578125
1.1351806640625
1.252001953125
1.3478759765625
1.4228027343749998
1.4816162109375
1.5114257812499998
1.5807128906249999
1.5992431640625
1.6322753906249998
1.65
1.6532226562499999
1.6612792968749999
1.6733642578124999
1.56298828125
1.6056884765625
1.8135498046874998
1.8506103515624999
1.9118408203125
1.9666259765624998
1.9698486328125
2.0858642578124997
1.931982421875
1.783740234375
1.6765869140624998
1.6072998046875
1.5484863281249999
1.506591796875
1.4445556640625
1.41796875
1.4228027343749998
1.4026611328124998
1.400244140625
1.3921875
1.442138671875
1.4195800781249999
1.58232421875
1.34384765625
1.2624755859374999
1.2012451171875
1.1464599609375
1.1013427734374999
1.0376953125
1.1093994140624999
1.213330078125
1.3309570312499999
1.3978271484375
1.45341796875
1.5251220703125
1.5799072265624998
1.6000488281249998
1.6250244140624999
1.64677734375
1.6564453124999998
1.66611328125
1.6814208984374999
1.67900390625
1.52109375
1.8087158203125
1.8731689453125
1.9078125
1.9779052734375
1.9787109374999998
2.075390625
2.0093261718749997
1.799853515625
1.7120361328125
1.6371093749999999
1.5670166015625
1.5186767578125
1.4703369140625
1.4389160156249998
1.4228027343749998
1.4139404296875
1.405078125
1.3954101562499999
1.38896484375
1.3849365234375
1.5057861328125
1.327734375
1.26328125
1.2262207031249999
1.1537109374999999
1.1400146484375
1.0787841796875
1.1029541015625
1.1980224609374999
1.3019531249999998
1.4518066406249999
1.4953124999999998
1.5283447265624999
1.5807128906249999
1.6048828124999999
1.635498046875
1.6588623046875
1.6636962890625
1.6725585937499998
1.6693359374999999
1.6669189453125
1.53076171875
1.7458740234374999
1.8248291015625
1.869140625
1.9472900390624999
1.9682373046875
1.9972412109375
2.0697509765624997
1.8312744140625
1.7418457031249999
1.6540283203125
1.5702392578125
1.5194824218749998
1.4848388671875
1.4501953125
1.4244140625
1.4026611328124998
1.3986328124999998
1.3881591796875
1.3865478515624998
1.38896484375
1.4928955078125
1.4107177734374998
1.2850341796875
1.2431396484375
1.1786865234375
1.1335693359374999
1.103759765625
1.0973144531249999
1.1537109374999999
1.252001953125
1.3414306640625
1.4332763671875
1.4896728515625
1.5364013671874999
1.59521484375
1.6250244140624999
1.6532226562499999
1.6588623046875
1.6733642578124999
1.6830322265625
1.6806152343749998
1.5718505859374998
1.6443603515624998
1.819189453125
1.8489990234375
1.931982421875
1.9706542968749998
1.9811279296875
2.0890869140625
1.9279541015625
1.8216064453124998
1.7200927734375
1.6089111328124999
1.5412353515625
1.4961181640624999
1.442138671875
1.4284423828125
1.4155517578124999
1.4034667968749999
1.3921875
1.3873535156249999
1.3865478515624998
1.3921875
1.49853515625
1.3075927734375
1.2528076171875
1.2060791015624999
1.152099609375
1.1126220703125
1.0570312499999999
1.1255126953124999
1.2101074218749999
1.3398193359375
1.4074951171874999
1.4759765624999999
1.5428466796875
1.5944091796875
1.6129394531249999
1.641943359375
1.6653076171874999
1.6773925781249999
1.6975341796874999
1.6935058593749999
1.67900390625
1.5533203125
1.7781005859374999
1.8425537109374999
1.899755859375
1.9521240234375
1.9698486328125
2.05283203125
1.998046875
1.8409423828125
1.7055908203124999
1.635498046875
1.5734619140625
1.5122314453124999
1.4783935546875
1.456640625
1.4147460937499998
1.4074951171874999
1.4058837890625
1.3921875
1.3929931640625
1.3921875
1.5331787109375
1.32451171875
1.2721435546875
1.2221923828124999
1.1577392578124999
1.1239013671875
1.07958984375
1.106982421875
1.2076904296875
1.3019531249999998
1.3752685546874999
1.4413330078125
1.513037109375
1.574267578125
1.5960205078124998
1.6403320312499998
1.6556396484375
1.662890625
1.6669189453125
1.6862548828125
1.6773925781249999
1.5557373046874998
1.764404296875
1.8280517578125
1.8715576171875
1.9327880859375
1.973876953125
2.0069091796875
2.05927734375
1.8570556640625
1.74345703125
1.667724609375
1.56943359375
1.5299560546875
1.4864501953125
1.4493896484375
1.42119140625
1.40830078125
1.3994384765624999
1.3873535156249999
1.3905761718749998
1.3913818359374999
1.5041748046874999
1.3921875
1.2826171874999999
1.2431396484375
1.164990234375
1.1351806640625
1.1061767578125
1.100537109375
1.1657958984374999
1.2608642578125
1.3494873046875
1.4364990234375
1.5009521484375
1.545263671875
1.590380859375
1.6322753906249998
1.65
1.6588623046875
1.6717529296875
1.6822265625
1.6781982421875
1.6540283203125
1.6781982421875
1.819189453125
1.85625
1.93359375
1.964208984375
1.9859619140625
2.0625
1.9118408203125
1.7861572265624999
1.706396484375
1.5968261718749999
1.5517089843749998
1.49853515625
1.4518066406249999
1.43408203125
1.4115234374999999
1.4034667968749999
1.3897705078125
1.3946044921874998
1.3905761718749998
1.4066894531249998
1.4759765624999999
1.3019531249999998
1.24716796875
1.1915771484375
1.1496826171874999
1.13115234375
1.1448486328125
1.2705322265624999
1.2906738281249999
1.3599609375
1.4203857421875
1.4791992187499998
1.5251220703125
1.577490234375
1.6234130859375
1.6379150390625
1.658056640625
1.667724609375
1.6669189453125
1.674169921875
1.6564453124999998
1.574267578125
1.780517578125
1.8409423828125
1.9021728515624998
1.9432617187499999
1.9634033203124999
2.0616943359374997
1.98515625
1.8264404296874999
1.7055908203124999
1.619384765625
1.5662109375
1.5025634765625
1.4719482421874999
1.4364990234375
1.4187744140624998
1.3962158203125
1.3905761718749998
1.3825195312499998
1.3881591796875
1.3905761718749998
1.5218994140625
1.3083984375
1.264892578125
1.213330078125
1.1545166015625
1.126318359375
1.0731445312499999
1.123095703125
1.216552734375
1.3148437499999999
1.3833251953124999
1.442138671875
1.5186767578125
1.5637939453124998
1.6024658203125
1.6451660156249999
1.654833984375
1.6693359374999999
1.6806152343749998
1.6822265625
1.6781982421875
1.5517089843749998
1.7732666015624998
1.828857421875
1.8828369140624999
1.931982421875
1.9625976562499998
2.00771484375
2.044775390625
1.844970703125
1.7426513671875
1.6636962890625
1.5670166015625
1.522705078125
1.4816162109375
1.4542236328125
1.4228027343749998
1.405078125
1.4026611328124998
1.3825195312499998
1.38896484375
1.3873535156249999
1.5073974609374998
1.3623779296874998
1.2689208984375
1.239111328125
1.1641845703125
1.1375976562499999
1.1134277343749999
1.110205078125
1.1778808593749999
1.27294921875
1.351904296875
1.4413330078125
1.4993408203124998
1.558154296875
1.5992431640625
1.638720703125
1.6540283203125
1.667724609375
1.67578125
1.6749755859375
1.687060546875
1.56298828125
1.7047851562499998
1.8199951171875
1.851416015625
1.9400390625
1.9545410156249998
1.9859619140625
2.0496093749999997
1.89169921875
1.780517578125
1.7426513671875
1.593603515625
1.5428466796875
1.5041748046874999
1.4606689453125
1.4397216796874999
1.4042724609375
1.3962158203125
1.3873535156249999
1.3913818359374999
1.397021484375
1.4308593749999998
1.4574462890625
1.29228515625
1.2479736328125
1.1883544921875
1.1496826171874999
1.1134277343749999
1.0755615234375
1.1384033203125
1.2415283203124998
1.3494873046875
1.4139404296875
1.482421875
1.5565429687499999
1.5960205078124998
1.6290527343749999
1.6443603515624998
1.6653076171874999
1.6773925781249999
1.67578125
1.6814208984374999
1.6483886718749998
1.6008544921874999
1.7990478515625
1.8489990234375
1.9118408203125
1.95615234375
1.9811279296875
2.0600830078125
1.972265625
1.82724609375
1.7055908203124999
1.6185791015625
1.5637939453124998
1.5001464843749999
1.4671142578124998
1.44052734375
1.40830078125
1.4058837890625
1.3897705078125
1.397021484375
1.3921875
1.3946044921874998
1.5138427734375
1.3075927734375
1.2673095703125
1.206884765625
1.142431640625
1.1319580078125
1.0691162109374999
1.1206787109375
1.2310546875
1.31162109375
1.3865478515624998
1.4703369140625
1.5170654296875
1.5750732421875
1.6024658203125
1.6483886718749998
1.6564453124999998
1.6612792968749999
1.6822265625
1.6806152343749998
1.6773925781249999
1.5460693359375
1.786962890625
1.835302734375
1.8876708984375
1.9601806640625
1.972265625
2.01416015625
2.03671875
1.8417480468749998
1.7362060546875
1.651611328125
1.5670166015625
1.5202880859374999
1.48564453125
1.4437499999999999
1.4171630859375
1.4042724609375
1.3978271484375
1.3905761718749998
1.384130859375
1.3929931640625
1.52109375
1.3543212890624998
1.2697265624999998
1.2302490234374999
1.1617675781249999
1.132763671875
1.1045654296875
1.1158447265625
1.18271484375
1.2850341796875
1.3639892578125
1.4518066406249999
1.4953124999999998
1.56298828125
1.60166015625
1.635498046875
1.6556396484375
1.6669189453125
1.67578125
1.683837890625
1.683837890625
1.5573486328125
1.7217041015624999
1.8264404296874999
1.8667236328124999
1.9408447265625
1.9754882812499999
1.9972412109375
2.0359130859375
1.8739746093749998
1.770849609375
1.65966796875
1.5919921874999998
1.5396240234374998
1.496923828125
1.45341796875
1.426025390625
1.4091064453125
1.4026611328124998
1.3921875
1.3913818359374999
1.38896484375
1.4437499999999999
1.4381103515625
1.29228515625
1.2423339843749999
1.1915771484375
1.1416259765624999
1.1013427734374999
1.0852294921874999
1.1512939453125
1.2399169921875
1.3527099609375
1.4195800781249999
1.4816162109375
1.5533203125
1.5960205078124998
1.619384765625
1.6524169921874998
1.667724609375
1.6765869140624998
1.674169921875
1.6798095703125
1.6209960937499999
1.6282470703124998
1.8054931640624998
1.85625
1.91748046875
1.9529296875
1.993212890625
2.0633056640625
1.9553466796874999
1.8111328125
1.6967285156249998
1.6121337890624998
1.5533203125
1.4920898437499999
1.4630859374999998
1.4437499999999999
1.413134765625
1.3962158203125
1.3986328124999998
1.3897705078125
1.393798828125
1.3905761718749998
1.5162597656249999
1.297119140625
1.255224609375
1.2076904296875
1.1529052734375
1.12470703125
1.0658935546875
1.119873046875
1.2383056640624999
1.319677734375
1.3929931640625
1.458251953125
1.5267333984375
1.5807128906249999
1.6161621093749998
1.65
1.6620849609375
1.6749755859375
1.6822265625
1.6846435546874998
1.6814208984374999
1.5525146484374999
1.7942138671874999
1.8344970703124999
1.8981445312499998
1.9464843749999998
1.977099609375
2.0278564453125
2.015771484375
1.82080078125
1.722509765625
1.6459716796875
1.5605712890624999
1.5186767578125
1.4840332031249999
1.448583984375
1.4268310546874998
1.405078125
1.397021484375
1.3929931640625
1.3873535156249999
1.3905761718749998
1.525927734375
1.3414306640625
1.2705322265624999
1.2374999999999998
1.158544921875
1.1319580078125
1.0973144531249999
1.119873046875
1.2044677734375
1.2906738281249999
1.3599609375
1.45341796875
1.5057861328125
1.5597656249999998
1.6089111328124999
1.6363037109374998
1.6588623046875
1.6701416015625
1.6781982421875
1.67900390625
1.6878662109375
1.5436523437499998
1.7458740234374999
1.8296630859374998
1.8651123046875
1.941650390625
1.9730712890625
1.996435546875
2.031884765625
1.8683349609375
1.7595703125
1.6540283203125
1.577490234375
1.5275390624999998
1.4888671875
1.456640625
1.432470703125
1.4091064453125
1.397021484375
1.3913818359374999
1.3929931640625
1.3897705078125
1.4711425781249998
1.4195800781249999
1.2826171874999999
1.229443359375
1.1778808593749999
1.142431640625
1.100537109375
1.103759765625
1.1577392578124999
1.2576416015624998
1.3607666015625
1.4268310546874998
1.490478515625
1.5533203125
1.5919921874999998
1.6250244140624999
1.6556396484375
1.6612792968749999
1.6854492187499999
1.6814208984374999
1.6814208984374999
1.603271484375
1.65
1.8143554687499999
1.8635009765625
1.9166748046875
1.96904296875
1.9996582031249999
2.0649169921875
1.93681640625
1.8022705078124999
1.6806152343749998
1.6121337890624998
1.5492919921875
1.4928955078125
1.4671142578124998
1.4284423828125
1.4139404296875
1.4026611328124998
1.3921875
1.3881591796875
1.3857421875
1.3857421875
1.5057861328125
1.2906738281249999
1.2560302734375
1.1964111328125
1.1561279296875
1.12470703125
1.069921875
1.1271240234375
1.2415283203124998
1.3301513671874998
1.400244140625
1.4711425781249998
1.5436523437499998
1.593603515625
1.6089111328124999
1.6508056640625
1.6564453124999998
1.6749755859375
1.67900390625
1.6773925781249999
1.690283203125
1.5605712890624999
1.8038818359375
1.8441650390625
1.896533203125
1.9521240234375
1.9746826171874998
2.0431640625
2.00771484375
1.8111328125
1.714453125
1.635498046875
1.5678222656249998
1.5090087890625
1.4767822265625
1.4469726562499998
1.41796875
1.4115234374999999
1.400244140625
1.3857421875
1.3817138671875
1.384130859375
1.5041748046874999
1.3317626953125
1.2689208984375
1.2254150390625
1.15048828125
1.1335693359374999
1.0852294921874999
1.1222900390625
1.206884765625
1.2979248046874998
1.3720458984375
1.47275390625
1.5218994140625
1.5645996093749999
1.6153564453125
1.6282470703124998
1.6612792968749999
1.6612792968749999
1.6822265625
1.6814208984374999
1.6854492187499999
1.554931640625
1.751513671875
1.8296630859374998
1.8707519531249999
1.94970703125
1.9746826171874998
1.9940185546875
2.0165771484375
1.85625
1.75634765625
1.674169921875
1.5815185546875
1.5243164062499999
1.48564453125
1.448583984375
1.4276367187499999
1.4074951171874999
1.3994384765624999
1.3954101562499999
1.3865478515624998
1.3905761718749998
1.4896728515625
1.4066894531249998
1.2850341796875
1.2310546875
1.1778808593749999
1.132763671875
1.0932861328124999
1.0997314453125
1.1625732421875
1.2624755859374999
1.3639892578125
1.4381103515625
1.4920898437499999
1.5637939453124998
1.5944091796875
1.6363037109374998
1.6556396484375
1.66611328125
1.6822265625
1.687060546875
1.6822265625
1.5750732421875
1.6653076171874999
1.8103271484374999
1.8667236328124999
1.9190917968749999
1.9658203125
2.0012695312499997
2.0616943359374997
1.9215087890625
1.791796875
1.6822265625
1.611328125
1.5460693359375
1.48564453125
1.4574462890625
1.4356933593749999
1.4139404296875
1.3921875
1.3913818359374999
1.3873535156249999
1.397021484375
1.3978271484375
1.4920898437499999
1.2890625
1.2511962890625
1.19560546875
1.15048828125
1.11181640625
1.0755615234375
1.135986328125
1.2503906249999999
1.345458984375
1.4066894531249998
1.46953125
1.5404296874999999
1.5895751953125
1.6218017578125
1.6451660156249999
1.6645019531249998
1.6733642578124999
1.6830322265625
1.683837890625
1.6685302734374998
1.5758789062499998
1.8071044921875
1.8417480468749998
1.9078125
1.9521240234375
1.9787109374999998
2.0536376953124997
1.9843505859375
1.7982421874999999
1.7080078125
1.6314697265625
1.5484863281249999
1.50498046875
1.4679199218749999
1.44052734375
1.41796875
1.40830078125
1.3994384765624999
1.3913818359374999
1.3986328124999998
1.393798828125
1.5017578125
1.319677734375
1.268115234375
1.21494140625
1.1496826171874999
1.1271240234375
1.06669921875
1.1287353515625
1.2181640624999999
1.3075927734375
1.377685546875
1.46953125
1.5162597656249999
1.5718505859374998
1.6153564453125
1.638720703125
1.654833984375
1.6693359374999999
1.6822265625
1.6886718749999998
1.6822265625
1.561376953125
1.764404296875
1.82724609375
1.8731689453125
1.9472900390624999
1.9730712890625
2.0012695312499997
2.0052978515624997
1.85302734375
1.748291015625
1.6346923828125
1.5766845703124999
1.5275390624999998
1.4864501953125
1.442138671875
1.4195800781249999
1.409912109375
1.393798828125
1.3905761718749998
1.3978271484375
1.3873535156249999
1.5017578125
1.3857421875
1.2769775390625
1.224609375
1.16337890625
1.1295410156249999
1.087646484375
1.1029541015625
1.171435546875
1.2721435546875
1.3792968749999999
1.4308593749999998
1.4953124999999998
1.5702392578125
1.6056884765625
1.6298583984375
1.6540283203125
1.6701416015625
1.674169921875
1.6830322265625
1.6862548828125
1.5718505859374998
1.6814208984374999
1.8167724609375
1.8707519531249999
1.928759765625
1.964208984375
2.00771484375
2.0600830078125
1.9005615234375
1.78857421875
1.6669189453125
1.590380859375
1.5404296874999999
1.490478515625
1.456640625
1.43408203125
1.409912109375
1.3994384765624999
1.3978271484375
1.3929931640625
1.3865478515624998
1.4147460937499998
1.4630859374999998
1.27939453125
1.2503906249999999
1.1980224609374999
1.14404296875
1.106982421875
1.0731445312499999
1.1408203125
1.2640869140625
1.348681640625
1.4147460937499998
1.47275390625
1.5444580078124999
1.585546875
1.6266357421875
1.651611328125
1.6717529296875
1.6717529296875
1.687060546875
1.6765869140624998
1.6564453124999998
1.5960205078124998
1.8143554687499999
1.8489990234375
1.9086181640625
1.9537353515625
1.98515625
2.054443359375
1.9666259765624998
1.7934082031249998
1.6991455078125
1.6209960937499999
1.5428466796875
1.5001464843749999
1.4671142578124998
1.4389160156249998
1.4203857421875
1.400244140625
1.3921875
1.3905761718749998
1.3905761718749998
1.3921875
1.4864501953125
1.3108154296874999
1.2616699218749998
1.2125244140625
1.1432373046875
1.134375
1.0771728515624999
1.1416259765624999
1.2189697265625
1.31162109375
1.3865478515624998
1.4735595703125
1.5235107421874998
1.574267578125
1.6153564453125
1.6475830078125
1.6645019531249998
1.6725585937499998
1.6822265625
1.6806152343749998
1.6830322265625
1.5758789062499998
1.77568359375
1.832080078125
1.8828369140624999
1.9593749999999999
1.972265625
2.0149658203125
1.98837890625
1.8336914062499998
1.7426513671875
1.625830078125
1.56298828125
1.5235107421874998
1.47275390625
1.4437499999999999
1.416357421875
1.4091064453125
1.393798828125
1.3913818359374999
1.3849365234375
1.3905761718749998
1.513037109375
1.3639892578125
1.2737548828124998
1.229443359375
1.1577392578124999
1.135986328125
1.0707275390625
1.11181640625
1.1835205078125
1.2802001953125
1.37607421875
1.4437499999999999
1.50498046875
1.5766845703124999
1.606494140625
1.6363037109374998
1.658056640625
1.6636962890625
1.6749755859375
1.67578125
1.6846435546874998
1.5509033203125
1.7217041015624999
1.8183837890624999
1.8820312499999998
1.941650390625
1.9698486328125
2.0036865234375
2.044775390625
1.89169921875
1.7740722656249999
1.6645019531249998
1.5911865234375
1.5355957031249998
1.4816162109375
1.461474609375
1.4300537109375
1.4091064453125
1.3994384765624999
1.3954101562499999
1.3905761718749998
1.3897705078125
1.4373046875
1.448583984375
1.2697265624999998
1.2366943359375
1.1851318359375
1.1303466796875
1.1126220703125
1.0868408203125
1.152099609375
1.2697265624999998
1.3623779296874998
1.4195800781249999
1.4920898437499999
1.5565429687499999
1.6000488281249998
1.622607421875
1.6475830078125
1.6612792968749999
1.6765869140624998
1.683837890625
1.67578125
1.6282470703124998
1.6121337890624998
1.8135498046874998
1.8546386718749999
1.915869140625
1.9682373046875
1.9891845703125
2.064111328125
1.9505126953124998
1.77890625
1.69189453125
1.6161621093749998
1.5428466796875
1.5082031249999999
1.4719482421874999
1.4356933593749999
1.4155517578124999
1.40185546875
1.3946044921874998
1.3881591796875
1.3849365234375
1.3954101562499999
1.464697265625
1.3027587890624999
1.2528076171875
1.2109130859375
1.15048828125
1.1190673828125
1.0658935546875
1.147265625
1.24072265625
1.3220947265624998
1.3897705078125
1.477587890625
1.525927734375
1.571044921875
1.6242187499999998
1.6483886718749998
1.65966796875
1.66611328125
1.6822265625
1.6814208984374999
1.6846435546874998
1.6024658203125
1.7934082031249998
