1.4542236328125
1.5662109375
1.416357421875
1.351904296875
1.3237060546875
1.2850341796875
1.252001953125
1.2157470703125
1.2503906249999999
1.319677734375
1.4066894531249998
1.4574462890625
1.4945068359375
1.5509033203125
1.5815185546875
1.6000488281249998
1.6105224609375
1.6185791015625
1.619384765625
1.6298583984375
1.622607421875
1.6137451171875
1.5082031249999999
1.667724609375
1.7329833984374998
1.7619873046874999
1.8119384765625
1.8328857421875
1.899755859375
1.8522216796875
1.7200927734375
1.6363037109374998
1.5927978515624999
1.5283447265624999
1.5017578125
1.477587890625
1.4638916015624999
1.4501953125
1.4228027343749998
1.4526123046875
1.4364990234375
1.45341796875
1.4558349609374999
1.5428466796875
1.4139404296875
1.3639892578125
1.34384765625
1.2858398437499998
1.2673095703125
1.2205810546875
1.2415283203124998
1.3180664062499998
1.3825195312499998
1.4397216796874999
1.4928955078125
1.5275390624999998
1.5686279296874999
1.5919921874999998
1.6081054687499998
1.6234130859375
1.6218017578125
1.6234130859375
1.6290527343749999
1.6250244140624999
1.5082031249999999
1.6653076171874999
1.7345947265625
1.7603759765625
1.8119384765625
1.8385253906249999
1.8981445312499998
1.8731689453125
1.714453125
1.65
1.5919921874999998
1.542041015625
1.5106201171875
1.4767822265625
1.4638916015624999
1.4461669921875
1.442138671875
1.442138671875
1.4550292968749998
1.4397216796874999
1.4501953125
1.5476806640624998
1.47275390625
1.3744628906249998
1.3430419921874999
1.2979248046874998
1.264892578125
1.2511962890625
1.2463623046874999
1.2850341796875
1.3583496093749998
1.4397216796874999
1.48564453125
1.522705078125
1.5597656249999998
1.60166015625
1.603271484375
1.609716796875
1.6177734375
1.6314697265625
1.62744140625
1.6177734375
1.5194824218749998
1.5968261718749999
1.7176757812499999
1.75634765625
1.8054931640624998
1.8264404296874999
1.8417480468749998
1.896533203125
1.7539306640624999
1.6814208984374999
1.6024658203125
1.561376953125
1.5186767578125
1.48564453125
1.4630859374999998
1.445361328125
1.4413330078125
1.4389160156249998
1.4308593749999998
1.4437499999999999
1.4429443359374998
1.480810546875
1.5404296874999999
1.3768798828125
1.3478759765625
1.303564453125
1.2721435546875
1.24072265625
1.2439453125
1.2568359375
1.364794921875
1.4171630859375
1.46630859375
1.5114257812499998
1.561376953125
1.5895751953125
1.6024658203125
1.619384765625
1.6209960937499999
1.6218017578125
1.6250244140624999
1.622607421875
1.5944091796875
1.5364013671874999
1.7208984374999998
1.7313720703125
1.77568359375
1.8151611328125
1.835302734375
1.9062011718749998
1.8167724609375
1.690283203125
1.6266357421875
1.5750732421875
1.525927734375
1.4912841796874998
1.4735595703125
1.464697265625
1.4574462890625
1.4526123046875
1.4598632812499999
1.4429443359374998
1.4469726562499998
1.4501953125
1.5380126953125
1.4026611328124998
1.3575439453125
1.327734375
1.2777832031249998
1.2568359375
1.2181640624999999
1.2640869140625
1.332568359375
1.3962158203125
1.4590576171874998
1.506591796875
1.5404296874999999
1.5831298828125
1.6048828124999999
1.6129394531249999
1.6129394531249999
1.6153564453125
1.6250244140624999
1.62744140625
1.619384765625
1.529150390625
1.690283203125
1.7265380859375
1.76279296875
1.8119384765625
1.8296630859374998
1.89169921875
1.8175781249999998
1.7136474609374999
1.6411376953124999
1.5750732421875
1.5380126953125
1.5090087890625
1.4800048828124999
1.4574462890625
1.4510009765624998
1.4437499999999999
1.445361328125
1.4437499999999999
1.4501953125
1.4477783203124999
1.56298828125
1.4373046875
1.36962890625
1.3309570312499999
1.2898681640624998
1.2737548828124998
1.2141357421874999
1.252001953125
1.31162109375
1.397021484375
1.445361328125
1.4928955078125
1.5275390624999998
1.5766845703124999
1.5944091796875
1.611328125
1.6201904296874998
1.6242187499999998
1.619384765625
1.622607421875
1.6137451171875
1.5106201171875
1.6371093749999999
1.7265380859375
1.7531249999999998
1.8062988281249999
1.8240234375
1.880419921875
1.8788085937499999
1.7378173828124999
1.6524169921874998
1.5984375
1.5476806640624998
1.506591796875
1.4840332031249999
1.477587890625
1.4655029296875
1.4526123046875
1.4445556640625
1.4397216796874999
1.4429443359374998
1.4558349609374999
1.52109375
1.4896728515625
1.384130859375
1.3422363281249998
1.3027587890624999
1.27294921875
1.2374999999999998
1.24716796875
1.3083984375
1.3736572265625
1.4308593749999998
1.477587890625
1.5251220703125
1.5718505859374998
1.5984375
1.6072998046875
1.6242187499999998
1.622607421875
1.6282470703124998
1.6282470703124998
1.6250244140624999
1.5323730468749999
1.6371093749999999
1.7128417968749998
1.751513671875
1.786962890625
1.82080078125
1.8361083984375
1.9110351562499999
1.7499023437499999
1.6717529296875
1.61455078125
1.56943359375
1.52109375
1.4896728515625
1.4816162109375
1.4655029296875
1.4477783203124999
1.4381103515625
1.448583984375
1.4477783203124999
1.448583984375
1.4542236328125
1.49853515625
1.3736572265625
1.353515625
1.3075927734375
1.2640869140625
1.2568359375
1.2366943359375
1.2785888671874999
1.3575439453125
1.41796875
1.4767822265625
1.5186767578125
1.55009765625
1.5927978515624999
1.6081054687499998
1.6169677734374999
1.6209960937499999
1.6266357421875
1.6346923828125
1.6266357421875
1.5444580078124999
1.56943359375
1.706396484375
1.7257324218749999
1.7781005859374999
1.82080078125
1.828857421875
1.8981445312499998
1.791796875
1.6967285156249998
1.62744140625
1.5645996093749999
1.5275390624999998
1.5025634765625
1.4751708984374998
1.4606689453125
1.458251953125
1.4413330078125
1.448583984375
1.4397216796874999
1.4469726562499998
1.4550292968749998
1.554931640625
1.3994384765624999
1.3494873046875
1.3212890625
1.2777832031249998
1.2536132812499998
1.224609375
1.2640869140625
1.3309570312499999
1.4042724609375
1.4598632812499999
1.496923828125
1.5565429687499999
1.5863525390625
1.5895751953125
1.6048828124999999
1.6250244140624999
1.62744140625
1.6242187499999998
1.6282470703124998
1.6129394531249999
1.5202880859374999
1.662890625
1.7289550781249998
1.754736328125
1.8046875
1.832080078125
1.8844482421875
1.8473876953125
1.7297607421874999
1.6427490234375
1.5847412109374999
1.5436523437499998
1.5017578125
1.4840332031249999
1.461474609375
1.4550292968749998
1.4510009765624998
1.4518066406249999
1.4413330078125
1.4501953125
1.4518066406249999
1.56298828125
1.4203857421875
1.3623779296874998
1.33740234375
1.2818115234374998
1.2721435546875
1.2157470703125
1.2544189453124999
1.3341796874999998
1.3946044921874998
1.44052734375
1.4945068359375
1.5275390624999998
1.5678222656249998
1.5847412109374999
1.6089111328124999
1.619384765625
1.619384765625
1.6242187499999998
1.622607421875
1.6201904296874998
1.49853515625
1.674169921875
1.7257324218749999
1.7507080078125
1.8062988281249999
1.8183837890624999
1.8546386718749999
1.8876708984375
1.7329833984374998
1.6604736328124998
1.606494140625
1.5476806640624998
1.5154541015624998
1.48564453125
1.4687255859375
1.4598632812499999
1.4461669921875
1.4518066406249999
1.4477783203124999
1.442138671875
1.4429443359374998
1.5509033203125
1.4638916015624999
1.3712402343749999
1.329345703125
1.2979248046874998
1.268115234375
1.2536132812499998
1.2479736328125
1.297119140625
1.3607666015625
1.448583984375
1.477587890625
1.51787109375
1.5637939453124998
1.593603515625
1.6081054687499998
1.6153564453125
1.6266357421875
1.6201904296874998
1.61455078125
1.619384765625
1.5082031249999999
1.6177734375
1.716064453125
1.7603759765625
1.7909912109375
1.8296630859374998
1.8409423828125
1.8925048828125
1.770849609375
1.6862548828125
1.603271484375
1.5645996093749999
1.5243164062499999
1.4816162109375
1.46953125
1.4550292968749998
1.448583984375
1.445361328125
1.4461669921875
1.4397216796874999
1.4510009765624998
1.49853515625
1.5146484375
1.3712402343749999
1.345458984375
1.3059814453124998
1.2753662109375
1.2528076171875
1.235888671875
1.2656982421874998
1.368017578125
1.4300537109375
1.4671142578124998
1.5057861328125
1.5557373046874998
1.5807128906249999
1.5968261718749999
1.6218017578125
1.6290527343749999
1.6209960937499999
1.6218017578125
1.6169677734374999
1.5645996093749999
1.5484863281249999
1.7152587890625
1.7370117187499998
1.7652099609374998
1.8183837890624999
1.835302734375
1.9110351562499999
1.8071044921875
1.6854492187499999
1.6298583984375
1.5670166015625
1.52109375
1.4961181640624999
1.482421875
1.4550292968749998
1.448583984375
1.4348876953124998
1.4437499999999999
1.4397216796874999
1.4501953125
1.4501953125
1.5202880859374999
1.3865478515624998
1.3623779296874998
1.327734375
1.27294921875
1.2536132812499998
1.2205810546875
1.2753662109375
1.3502929687499998
1.397021484375
1.45341796875
1.5090087890625
1.5404296874999999
1.5791015625
1.593603515625
1.609716796875
1.6129394531249999
1.6137451171875
1.6201904296874998
1.6242187499999998
1.6201904296874998
1.546875
1.69189453125
1.7257324218749999
1.76279296875
1.8248291015625
1.8296630859374998
1.8868652343749999
1.82080078125
1.7152587890625
1.6435546875
1.5766845703124999
1.5315673828124998
1.5073974609374998
1.48564453125
1.4638916015624999
1.4518066406249999
1.445361328125
1.458251953125
1.432470703125
1.4437499999999999
1.4445556640625
1.5597656249999998
1.432470703125
1.3672119140624999
1.327734375
1.2955078125
1.2753662109375
1.219775390625
1.2536132812499998
1.316455078125
1.4026611328124998
1.4518066406249999
1.4961181640624999
1.5235107421874998
1.5799072265624998
1.5968261718749999
1.603271484375
1.611328125
1.635498046875
1.6169677734374999
1.6121337890624998
1.6056884765625
1.5025634765625
1.64677734375
1.714453125
1.76279296875
1.8006591796875
1.8199951171875
1.877197265625
1.861083984375
1.74345703125
1.64677734375
1.5976318359375
1.5492919921875
1.5073974609374998
1.4832275390624998
1.4703369140625
1.4622802734375
1.4477783203124999
1.4477783203124999
1.4397216796874999
1.4389160156249998
1.4510009765624998
1.5331787109375
1.5154541015624998
1.3825195312499998
1.3398193359375
1.2987304687499999
1.276171875
1.232666015625
1.2544189453124999
1.3180664062499998
1.3873535156249999
1.429248046875
1.4751708984374998
1.525927734375
1.56298828125
1.5887695312499999
1.6048828124999999
1.6137451171875
1.6218017578125
1.625830078125
1.6242187499999998
1.62744140625
1.5275390624999998
1.6379150390625
1.7152587890625
1.7474853515625
1.783740234375
1.8232177734375
1.8377197265624998
1.8957275390625
1.7490966796874998
1.6717529296875
1.6121337890624998
1.5654052734375
1.5106201171875
1.4920898437499999
1.46953125
1.4590576171874998
1.4437499999999999
1.43408203125
1.4389160156249998
1.448583984375
1.4501953125
1.456640625
1.47275390625
1.384130859375
1.351904296875
1.3059814453124998
1.2777832031249998
1.248779296875
1.24072265625
1.287451171875
1.3599609375
1.4139404296875
1.4759765624999999
1.5122314453124999
1.5404296874999999
1.5976318359375
1.6242187499999998
1.6185791015625
1.6282470703124998
1.6234130859375
1.6234130859375
1.622607421875
1.53076171875
1.5815185546875
1.7039794921875
1.72734375
1.783740234375
1.8216064453124998
1.8296630859374998
1.896533203125
1.77890625
1.7023681640625
1.6282470703124998
1.5589599609375
1.522705078125
1.4928955078125
1.4735595703125
1.4590576171874998
1.448583984375
1.4501953125
1.4493896484375
1.4469726562499998
1.4445556640625
1.4622802734375
1.53720703125
1.40185546875
1.3583496093749998
1.3180664062499998
1.27939453125
1.2640869140625
1.2238037109375
1.2673095703125
1.3341796874999998
1.40830078125
1.456640625
1.5001464843749999
1.5484863281249999
1.5887695312499999
1.593603515625
1.6177734375
1.6201904296874998
1.6242187499999998
1.622607421875
1.6242187499999998
1.6048828124999999
1.5218994140625
1.6806152343749998
1.7249267578124998
1.7821289062499999
1.8022705078124999
1.8232177734375
1.8892822265625
1.8256347656249998
1.7233154296875
1.625830078125
1.585546875
1.5299560546875
1.5033691406249998
1.4759765624999999
1.4759765624999999
1.448583984375
1.4510009765624998
1.464697265625
1.45341796875
1.445361328125
1.4574462890625
1.5541259765625
1.4091064453125
1.3736572265625
1.3237060546875
1.2882568359375
1.2737548828124998
1.2205810546875
1.2511962890625
1.3365966796875
1.38896484375
1.4445556640625
1.5001464843749999
1.5412353515625
1.5726562499999999
1.5927978515624999
1.611328125
1.6153564453125
1.6218017578125
1.6282470703124998
1.619384765625
1.61455078125
1.5057861328125
1.6773925781249999
1.719287109375
1.7474853515625
1.803076171875
1.8216064453124998
1.869140625
1.8707519531249999
1.7289550781249998
1.651611328125
1.593603515625
1.5412353515625
1.5114257812499998
1.4832275390624998
1.4590576171874998
1.4469726562499998
1.4501953125
1.442138671875
1.442138671875
1.4550292968749998
1.448583984375
1.5541259765625
1.4477783203124999
1.380908203125
1.3349853515624999
1.2995361328125
1.2753662109375
1.2495849609374998
1.2673095703125
1.2955078125
1.37607421875
1.43408203125
1.4912841796874998
1.525927734375
1.5557373046874998
1.585546875
1.603271484375
1.6121337890624998
1.6201904296874998
1.619384765625
1.6040771484374998
1.6137451171875
1.522705078125
1.6330810546874999
1.7176757812499999
1.754736328125
1.7982421874999999
1.8175781249999998
1.8369140625
1.8820312499999998
1.7555419921875
1.6822265625
1.5976318359375
1.5517089843749998
1.5186767578125
1.4816162109375
1.46630859375
1.4469726562499998
1.4413330078125
1.4518066406249999
1.448583984375
1.4445556640625
1.4381103515625
1.5122314453124999
1.5114257812499998
1.3792968749999999
1.3422363281249998
1.3092041015625
1.27939453125
1.2447509765625
1.2431396484375
1.2769775390625
1.3688232421875
1.4236083984374999
1.480810546875
1.5202880859374999
1.558154296875
1.5863525390625
1.6000488281249998
1.6153564453125
1.625830078125
1.6290527343749999
1.6242187499999998
1.6161621093749998
1.5565429687499999
1.5589599609375
1.7104248046875
1.740234375
1.7813232421874998
1.8151611328125
1.835302734375
1.8957275390625
1.7974365234374998
1.6781982421875
1.611328125
1.58232421875
1.513037109375
1.4880615234374999
1.47275390625
1.464697265625
1.4477783203124999
1.4493896484375
1.4413330078125
1.4461669921875
1.4437499999999999
1.4542236328125
1.52109375
1.393798828125
1.361572265625
1.3382080078124998
1.281005859375
1.2608642578125
1.216552734375
1.2745605468749999
1.351904296875
1.413134765625
1.456640625
1.5001464843749999
1.5444580078124999
1.577490234375
1.6000488281249998
1.6048828124999999
1.6201904296874998
1.622607421875
1.6218017578125
1.619384765625
1.6105224609375
1.55009765625
1.699951171875
1.7208984374999998
1.7603759765625
1.8046875
1.82080078125
1.8876708984375
1.8062988281249999
1.7080078125
1.6395263671875
1.5678222656249998
1.533984375
1.5033691406249998
1.4791992187499998
1.4598632812499999
1.4574462890625
1.4413330078125
1.448583984375
1.448583984375
1.4526123046875
1.45341796875
1.5565429687499999
1.4284423828125
1.3664062499999998
1.327734375
1.2947021484374999
1.2753662109375
1.2221923828124999
1.2584472656249999
1.3237060546875
1.405078125
1.461474609375
1.4945068359375
1.5355957031249998
1.5782958984375
1.5984375
1.5895751953125
1.6081054687499998
1.6209960937499999
1.625830078125
1.6218017578125
1.6282470703124998
1.50498046875
1.65966796875
1.7281494140625
1.75634765625
1.7974365234374998
1.8167724609375
1.8860595703124998
1.87236328125
1.7410400390624998
1.6532226562499999
1.587158203125
1.545263671875
1.5138427734375
1.4800048828124999
1.4598632812499999
1.4590576171874998
1.445361328125
1.4445556640625
1.4469726562499998
1.4477783203124999
1.4542236328125
1.538818359375
1.4671142578124998
1.37607421875
1.3398193359375
1.30517578125
1.276171875
1.2310546875
1.2495849609374998
1.3220947265624998
1.3873535156249999
1.4364990234375
1.474365234375
1.5275390624999998
1.5637939453124998
1.590380859375
1.609716796875
1.6169677734374999
1.619384765625
1.6161621093749998
1.6218017578125
1.6218017578125
1.5090087890625
1.6532226562499999
1.7200927734375
1.7426513671875
1.7829345703125
1.8248291015625
1.8465820312499999
1.893310546875
1.7370117187499998
1.6725585937499998
1.6153564453125
1.5573486328125
1.5243164062499999
1.4880615234374999
1.4703369140625
1.4574462890625
1.4550292968749998
1.4574462890625
1.4413330078125
1.4445556640625
1.4348876953124998
1.4800048828124999
1.4783935546875
1.380908203125
1.3631835937499999
1.3019531249999998
1.2737548828124998
1.2503906249999999
1.2503906249999999
1.2987304687499999
1.3656005859375
1.4244140625
1.4816162109375
1.5218994140625
1.5573486328125
1.5807128906249999
1.6105224609375
1.6201904296874998
1.6250244140624999
1.6250244140624999
1.6177734375
1.6185791015625
1.5186767578125
1.5927978515624999
1.7047851562499998
1.7289550781249998
1.78857421875
1.8216064453124998
1.8296630859374998
1.896533203125
1.77890625
1.6927001953124998
1.6290527343749999
1.56298828125
1.529150390625
1.4953124999999998
1.474365234375
1.4518066406249999
1.4477783203124999
1.4493896484375
1.445361328125
1.45341796875
1.4550292968749998
1.4791992187499998
1.5218994140625
1.4115234374999999
1.351904296875
1.3180664062499998
1.27939453125
1.2656982421874998
1.2342773437499999
1.2665039062499999
1.340625
1.4171630859375
1.461474609375
1.5057861328125
1.5533203125
1.5791015625
1.603271484375
1.6089111328124999
1.611328125
1.6314697265625
1.622607421875
1.6209960937499999
1.5847412109374999
1.5275390624999998
1.6653076171874999
1.72412109375
1.7692382812499998
1.8022705078124999
1.8183837890624999
1.90458984375
1.828857421875
1.7233154296875
1.6395263671875
1.574267578125
1.5404296874999999
1.4920898437499999
1.4783935546875
1.46630859375
1.456640625
1.4501953125
1.448583984375
1.448583984375
1.4477783203124999
1.4501953125
1.5517089843749998
1.4066894531249998
1.3591552734374999
1.3309570312499999
1.271337890625
1.2584472656249999
1.222998046875
1.2560302734375
1.3422363281249998
1.400244140625
1.445361328125
1.49853515625
1.538818359375
1.5654052734375
1.590380859375
1.6089111328124999
1.6153564453125
1.6218017578125
1.622607421875
1.62744140625
1.6242187499999998
1.5114257812499998
1.6701416015625
1.7168701171874998
1.76279296875
1.7877685546875
1.7990478515625
1.8473876953125
1.8578613281249998
1.714453125
1.6451660156249999
1.5927978515624999
1.5380126953125
1.5138427734375
1.490478515625
1.477587890625
1.474365234375
1.458251953125
1.4574462890625
1.4735595703125
1.4791992187499998
1.496923828125
1.55009765625
1.393798828125
1.3188720703124999
1.3100097656249998
1.2753662109375
1.2721435546875
1.2447509765625
1.2697265624999998
1.3156494140625
1.3817138671875
1.4550292968749998
1.4977294921875
1.5533203125
1.5992431640625
1.5944091796875
1.5589599609375
1.5968261718749999
1.6306640625
1.635498046875
1.6169677734374999
1.6161621093749998
1.5017578125
1.6564453124999998
1.716064453125
1.7579589843749999
1.799853515625
1.82080078125
1.8175781249999998
1.8546386718749999
1.7337890624999999
1.6701416015625
1.6000488281249998
1.5557373046874998
1.5275390624999998
1.4872558593749998
1.46953125
1.4437499999999999
1.416357421875
1.4074951171874999
1.4203857421875
1.43408203125
1.4550292968749998
1.5243164062499999
1.5235107421874998
1.42119140625
1.3510986328124999
1.3067871093749999
1.287451171875
1.2447509765625
1.2544189453124999
1.33740234375
1.3897705078125
1.4147460937499998
1.4953124999999998
1.5106201171875
1.50498046875
1.5436523437499998
1.5831298828125
1.60166015625
1.5944091796875
1.5992431640625
1.6161621093749998
1.622607421875
1.58232421875
1.6185791015625
1.7523193359375
1.780517578125
1.819189453125
1.8062988281249999
1.7635986328125
1.864306640625
1.77568359375
1.67578125
1.6218017578125
1.5597656249999998
1.529150390625
1.4840332031249999
1.4759765624999999
1.4518066406249999
1.4413330078125
1.4389160156249998
1.442138671875
1.4542236328125
1.45341796875
1.4598632812499999
1.5517089843749998
1.3704345703124998
1.3551269531249999
1.3253173828125
1.287451171875
1.255224609375
1.1947998046875
1.27939453125
1.3656005859375
1.45341796875
1.5122314453124999
1.545263671875
1.59521484375
1.6072998046875
1.6129394531249999
1.6121337890624998
1.6072998046875
1.6048828124999999
1.593603515625
1.58232421875
1.5766845703124999
1.52109375
1.6894775390624999
1.6935058593749999
1.722509765625
1.7877685546875
1.8103271484374999
1.87236328125
1.812744140625
1.703173828125
1.6427490234375
1.5847412109374999
1.5202880859374999
1.5106201171875
1.4630859374999998
1.480810546875
1.5218994140625
1.5122314453124999
1.4550292968749998
1.4389160156249998
1.4252197265625
1.4397216796874999
1.5509033203125
1.3833251953124999
1.3833251953124999
1.3390136718749999
1.2495849609374998
1.2076904296875
1.18916015625
1.235888671875
1.3229003906249999
1.41796875
1.482421875
1.482421875
1.5154541015624998
1.574267578125
1.5863525390625
1.60166015625
1.5887695312499999
1.5847412109374999
1.5887695312499999
1.5895751953125
1.6081054687499998
1.4961181640624999
1.6701416015625
1.7257324218749999
1.79501953125
1.84013671875
1.8618896484374998
1.964208984375
1.9295654296875
1.7861572265624999
1.690283203125
1.5444580078124999
1.509814453125
1.4284423828125
1.3728515625
1.4147460937499998
1.4638916015624999
1.47275390625
1.4413330078125
1.4284423828125
1.413134765625
1.4268310546874998
1.5678222656249998
1.4542236328125
1.3672119140624999
1.3333740234375
1.2342773437499999
1.2173583984375
1.2286376953125
1.3148437499999999
1.4445556640625
1.546875
1.533984375
1.5243164062499999
1.529150390625
1.5557373046874998
1.545263671875
1.5960205078124998
1.641943359375
1.5492919921875
1.538818359375
1.554931640625
1.5380126953125
1.4236083984374999
1.5782958984375
1.7337890624999999
1.7595703125
1.812744140625
1.844970703125
1.85302734375
1.8981445312499998
1.719287109375
1.654833984375
1.5919921874999998
1.5573486328125
1.509814453125
1.4791992187499998
1.4840332031249999
1.432470703125
1.448583984375
1.4598632812499999
1.4703369140625
1.46630859375
1.4389160156249998
1.5106201171875
1.4945068359375
1.4058837890625
1.3744628906249998
1.2914794921875
1.2503906249999999
1.2455566406249998
1.2528076171875
1.32451171875
1.4026611328124998
1.4493896484375
1.4542236328125
1.4888671875
1.56298828125
1.6024658203125
1.6169677734374999
1.6129394531249999
1.6161621093749998
1.6137451171875
1.6137451171875
1.6072998046875
1.53720703125
1.5944091796875
1.7217041015624999
1.7313720703125
1.7829345703125
1.8296630859374998
1.8369140625
1.9472900390624999
1.770849609375
1.66611328125
1.6137451171875
1.545263671875
1.5218994140625
1.490478515625
1.448583984375
1.4074951171874999
1.4397216796874999
1.4316650390624999
1.4590576171874998
1.4630859374999998
1.4510009765624998
1.5283447265624999
1.6056884765625
1.413134765625
1.4074951171874999
1.3349853515624999
1.2616699218749998
1.2544189453124999
1.1222900390625
1.1883544921875
1.2987304687499999
1.4010498046875
1.4622802734375
1.5122314453124999
1.538818359375
1.5863525390625
1.61455078125
1.6266357421875
1.6250244140624999
1.6395263671875
1.6024658203125
1.6218017578125
1.5283447265624999
1.4381103515625
1.6967285156249998
1.7442626953125
1.8103271484374999
1.8868652343749999
1.8884765625
2.0109375
1.7901855468749999
1.6072998046875
1.571044921875
1.606494140625
1.5807128906249999
1.5017578125
1.5041748046874999
1.5323730468749999
1.5315673828124998
1.60166015625
1.5750732421875
1.4268310546874998
1.4590576171874998
1.46630859375
1.7176757812499999
1.3333740234375
1.351904296875
1.3172607421875
1.239111328125
1.2173583984375
1.1384033203125
1.22783203125
1.368017578125
1.3801025390625
1.4284423828125
1.4880615234374999
1.5323730468749999
1.571044921875
1.5984375
1.609716796875
1.6153564453125
1.6363037109374998
1.6282470703124998
1.6185791015625
1.611328125
1.2777832031249998
1.7652099609374998
1.72734375
1.716064453125
1.622607421875
1.844970703125
2.0471923828125
1.996435546875
1.6991455078125
1.62744140625
1.5879638671874998
1.5412353515625
1.5283447265624999
1.4848388671875
1.4671142578124998
1.4759765624999999
1.6242187499999998
1.5251220703125
1.493701171875
1.4493896484375
1.4244140625
1.8256347656249998
1.2987304687499999
1.2536132812499998
1.29228515625
1.0062744140625
0.037060546874999996
0.0322265625
0.0314208984375
0.3504638671875
0.8056640625
1.0868408203125
1.3301513671874998
1.43408203125
1.6089111328124999
1.6669189453125
1.6693359374999999
1.687060546875
1.7200927734375
1.7055908203124999
1.735400390625
1.7531249999999998
0.6662841796875
1.609716796875
2.0310791015625
1.972265625
2.0939208984374997
2.1100341796874997
2.2486083984375
2.642578125
1.9762939453125
1.6685302734374998
1.5863525390625
1.5444580078124999
1.5484863281249999
1.4316650390624999
1.4550292968749998
1.5347900390625
1.5001464843749999
1.585546875
1.6040771484374998
1.558154296875
1.5597656249999998
2.5531494140624997
2.07861328125
1.3470703124999999
1.3067871093749999
1.2383056640624999
1.123095703125
0.807275390625
0.6727294921875
0.9087890624999999
1.2834228515625
0.48017578125
0.06767578125
0.0322265625
0.0298095703125
0.02578125
0.3117919921875
0.20625
0.246533203125
0.322265625
0.49951171875
0.64453125
0.0362548828125
0.030615234374999998
0.0281982421875
0.0298095703125
0.0298095703125
0.0314208984375
0.0314208984375
3.0357421875
3.0325195312499997
3.029296875
3.0317138671875
3.034130859375
3.0301025390625
3.0333251953125
3.0325195312499997
3.0333251953125
3.0325195312499997
3.034130859375
3.034130859375
3.0309082031249996
3.0333251953125
3.0317138671875
3.0357421875
3.0325195312499997
3.0317138671875
3.0333251953125
3.034130859375
3.01962890625
1.1029541015625
0.02578125
0.026586914062499998
0.033837890625
0.030615234374999998
0.02578125
0.033837890625
0.033032226562499996
0.0346435546875
0.08942871093749999
0.21269531249999998
0.30051269531249997
0.36093749999999997
0.476953125
0.0314208984375
0.033837890625
0.033837890625
0.026586914062499998
0.030615234374999998
0.027392578124999997
0.030615234374999998
2.618408203125
3.029296875
3.0333251953125
3.0349365234374996
3.0309082031249996
3.0317138671875
3.034130859375
3.0301025390625
3.0317138671875
3.0301025390625
3.037353515625
3.0381591796875
3.0325195312499997
2.9906249999999996
2.8617187499999996
3.034130859375
3.0325195312499997
3.0325195312499997
3.0309082031249996
3.0333251953125
3.0365478515624997
1.2890625
0.307763671875
0.02900390625
0.0314208984375
0.0298095703125
0.0314208984375
0.0281982421875
0.0298095703125
0.0322265625
0.030615234374999998
0.103125
0.18449707031249998
0.2537841796875
0.6348632812499999
0.3843017578125
0.030615234374999998
0.030615234374999998
0.0322265625
0.026586914062499998
0.0322265625
0.0298095703125
0.033032226562499996
3.0381591796875
3.0333251953125
3.0317138671875
3.0333251953125
3.0325195312499997
3.0317138671875
3.0325195312499997
3.0317138671875
3.037353515625
3.0333251953125
3.029296875
3.0325195312499997
2.9922363281249997
2.96162109375
3.0349365234374996
3.0268798828124996
3.0284912109374997
3.0333251953125
3.0325195312499997
3.0381591796875
2.3565673828125
0.8523925781249999
0.0346435546875
0.0249755859375
0.030615234374999998
0.030615234374999998
0.033032226562499996
0.0298095703125
0.0298095703125
0.08540039062499999
0.02900390625
0.0580078125
0.1716064453125
0.275537109375
0.372216796875
0.02578125
0.0281982421875
0.027392578124999997
0.027392578124999997
0.0298095703125
0.0249755859375
0.02900390625
2.6256591796874997
3.034130859375
3.0309082031249996
3.0357421875
3.0309082031249996
3.0333251953125
3.0325195312499997
3.0301025390625
3.0317138671875
3.034130859375
3.0284912109374997
3.0236572265625
2.731201171875
2.6232421875
2.4943359375
3.0381591796875
3.027685546875
3.0301025390625
3.0317138671875
3.0309082031249996
3.034130859375
1.4010498046875
0.0298095703125
0.030615234374999998
0.0298095703125
0.0281982421875
0.0314208984375
0.026586914062499998
0.0298095703125
0.026586914062499998
0.030615234374999998
0.024169921875
0.07009277343749999
0.12246093749999999
0.1297119140625
0.09829101562499999
0.030615234374999998
0.02900390625
0.0298095703125
0.0298095703125
0.0298095703125
0.0322265625
0.027392578124999997
2.0133544921874997
3.0333251953125
3.029296875
3.0309082031249996
3.0357421875
3.0333251953125
3.029296875
3.029296875
2.9712890625
2.8593017578124997
2.8166015625
2.744091796875
2.6039062499999996
2.5233398437499996
3.0333251953125
3.0333251953125
3.0325195312499997
3.034130859375
3.0309082031249996
3.0357421875
1.5299560546875
0.02900390625
0.030615234374999998
0.0298095703125
0.0346435546875
0.033032226562499996
0.030615234374999998
0.030615234374999998
0.0298095703125
0.02578125
0.0298095703125
0.0281982421875
0.07814941406249999
0.1732177734375
0.580078125
0.0298095703125
0.030615234374999998
0.0298095703125
0.0298095703125
0.0298095703125
0.030615234374999998
0.0298095703125
1.6177734375
2.6885009765624996
3.0333251953125
3.0284912109374997
3.0268798828124996
3.0325195312499997
3.0317138671875
3.0333251953125
3.0309082031249996
2.9922363281249997
2.9173095703125
2.8166015625
2.763427734375
2.647412109375
3.0301025390625
3.0325195312499997
3.0349365234374996
3.0325195312499997
3.0317138671875
3.029296875
2.8681640625
0.4793701171875
0.0298095703125
0.03544921875
0.02578125
0.0322265625
0.03544921875
0.0298095703125
0.0346435546875
0.0298095703125
0.0314208984375
0.0322265625
0.06767578125
0.169189453125
0.198193359375
0.033837890625
0.02900390625
0.02900390625
0.0298095703125
0.0298095703125
0.02900390625
0.030615234374999998
0.0322265625
2.4032958984375
3.0333251953125
3.0301025390625
3.0301025390625
3.0301025390625
3.0317138671875
3.0357421875
2.771484375
3.0059326171875
2.953564453125
2.921337890625
2.7247558593749996
2.59423828125
3.027685546875
3.0333251953125
3.0309082031249996
3.0317138671875
3.0317138671875
3.034130859375
3.034130859375
1.0852294921874999
0.0298095703125
0.0314208984375
0.0298095703125
0.0314208984375
0.02900390625
0.0281982421875
0.030615234374999998
0.0298095703125
0.0298095703125
0.08540039062499999
0.16274414062499998
0.159521484375
0.21914062499999998
0.191748046875
0.0298095703125
0.0281982421875
0.030615234374999998
0.0314208984375
0.02900390625
0.02578125
0.0298095703125
2.276806640625
3.0301025390625
3.0325195312499997
3.0325195312499997
3.0365478515624997
3.0317138671875
3.0325195312499997
3.0325195312499997
2.8770263671875
2.9189208984375
2.8536621093749996
2.779541015625
2.711865234375
2.6055175781249997
3.0333251953125
3.027685546875
3.0333251953125
3.0317138671875
3.0317138671875
3.0284912109374997
1.5082031249999999
0.1554931640625
0.027392578124999997
0.026586914062499998
0.0298095703125
0.026586914062499998
0.0298095703125
0.0298095703125
0.023364257812499997
0.0298095703125
0.0249755859375
0.037060546874999996
0.0636474609375
0.11359863281249999
0.11762695312499999
0.0298095703125
0.0322265625
0.0298095703125
0.0298095703125
0.0314208984375
0.0298095703125
0.0298095703125
1.533984375
2.4919189453125
3.0317138671875
3.034130859375
3.0309082031249996
3.0309082031249996
3.034130859375
3.027685546875
3.034130859375
2.977734375
2.9173095703125
2.85849609375
2.7465087890624997
2.5797363281249996
3.0325195312499997
3.0317138671875
3.0317138671875
3.0317138671875
3.0325195312499997
3.0325195312499997
2.0262451171875
0.8177490234375
0.0298095703125
0.0298095703125
0.030615234374999998
0.033032226562499996
0.02900390625
0.0322265625
0.030615234374999998
0.0298095703125
0.0314208984375
0.0298095703125
0.08701171875
0.12165527343749999
0.14421386718749998
0.0314208984375
0.033837890625
0.02900390625
0.0314208984375
0.023364257812499997
0.0322265625
0.02900390625
0.030615234374999998
2.2324951171875
2.947119140625
3.0317138671875
3.0317138671875
3.037353515625
3.0317138671875
3.0301025390625
3.034130859375
3.0325195312499997
3.001904296875
2.9302001953124996
2.9205322265625
2.78759765625
3.037353515625
3.0333251953125
3.0317138671875
3.0317138671875
3.0333251953125
3.0317138671875
3.0325195312499997
1.3494873046875
0.02900390625
0.0298095703125
0.024169921875
0.026586914062499998
0.0322265625
0.02900390625
0.0298095703125
0.0298095703125
0.033032226562499996
0.041088867187499996
0.1490478515625
0.2441162109375
0.27231445312499997
0.030615234374999998
0.02578125
0.0298095703125
0.02900390625
0.026586914062499998
0.0298095703125
0.0298095703125
0.0314208984375
2.1696533203125
2.9221435546874996
3.0333251953125
3.0325195312499997
3.0357421875
3.0317138671875
3.0301025390625
3.0284912109374997
3.0083496093749997
2.9656494140625
2.892333984375
2.7988769531249997
2.6417724609374997
2.5007812499999997
3.0349365234374996
3.0389648437499996
3.0284912109374997
3.0325195312499997
3.0317138671875
3.0325195312499997
1.6685302734374998
0.39799804687499996
0.02900390625
0.02900390625
0.02900390625
0.030615234374999998
0.0298095703125
0.030615234374999998
0.0298095703125
0.0298095703125
0.033837890625
0.0314208984375
0.0555908203125
0.1119873046875
0.182080078125
0.024169921875
0.0281982421875
0.0281982421875
0.02900390625
0.0314208984375
0.030615234374999998
0.02900390625
1.464697265625
2.5233398437499996
3.034130859375
3.0309082031249996
3.0309082031249996
3.0357421875
3.0309082031249996
3.0333251953125
3.027685546875
2.9479248046874997
2.85205078125
2.7779296875
3.0333251953125
2.4387451171875
3.0357421875
3.0301025390625
3.0317138671875
3.0317138671875
3.0325195312499997
3.029296875
1.7531249999999998
1.0288330078124999
0.024169921875
0.0298095703125
0.023364257812499997
0.02578125
0.0298095703125
0.0322265625
0.0281982421875
0.15468749999999998
0.0322265625
0.02578125
0.10231933593749999
0.23203125
0.2876220703125
0.0298095703125
0.0298095703125
0.0281982421875
0.030615234374999998
0.02900390625
0.023364257812499997
0.02900390625
0.4149169921875
2.3356201171874997
3.0309082031249996
3.037353515625
3.0309082031249996
3.0333251953125
3.0317138671875
3.0333251953125
3.0349365234374996
2.8447998046875
2.9285888671875
2.8480224609375
2.6490234375
2.5716796874999996
2.6240478515624996
3.0301025390625
3.0309082031249996
3.0325195312499997
3.0317138671875
3.0309082031249996
3.0284912109374997
1.5017578125
0.033837890625
0.033837890625
0.0314208984375
0.030615234374999998
0.026586914062499998
0.02578125
0.0281982421875
0.030615234374999998
0.0298095703125
0.31904296875
0.0966796875
0.1635498046875
0.23928222656249998
0.0298095703125
0.0249755859375
0.02900390625
0.0281982421875
0.0322265625
0.02900390625
0.024169921875
0.0298095703125
1.687060546875
2.7328124999999996
3.0301025390625
3.0284912109374997
3.0365478515624997
3.0317138671875
3.0317138671875
3.0325195312499997
3.034130859375
2.8947509765625
2.9261718749999996
2.8633300781249997
2.7303955078124997
2.5885986328125
3.0309082031249996
3.0357421875
3.0349365234374996
3.0268798828124996
3.0309082031249996
3.0309082031249996
1.6773925781249999
0.030615234374999998
0.0281982421875
0.026586914062499998
0.02900390625
0.0281982421875
0.02900390625
0.0322265625
0.0298095703125
0.030615234374999998
0.0314208984375
0.03544921875
0.11279296875
0.1699951171875
0.1571044921875
0.0298095703125
0.0298095703125
0.02900390625
0.0298095703125
0.0322265625
0.0298095703125
0.0314208984375
1.5645996093749999
2.6047119140625
3.0325195312499997
3.0333251953125
3.0333251953125
3.0325195312499997
3.0317138671875
3.0325195312499997
3.027685546875
2.91328125
2.81982421875
2.7811523437499996
2.6933349609375
3.0156005859375
3.0309082031249996
3.0309082031249996
3.0309082031249996
3.0365478515624997
3.0325195312499997
3.0309082031249996
2.5499267578125
1.171435546875
0.0298095703125
0.0322265625
0.02900390625
0.02900390625
0.024169921875
0.02900390625
0.02900390625
0.026586914062499998
0.0281982421875
0.027392578124999997
0.0346435546875
0.15791015625
0.1893310546875
0.0298095703125
0.0314208984375
0.02578125
0.0298095703125
0.0314208984375
0.0281982421875
0.033032226562499996
0.030615234374999998
2.109228515625
3.0123779296874997
3.0301025390625
3.0325195312499997
3.0301025390625
3.0333251953125
3.034130859375
2.802099609375
3.0099609375
2.8802490234375
2.8955566406249997
2.7593994140625
2.618408203125
2.5531494140624997
3.027685546875
3.0301025390625
3.029296875
3.029296875
3.0333251953125
3.027685546875
1.5251220703125
0.0281982421875
0.026586914062499998
0.02900390625
0.0298095703125
0.030615234374999998
0.030615234374999998
0.0281982421875
0.033032226562499996
0.0298095703125
0.02900390625
0.5478515625
0.12890625
0.13857421875
0.1651611328125
0.0249755859375
0.0322265625
0.0281982421875
0.0314208984375
0.02900390625
0.0281982421875
0.02900390625
1.4598632812499999
1.9279541015625
2.9737060546875
3.0357421875
3.034130859375
3.0317138671875
3.0325195312499997
3.029296875
2.900390625
2.9503417968749996
2.900390625
2.7730957031249996
2.6804443359374996
2.54267578125
3.0333251953125
3.0349365234374996
3.0349365234374996
3.0301025390625
3.0325195312499997
3.0333251953125
1.82724609375
0.075732421875
0.030615234374999998
0.0298095703125
0.0298095703125
0.0249755859375
0.027392578124999997
0.02900390625
0.026586914062499998
0.030615234374999998
0.030615234374999998
0.030615234374999998
0.064453125
0.18046874999999998
0.159521484375
0.0249755859375
0.02900390625
0.0298095703125
0.033837890625
0.0281982421875
0.030615234374999998
0.02900390625
1.13115234375
2.470166015625
3.0027099609374996
3.0333251953125
3.0389648437499996
3.0301025390625
3.0317138671875
3.0325195312499997
3.0317138671875
2.921337890625
2.8874999999999997
2.7489257812499996
2.663525390625
2.5531494140624997
3.037353515625
3.034130859375
3.0325195312499997
3.0325195312499997
3.0309082031249996
3.0309082031249996
2.289697265625
0.6912597656249999
0.02900390625
0.033032226562499996
0.0298095703125
0.027392578124999997
0.0281982421875
0.026586914062499998
0.02900390625
0.030615234374999998
0.0298095703125
0.059619140625
0.17241210937499998
0.1490478515625
0.16274414062499998
0.0314208984375
0.022558593749999998
0.02900390625
0.0298095703125
0.02578125
0.0298095703125
0.02900390625
0.026586914062499998
2.3323974609375
2.96162109375
3.029296875
3.034130859375
3.027685546875
3.0301025390625
3.027685546875
3.011572265625
3.0333251953125
2.8947509765625
2.72958984375
2.6619140624999997
2.5515380859374996
3.0325195312499997
3.0357421875
3.0301025390625
3.0325195312499997
3.0284912109374997
3.029296875
3.034130859375
1.2495849609374998
0.030615234374999998
0.0281982421875
0.0298095703125
0.030615234374999998
0.0298095703125
0.0298095703125
0.033032226562499996
0.02900390625
0.0298095703125
0.0281982421875
0.0298095703125
0.0443115234375
0.141796875
0.1377685546875
0.0281982421875
0.030615234374999998
0.02900390625
0.0281982421875
0.02900390625
0.0249755859375
0.0298095703125
2.1116455078125
2.8222412109375
2.47822265625
3.029296875
3.0325195312499997
3.0309082031249996
3.0309082031249996
3.0309082031249996
2.689306640625
2.6522460937499996
2.6401611328124996
2.6103515625
2.5322021484375
2.4121582031249997
3.0357421875
3.034130859375
3.0325195312499997
3.029296875
3.0309082031249996
3.0317138671875
1.477587890625
0.2441162109375
0.030615234374999998
0.0281982421875
0.02578125
0.027392578124999997
0.02900390625
0.0281982421875
0.02900390625
0.02900390625
0.0298095703125
0.0298095703125
0.0668701171875
0.107958984375
0.15629882812499998
0.0298095703125
0.0281982421875
0.023364257812499997
0.0298095703125
0.0298095703125
0.0249755859375
0.02900390625
1.6967285156249998
2.5692626953124997
3.029296875
3.0309082031249996
3.0309082031249996
3.0317138671875
3.0317138671875
3.0301025390625
3.02607421875
2.7497314453125
2.771484375
2.647412109375
2.57490234375
2.4564697265624997
3.0268798828124996
3.0365478515624997
3.0317138671875
3.0317138671875
3.0317138671875
3.034130859375
2.4419677734375
1.0707275390625
0.02900390625
0.02900390625
0.02900390625
0.02900390625
0.0298095703125
0.0346435546875
0.02900390625
0.0668701171875
0.024169921875
0.02578125
0.0281982421875
0.033837890625
0.0281982421875
0.02900390625
0.0346435546875
0.02900390625
0.0281982421875
0.0314208984375
0.023364257812499997
0.02578125
0.0298095703125
2.160791015625
2.8133789062499996
3.0309082031249996
3.0309082031249996
3.0333251953125
3.0317138671875
3.0349365234374996
3.0268798828124996
3.0317138671875
2.86494140625
2.7481201171875
2.6860839843749997
2.5370361328124997
2.4999755859375
3.029296875
3.0325195312499997
3.027685546875
3.034130859375
3.0309082031249996
3.0317138671875
1.2906738281249999
0.030615234374999998
0.024169921875
0.030615234374999998
0.024169921875
0.0322265625
0.0249755859375
0.0249755859375
0.030615234374999998
0.0298095703125
0.02900390625
0.033032226562499996
0.043505859375
0.1071533203125
0.0314208984375
0.02900390625
0.02900390625
0.033032226562499996
0.0281982421875
0.030615234374999998
0.0298095703125
0.0249755859375
1.1915771484375
2.1785156249999997
2.808544921875
3.0301025390625
3.0325195312499997
3.0317138671875
3.0357421875
3.0244628906249997
2.9922363281249997
3.0301025390625
2.73603515625
2.60068359375
2.4822509765625
2.3468994140625
3.0349365234374996
3.029296875
3.029296875
3.0301025390625
3.0325195312499997
3.0333251953125
1.4606689453125
0.4390869140625
0.02900390625
0.0298095703125
0.02900390625
0.0298095703125
0.026586914062499998
0.02900390625
0.0314208984375
0.033032226562499996
0.0298095703125
0.0281982421875
0.03544921875
0.09829101562499999
0.103125
0.0249755859375
0.0298095703125
0.02900390625
0.030615234374999998
0.02900390625
0.026586914062499998
0.0322265625
0.0314208984375
1.313232421875
2.0343017578125
2.402490234375
2.5716796874999996
2.7448974609374996
2.8995849609374997
2.81982421875
2.4234375
2.7658447265625
2.666748046875
2.578125
2.4830566406249996
2.3726806640625
3.037353515625
3.0309082031249996
3.0301025390625
3.027685546875
3.04541015625
3.0309082031249996
2.6925292968749996
1.0497802734375
0.027392578124999997
0.0314208984375
0.033032226562499996
0.02900390625
0.0281982421875
0.0298095703125
0.5196533203125
0.0281982421875
0.02900390625
0.0298095703125
0.0281982421875
0.06606445312499999
0.027392578124999997
0.033837890625
0.02578125
0.02578125
0.0298095703125
0.030615234374999998
0.033032226562499996
0.033837890625
0.0298095703125
2.14951171875
3.0325195312499997
3.0397705078125
3.0317138671875
3.0268798828124996
3.034130859375
3.0325195312499997
3.027685546875
2.9020019531249996
2.834326171875
2.7739013671875
2.6055175781249997
2.4870849609374996
2.360595703125
3.0325195312499997
3.0325195312499997
3.0333251953125
3.0365478515624997
3.0333251953125
3.0284912109374997
1.4356933593749999
0.0281982421875
0.02900390625
0.030615234374999998
0.02578125
0.0298095703125
0.0314208984375
0.030615234374999998
0.027392578124999997
0.02900390625
0.0298095703125
0.0281982421875
0.07412109374999999
0.0845947265625
0.08056640625
0.02578125
0.02900390625
0.026586914062499998
0.02900390625
0.0298095703125
0.0322265625
0.0298095703125
2.7134765625
3.0325195312499997
3.0365478515624997
3.0325195312499997
3.0317138671875
3.0284912109374997
3.0333251953125
3.0349365234374996
2.7988769531249997
2.8230468749999997
3.0333251953125
2.6361328124999996
2.5233398437499996
2.357373046875
3.0357421875
3.0309082031249996
3.0268798828124996
3.034130859375
3.0317138671875
3.0325195312499997
1.8344970703124999
0.5422119140625
0.026586914062499998
0.0281982421875
0.026586914062499998
0.0281982421875
0.026586914062499998
0.02900390625
0.02900390625
0.02900390625
0.0298095703125
0.0281982421875
0.02900390625
0.049145507812499996
0.07734374999999999
0.02900390625
0.02900390625
0.030615234374999998
0.0298095703125
0.0314208984375
0.0281982421875
0.027392578124999997
2.8818603515624996
3.0309082031249996
3.0309082031249996
3.0317138671875
3.0325195312499997
3.0309082031249996
3.0317138671875
3.018017578125
3.0309082031249996
2.8319091796875
2.769873046875
2.615185546875
2.462109375
2.3315917968749997
3.0365478515624997
3.0357421875
3.0333251953125
3.0325195312499997
3.034130859375
3.0325195312499997
2.9455078125
1.1496826171874999
0.033032226562499996
0.027392578124999997
0.0281982421875
0.033837890625
0.02900390625
0.024169921875
0.02900390625
0.0281982421875
0.0281982421875
0.0281982421875
0.0249755859375
0.0298095703125
0.0717041015625
0.0249755859375
0.0298095703125
0.02578125
0.030615234374999998
0.030615234374999998
0.02578125
0.02900390625
2.5386474609375
3.0325195312499997
3.0333251953125
3.0317138671875
3.0317138671875
3.0333251953125
2.69091796875
3.0325195312499997
2.9438964843749997
3.0309082031249996
2.760205078125
2.642578125
2.5370361328124997
2.3565673828125
2.2067138671874997
3.0309082031249996
3.034130859375
3.034130859375
3.0325195312499997
3.0301025390625
3.0284912109374997
1.26005859375
0.02900390625
0.02578125
0.0281982421875
0.02900390625
0.0281982421875
0.024169921875
0.02900390625
0.02900390625
0.0249755859375
0.0298095703125
0.02578125
0.0298095703125
0.0298095703125
0.0298095703125
0.0298095703125
0.0298095703125
0.0314208984375
0.0298095703125
0.0298095703125
0.030615234374999998
0.02900390625
3.0325195312499997
3.0325195312499997
3.0325195312499997
3.0317138671875
3.0301025390625
3.0333251953125
3.0309082031249996
3.003515625
2.7005859374999996
2.7996826171875
3.0325195312499997
3.0357421875
3.0309082031249996
3.0284912109374997
3.0309082031249996
3.0268798828124996
3.0236572265625
3.0252685546875
3.0317138671875
3.0309082031249996
3.0357421875
3.0301025390625
3.029296875
3.0325195312499997
3.0301025390625
3.0317138671875
3.0357421875
3.0325195312499997
3.0325195312499997
3.0325195312499997
3.0309082031249996
3.0317138671875
3.027685546875
3.0309082031249996
3.0317138671875
0.476953125
0.1409912109375
0.34079589843749997
0.42619628906249996
0.863671875
1.554931640625
2.7755126953125
3.034130859375
3.0325195312499997
3.0357421875
3.0333251953125
3.0333251953125
3.0309082031249996
3.0325195312499997
3.0317138671875
3.0357421875
3.0317138671875
3.029296875
3.0365478515624997
3.0309082031249996
3.0309082031249996
3.0284912109374997
3.0309082031249996
3.034130859375
3.0325195312499997
3.0284912109374997
3.0462158203125
3.0309082031249996
3.0325195312499997
3.0325195312499997
3.0309082031249996
3.0325195312499997
3.0309082031249996
2.6377441406249997
1.8369140625
1.3736572265625
0.9716308593749999
0.5180419921875
0.31904296875
0.19899902343749998
0.1329345703125
0.095068359375
0.033032226562499996
0.02900390625
0.310986328125
0.21914062499999998
0.2457275390625
0.40605468749999996
0.5647705078124999
1.2584472656249999
0.5744384765625
0.3037353515625
0.249755859375
0.2537841796875
0.28842773437499997
0.19094238281249998
0.36496582031249997
0.3673828125
0.5212646484375
0.5204589843749999
0.49870605468749996
0.5099853515625
0.5099853515625
0.662255859375
1.3108154296874999
0.5285156249999999
0.5438232421875
0.5647705078124999
0.47373046874999997
0.45761718749999997
0.2578125
0.42619628906249996
0.6952880859374999
0.8201660156249999
0.8822021484375
0.9772705078124999
1.052197265625
1.1206787109375
1.139208984375
1.1666015625
1.20849609375
1.224609375
1.2455566406249998
1.2656982421874998
1.268115234375
0.6840087890625
1.4630859374999998
1.4872558593749998
1.5073974609374998
1.5839355468749998
1.654833984375
1.9617919921875
1.893310546875
1.4711425781249998
1.3913818359374999
1.3575439453125
1.3462646484374998
1.340625
1.3011474609375
1.300341796875
1.284228515625
1.2987304687499999
1.3108154296874999
1.3067871093749999
1.3140380859374998
1.3188720703124999
3.0317138671875
3.0325195312499997
2.4556640625
1.719287109375
1.171435546875
1.0787841796875
0.95068359375
1.003857421875
1.1077880859375
1.1859374999999999
1.393798828125
1.2665039062499999
1.2914794921875
1.3470703124999999
1.3494873046875
1.3801025390625
1.368017578125
1.429248046875
1.4252197265625
1.4268310546874998
1.4445556640625
1.2254150390625
1.529150390625
1.6967285156249998
1.699951171875
1.6854492187499999
1.77568359375
1.9215087890625
1.7813232421874998
1.6008544921874999
1.5315673828124998
1.41796875
1.3849365234375
1.4107177734374998
1.368017578125
1.3728515625
1.37607421875
1.3672119140624999
1.361572265625
1.3639892578125
1.3801025390625
1.3631835937499999
1.558154296875
1.3849365234375
1.2673095703125
1.2656982421874998
1.219775390625
1.1923828125
1.148876953125
1.1666015625
1.2238037109375
1.3237060546875
1.3744628906249998
1.4655029296875
1.4606689453125
1.525927734375
1.5428466796875
1.5702392578125
1.574267578125
1.5847412109374999
1.58232421875
1.58232421875
1.571044921875
1.429248046875
1.5565429687499999
1.7208984374999998
1.714453125
1.7861572265624999
1.8135498046874998
1.82080078125
1.9053955078125
1.74345703125
1.6371093749999999
1.59521484375
1.5509033203125
1.5146484375
1.47275390625
1.4783935546875
1.4397216796874999
1.456640625
1.4590576171874998
1.4477783203124999
1.4510009765624998
1.432470703125
1.4896728515625
1.4888671875
1.3639892578125
1.34384765625
1.3108154296874999
1.2334716796875
1.2076904296875
1.200439453125
1.2673095703125
1.335791015625
1.3921875
1.4477783203124999
1.5170654296875
1.5621826171875
1.577490234375
1.6089111328124999
1.6121337890624998
1.622607421875
1.6153564453125
1.6564453124999998
1.6137451171875
1.5533203125
1.5686279296874999
1.7015624999999999
1.7152587890625
1.7474853515625
1.8071044921875
1.8248291015625
1.9078125
1.7821289062499999
1.6862548828125
1.6177734375
1.571044921875
1.5323730468749999
1.5251220703125
1.46953125
1.4461669921875
1.44052734375
1.4437499999999999
1.4429443359374998
1.4445556640625
1.448583984375
1.4719482421874999
1.5573486328125
1.4493896484375
1.4356933593749999
1.4300537109375
1.348681640625
1.27939453125
1.2310546875
1.264892578125
1.3148437499999999
1.3704345703124998
1.4284423828125
1.4759765624999999
1.5017578125
1.5517089843749998
1.574267578125
1.5992431640625
1.6129394531249999
1.6121337890624998
1.60166015625
1.60166015625
1.5927978515624999
1.5041748046874999
1.674169921875
1.71123046875
1.7474853515625
1.7893798828124998
1.80791015625
1.8949218749999999
1.8312744140625
1.6959228515625
1.6330810546874999
1.574267578125
1.5428466796875
1.5057861328125
1.4759765624999999
1.4558349609374999
1.4469726562499998
1.4510009765624998
1.4316650390624999
1.429248046875
1.43408203125
1.4381103515625
1.5557373046874998
1.4437499999999999
1.3583496093749998
1.3253173828125
1.281005859375
1.2528076171875
1.2060791015624999
1.239111328125
1.2906738281249999
1.3817138671875
1.4373046875
1.4679199218749999
1.5235107421874998
1.5589599609375
1.5799072265624998
1.5879638671874998
1.6089111328124999
1.6000488281249998
1.577490234375
1.5895751953125
1.6161621093749998
1.5267333984375
1.6451660156249999
1.7200927734375
1.7458740234374999
1.7901855468749999
1.8232177734375
1.8635009765625
1.8699462890624998
1.7490966796874998
1.6572509765624999
1.5968261718749999
1.558154296875
1.5146484375
1.482421875
1.4679199218749999
1.4526123046875
1.4630859374999998
1.4518066406249999
1.45341796875
1.4429443359374998
1.456640625
1.58232421875
1.4655029296875
1.3825195312499998
1.3551269531249999
1.2938964843749998
1.2777832031249998
1.2479736328125
1.2334716796875
1.2914794921875
1.35673828125
1.409912109375
1.474365234375
1.5025634765625
1.5444580078124999
1.5645996093749999
1.5750732421875
1.5992431640625
1.6105224609375
1.6185791015625
1.6161621093749998
1.6137451171875
1.538818359375
1.6218017578125
1.719287109375
1.7337890624999999
1.78857421875
1.8087158203125
1.82724609375
1.8876708984375
1.7619873046874999
1.6862548828125
1.622607421875
1.5533203125
1.529150390625
1.4912841796874998
1.4687255859375
1.46630859375
1.456640625
1.4510009765624998
1.4469726562499998
1.4630859374999998
1.4630859374999998
1.5090087890625
1.506591796875
1.3921875
1.345458984375
1.3075927734375
1.2697265624999998
1.2568359375
1.22783203125
1.2665039062499999
1.3382080078124998
1.4115234374999999
1.4638916015624999
1.5009521484375
1.5404296874999999
1.5686279296874999
1.587158203125
1.587158203125
1.6072998046875
1.6185791015625
1.6177734375
1.609716796875
1.5517089843749998
1.5492919921875
1.6935058593749999
1.7329833984374998
1.767626953125
1.8014648437499998
1.8232177734375
1.9005615234375
1.82080078125
1.7168701171874998
1.62744140625
1.571044921875
1.533984375
1.4912841796874998
1.482421875
1.4671142578124998
1.4437499999999999
1.4501953125
1.4493896484375
1.4413330078125
1.4542236328125
1.45341796875
1.5484863281249999
1.3865478515624998
1.348681640625
1.316455078125
1.27939453125
1.2624755859374999
1.21494140625
1.2624755859374999
1.3430419921874999
1.3905761718749998
1.4437499999999999
1.4896728515625
1.5299560546875
1.5686279296874999
1.5831298828125
1.609716796875
1.6024658203125
1.6089111328124999
1.6185791015625
1.619384765625
1.6234130859375
1.5146484375
1.6927001953124998
1.719287109375
1.7539306640624999
1.7934082031249998
1.815966796875
1.8699462890624998
1.844970703125
1.7039794921875
1.64677734375
1.5944091796875
1.5476806640624998
1.5122314453124999
1.480810546875
1.4767822265625
1.4606689453125
1.448583984375
1.445361328125
1.445361328125
1.4477783203124999
1.4501953125
1.5492919921875
1.4244140625
1.3720458984375
1.34384765625
1.2802001953125
1.2745605468749999
1.2286376953125
1.2592529296875
1.3124267578125
1.3744628906249998
1.4373046875
1.4961181640624999
1.5243164062499999
1.5718505859374998
1.5887695312499999
1.5984375
1.611328125
1.6137451171875
1.6185791015625
1.6298583984375
1.6185791015625
1.522705078125
1.6508056640625
1.719287109375
1.76279296875
1.7958251953125
1.82080078125
1.8409423828125
1.8498046874999998
1.7378173828124999
1.6765869140624998
1.5992431640625
1.5565429687499999
1.5194824218749998
1.477587890625
1.4598632812499999
1.456640625
1.4461669921875
1.44052734375
1.4389160156249998
1.448583984375
1.4590576171874998
1.5331787109375
1.4655029296875
1.3664062499999998
1.3341796874999998
1.2979248046874998
1.2608642578125
1.2423339843749999
1.2536132812499998
1.2930908203125
1.377685546875
1.4236083984374999
1.46953125
1.5033691406249998
1.5654052734375
1.5895751953125
1.6000488281249998
1.6137451171875
1.6129394531249999
1.62744140625
1.62744140625
1.62744140625
1.5412353515625
1.60166015625
1.7096191406249999
1.7410400390624998
1.783740234375
1.8095214843749998
1.8336914062499998
1.88525390625
1.7692382812499998
1.6669189453125
1.6089111328124999
1.5670166015625
1.5218994140625
1.4896728515625
1.4735595703125
1.458251953125
1.4501953125
1.45341796875
1.44052734375
1.461474609375
1.4469726562499998
1.4735595703125
1.5267333984375
1.3744628906249998
1.35673828125
1.3220947265624998
1.2656982421874998
1.2503906249999999
1.2205810546875
1.2906738281249999
1.3559326171875
1.413134765625
1.4655029296875
1.5146484375
1.5533203125
1.5799072265624998
1.603271484375
1.6048828124999999
1.6121337890624998
1.6218017578125
1.61455078125
1.61455078125
1.5895751953125
1.5782958984375
1.6878662109375
1.7208984374999998
1.7668212890625
1.8151611328125
1.832080078125
1.8828369140624999
1.77890625
1.7015624999999999
1.6371093749999999
1.5839355468749998
1.5275390624999998
1.5041748046874999
1.4832275390624998
1.4622802734375
1.456640625
1.4493896484375
1.4518066406249999
1.4364990234375
1.4381103515625
1.4518066406249999
1.522705078125
1.3962158203125
1.3639892578125
1.3156494140625
1.2882568359375
1.264892578125
1.2302490234374999
1.268115234375
1.3309570312499999
1.3929931640625
1.458251953125
1.49853515625
1.5275390624999998
1.5831298828125
1.5831298828125
1.6000488281249998
1.61455078125
1.6218017578125
1.6121337890624998
1.6185791015625
1.6008544921874999
1.5275390624999998
1.6765869140624998
1.7168701171874998
1.7660156249999999
1.8022705078124999
1.8006591796875
1.8892822265625
1.828857421875
1.72734375
1.654833984375
1.590380859375
1.5347900390625
1.50498046875
1.4864501953125
1.4735595703125
1.4606689453125
1.4606689453125
1.4477783203124999
1.4526123046875
1.4477783203124999
1.4493896484375
1.5436523437499998
1.4397216796874999
1.36962890625
1.33740234375
1.2930908203125
1.2737548828124998
1.2310546875
1.248779296875
1.2995361328125
1.3913818359374999
1.4477783203124999
1.4759765624999999
1.533984375
1.5637939453124998
1.5831298828125
1.593603515625
1.606494140625
1.6153564453125
1.6218017578125
1.6153564453125
1.6177734375
1.5106201171875
1.6266357421875
1.7176757812499999
1.7466796875
1.7845458984375
1.8151611328125
1.8457763671874998
1.864306640625
1.7611816406249998
1.6588623046875
1.609716796875
1.5573486328125
1.5114257812499998
1.4872558593749998
1.47275390625
1.4598632812499999
1.4477783203124999
1.461474609375
1.442138671875
1.4413330078125
1.4429443359374998
1.513037109375
1.4373046875
1.3631835937499999
1.3527099609375
1.2995361328125
1.2737548828124998
1.248779296875
1.2423339843749999
1.3019531249999998
1.3639892578125
1.4276367187499999
1.4800048828124999
1.5154541015624998
1.5597656249999998
1.5758789062499998
1.5976318359375
1.6121337890624998
1.609716796875
1.6185791015625
1.6161621093749998
1.609716796875
1.5525146484374999
1.611328125
1.719287109375
1.7370117187499998
1.79501953125
1.8119384765625
1.82724609375
1.8900878906249998
1.76279296875
1.6798095703125
1.6185791015625
1.561376953125
1.5267333984375
1.4953124999999998
1.4735595703125
1.4574462890625
1.4501953125
1.445361328125
1.4493896484375
1.442138671875
1.4461669921875
1.5041748046874999
1.5017578125
1.3905761718749998
1.3510986328124999
1.3067871093749999
1.2745605468749999
1.2616699218749998
1.2415283203124998
1.2737548828124998
1.3559326171875
1.4252197265625
1.4679199218749999
1.5017578125
1.5331787109375
1.5686279296874999
1.5960205078124998
1.6137451171875
1.6137451171875
1.6185791015625
1.6177734375
1.6161621093749998
1.574267578125
1.558154296875
1.6910888671875
1.7297607421874999
1.7660156249999999
1.8054931640624998
1.8095214843749998
1.89169921875
1.7934082031249998
1.7120361328125
1.62744140625
1.5734619140625
1.53076171875
1.493701171875
1.490478515625
1.47275390625
1.4622802734375
1.461474609375
1.4622802734375
1.4791992187499998
1.4558349609374999
1.4477783203124999
1.5436523437499998
1.4115234374999999
1.3583496093749998
1.3220947265624998
1.287451171875
1.2584472656249999
1.229443359375
1.2697265624999998
1.3333740234375
1.40185546875
1.4429443359374998
1.4840332031249999
1.542041015625
1.5662109375
1.59521484375
1.6056884765625
1.6161621093749998
1.6201904296874998
1.6169677734374999
1.6137451171875
1.611328125
1.5138427734375
1.687060546875
1.7249267578124998
1.7499023437499999
1.7877685546875
1.8232177734375
1.864306640625
1.8385253906249999
1.706396484375
1.6451660156249999
1.5976318359375
1.5509033203125
1.5146484375
1.4872558593749998
1.4655029296875
1.4558349609374999
1.4526123046875
1.4413330078125
1.4477783203124999
1.4518066406249999
1.4413330078125
1.533984375
1.4171630859375
1.3728515625
1.3599609375
1.2818115234374998
1.268115234375
1.22783203125
1.26328125
1.3148437499999999
1.3792968749999999
1.4300537109375
1.493701171875
1.5235107421874998
1.5678222656249998
1.585546875
1.5944091796875
1.6048828124999999
1.6209960937499999
1.6185791015625
1.6153564453125
1.61455078125
1.5146484375
1.6443603515624998
1.7176757812499999
1.7410400390624998
1.7958251953125
1.8119384765625
1.8361083984375
1.843359375
1.7345947265625
1.667724609375
1.6105224609375
1.5525146484374999
1.5218994140625
1.4872558593749998
1.4630859374999998
1.461474609375
1.456640625
1.4461669921875
1.445361328125
1.4437499999999999
1.4493896484375
1.533984375
1.4671142578124998
1.377685546875
1.340625
1.303564453125
1.2745605468749999
1.2374999999999998
1.252001953125
1.3043701171875
1.3607666015625
1.4332763671875
1.4767822265625
1.5154541015624998
1.5565429687499999
1.5847412109374999
1.587158203125
1.60166015625
1.6177734375
1.6201904296874998
1.6121337890624998
1.609716796875
1.5299560546875
1.5960205078124998
1.7007568359374998
1.7394287109375
1.77890625
1.8087158203125
1.8385253906249999
1.8844482421875
1.7684326171875
1.6854492187499999
1.6048828124999999
1.561376953125
1.53076171875
1.4896728515625
1.477587890625
1.4590576171874998
1.458251953125
1.4469726562499998
1.4332763671875
1.4389160156249998
1.4493896484375
1.4783935546875
1.522705078125
1.3833251953124999
1.3551269531249999
1.3156494140625
1.2737548828124998
1.2616699218749998
1.235888671875
1.2673095703125
1.3583496093749998
1.409912109375
1.4655029296875
1.5162597656249999
1.5428466796875
1.5702392578125
1.587158203125
1.6056884765625
1.6137451171875
1.6169677734374999
1.619384765625
1.6153564453125
1.593603515625
1.5364013671874999
1.69833984375
1.73056640625
1.7619873046874999
1.8103271484374999
1.82080078125
1.869140625
1.8119384765625
1.6862548828125
1.6234130859375
1.5758789062499998
1.5323730468749999
1.5106201171875
1.477587890625
1.46630859375
1.4550292968749998
1.4461669921875
1.45341796875
1.4381103515625
1.4501953125
1.4510009765624998
1.5194824218749998
1.4010498046875
1.3736572265625
1.3140380859374998
1.284228515625
1.2673095703125
1.224609375
1.2737548828124998
1.335791015625
1.3946044921874998
1.4574462890625
1.493701171875
1.5194824218749998
1.5678222656249998
1.5911865234375
1.606494140625
1.611328125
1.6137451171875
1.611328125
1.6161621093749998
1.619384765625
1.5404296874999999
1.6765869140624998
1.719287109375
1.7700439453124999
1.799853515625
1.8199951171875
1.8820312499999998
1.8175781249999998
1.716064453125
1.651611328125
1.5750732421875
1.546875
1.506591796875
1.477587890625
1.46953125
1.458251953125
1.4461669921875
1.4461669921875
1.4445556640625
1.4477783203124999
1.4501953125
1.5436523437499998
1.4373046875
1.3688232421875
1.3365966796875
1.2914794921875
1.271337890625
1.224609375
1.271337890625
1.3067871093749999
1.3954101562499999
1.4332763671875
1.4864501953125
1.5186767578125
1.5637939453124998
1.5863525390625
1.5960205078124998
1.6137451171875
1.611328125
1.6121337890624998
1.6129394531249999
1.6201904296874998
1.5146484375
1.6306640625
1.714453125
1.748291015625
1.783740234375
1.8095214843749998
1.8506103515624999
1.8578613281249998
1.7523193359375
1.6572509765624999
1.603271484375
1.5589599609375
1.5146484375
1.4896728515625
1.46953125
1.4542236328125
1.4445556640625
1.4413330078125
1.4477783203124999
1.4445556640625
1.458251953125
1.496923828125
1.4429443359374998
1.3752685546874999
1.3470703124999999
1.3188720703124999
1.276171875
1.2511962890625
1.2536132812499998
1.313232421875
1.37607421875
1.4276367187499999
1.46953125
1.52109375
1.5597656249999998
1.574267578125
1.5992431640625
1.6056884765625
1.6105224609375
1.6137451171875
1.6185791015625
1.6129394531249999
1.5412353515625
1.6250244140624999
1.7120361328125
1.7313720703125
1.7611816406249998
1.8103271484374999
1.8232177734375
1.8908935546874999
1.7619873046874999
1.6806152343749998
1.62744140625
1.5541259765625
1.5251220703125
1.5017578125
1.4864501953125
1.4638916015624999
1.448583984375
1.4638916015624999
1.445361328125
1.4550292968749998
1.4493896484375
1.5057861328125
1.490478515625
1.3849365234375
1.3607666015625
1.303564453125
1.2777832031249998
1.2640869140625
1.2479736328125
1.2866455078124999
1.3502929687499998
1.42119140625
1.461474609375
1.5017578125
1.5396240234374998
1.5758789062499998
1.5927978515624999
1.6008544921874999
1.6153564453125
1.6000488281249998
1.6081054687499998
1.6266357421875
1.55009765625
1.5645996093749999
1.690283203125
1.73056640625
1.7732666015624998
1.8119384765625
1.8119384765625
1.8820312499999998
1.796630859375
1.7015624999999999
1.6322753906249998
1.5799072265624998
1.5299560546875
1.513037109375
1.477587890625
1.48564453125
1.4783935546875
1.458251953125
1.4518066406249999
1.442138671875
1.4510009765624998
1.4501953125
1.5436523437499998
1.40830078125
1.361572265625
1.3220947265624998
1.2858398437499998
1.2689208984375
1.2447509765625
1.2955078125
1.3607666015625
1.409912109375
1.4493896484375
1.4953124999999998
1.5355957031249998
1.5670166015625
1.5919921874999998
1.6048828124999999
1.6129394531249999
1.6137451171875
1.6040771484374998
1.6121337890624998
1.6121337890624998
1.5146484375
1.6854492187499999
1.7184814453125
1.7474853515625
1.796630859375
1.8143554687499999
1.861083984375
1.8377197265624998
1.7055908203124999
1.638720703125
1.587158203125
1.5347900390625
1.509814453125
1.4848388671875
1.4711425781249998
1.4518066406249999
1.4493896484375
1.4493896484375
1.445361328125
1.4461669921875
1.4493896484375
1.6081054687499998
1.416357421875
1.3688232421875
1.3333740234375
1.2890625
1.2560302734375
1.2342773437499999
1.2689208984375
1.327734375
1.380908203125
1.429248046875
1.4888671875
1.5162597656249999
1.5654052734375
1.59521484375
1.6048828124999999
1.609716796875
1.609716796875
1.6242187499999998
1.6185791015625
1.6081054687499998
1.5138427734375
1.6483886718749998
1.7168701171874998
1.7394287109375
1.796630859375
1.812744140625
1.8385253906249999
1.8506103515624999
1.735400390625
1.6685302734374998
1.603271484375
1.542041015625
1.5170654296875
1.4888671875
1.4703369140625
1.4630859374999998
1.4510009765624998
1.4493896484375
1.4526123046875
1.4437499999999999
1.4469726562499998
1.5404296874999999
1.4687255859375
1.3825195312499998
1.3422363281249998
1.3019531249999998
1.284228515625
1.2431396484375
1.2536132812499998
1.3019531249999998
1.3591552734374999
1.4348876953124998
1.4687255859375
1.5025634765625
1.56298828125
1.5791015625
1.5968261718749999
1.6129394531249999
1.6153564453125
1.6169677734374999
1.6177734375
1.6048828124999999
1.5251220703125
1.603271484375
1.69833984375
1.7507080078125
1.7668212890625
1.7990478515625
1.84013671875
1.8788085937499999
1.76279296875
1.6854492187499999
1.6153564453125
1.5509033203125
1.529150390625
1.482421875
1.47275390625
1.464697265625
1.4493896484375
1.4598632812499999
1.448583984375
1.448583984375
1.45341796875
1.480810546875
1.5186767578125
1.3929931640625
1.361572265625
1.313232421875
1.2689208984375
1.2592529296875
1.2528076171875
1.2745605468749999
1.3575439453125
1.4147460937499998
1.4526123046875
1.5057861328125
1.55009765625
1.5726562499999999
1.5887695312499999
1.6048828124999999
1.6129394531249999
1.611328125
1.6129394531249999
1.6169677734374999
1.5758789062499998
1.5492919921875
1.7015624999999999
1.7281494140625
1.7692382812499998
1.8111328125
1.8296630859374998
1.88525390625
1.8046875
1.6886718749999998
1.6290527343749999
1.5758789062499998
1.5251220703125
1.5025634765625
1.4848388671875
1.4590576171874998
1.45341796875
1.456640625
1.4526123046875
1.448583984375
1.4501953125
1.4518066406249999
1.5162597656249999
1.3986328124999998
1.3575439453125
1.3140380859374998
1.2858398437499998
1.2689208984375
1.24716796875
1.2673095703125
1.3301513671874998
1.38896484375
1.4542236328125
1.4961181640624999
1.5218994140625
1.5670166015625
1.590380859375
1.6072998046875
1.6177734375
1.6242187499999998
1.6137451171875
1.6121337890624998
1.622607421875
1.542041015625
1.67900390625
1.719287109375
1.7660156249999999
1.8006591796875
1.8175781249999998
1.864306640625
1.8087158203125
1.703173828125
1.6524169921874998
1.5863525390625
1.5476806640624998
1.5154541015624998
1.4816162109375
1.4630859374999998
1.4550292968749998
1.4510009765624998
1.4437499999999999
1.4397216796874999
1.448583984375
1.4501953125
1.533984375
1.432470703125
1.3728515625
1.335791015625
1.30517578125
1.27939453125
1.2383056640624999
1.2640869140625
1.3059814453124998
1.3881591796875
1.4397216796874999
1.4872558593749998
1.5194824218749998
1.5654052734375
1.590380859375
1.5992431640625
1.6072998046875
1.619384765625
1.6201904296874998
1.6153564453125
1.6089111328124999
1.5162597656249999
1.635498046875
1.7184814453125
1.7490966796874998
1.7861572265624999
1.812744140625
1.8417480468749998
1.8651123046875
1.7474853515625
1.6532226562499999
1.6105224609375
1.5436523437499998
1.50498046875
1.4816162109375
1.4638916015624999
1.4671142578124998
1.45341796875
1.4510009765624998
1.4445556640625
1.4477783203124999
1.4501953125
1.5186767578125
1.432470703125
1.380908203125
1.351904296875
1.3188720703124999
1.2826171874999999
1.252001953125
1.2495849609374998
1.31162109375
1.3792968749999999
1.42119140625
1.4888671875
1.5146484375
1.561376953125
1.5791015625
1.5984375
1.6072998046875
1.6153564453125
1.606494140625
1.6161621093749998
1.6121337890624998
1.5404296874999999
1.6298583984375
1.7047851562499998
1.7362060546875
1.7748779296875
1.8022705078124999
1.8216064453124998
1.8812255859375
1.738623046875
1.6701416015625
1.6089111328124999
1.5565429687499999
1.525927734375
1.4977294921875
1.4759765624999999
1.4671142578124998
1.4526123046875
1.45341796875
1.442138671875
1.442138671875
