1.5492919921875
1.5267333984375
1.5315673828124998
1.5960205078124998
1.561376953125
1.5404296874999999
1.53720703125
1.5194824218749998
0.6380859375
1.2447509765625
1.638720703125
1.5243164062499999
1.5654052734375
1.7136474609374999
2.43310546875
1.8119384765625
1.5364013671874999
1.4501953125
1.464697265625
1.464697265625
1.5033691406249998
1.4880615234374999
1.49853515625
1.46953125
1.474365234375
1.490478515625
1.4953124999999998
1.4961181640624999
1.4993408203124998
1.6451660156249999
1.8054931640624998
1.4058837890625
1.4719482421874999
1.4469726562499998
1.2802001953125
1.09248046875
1.271337890625
1.224609375
1.4034667968749999
1.5283447265624999
1.53720703125
1.5194824218749998
1.5025634765625
1.5396240234374998
1.545263671875
1.5565429687499999
1.55009765625
1.5235107421874998
1.55009765625
1.5315673828124998
0.6968994140625
1.1851318359375
1.6765869140624998
1.5541259765625
1.5839355468749998
1.7176757812499999
1.8240234375
2.0584716796875
1.5895751953125
1.46953125
1.4389160156249998
1.4711425781249998
1.4622802734375
1.5170654296875
1.506591796875
1.5073974609374998
1.4791992187499998
1.4791992187499998
1.4872558593749998
1.490478515625
1.4816162109375
1.545263671875
2.204296875
1.4630859374999998
1.46953125
1.5025634765625
1.3752685546874999
1.1287353515625
1.2697265624999998
1.1529052734375
1.3382080078124998
1.4735595703125
1.5082031249999999
1.5251220703125
1.525927734375
1.5573486328125
1.533984375
1.5557373046874998
1.5315673828124998
1.546875
1.56298828125
1.5162597656249999
1.4332763671875
0.7299316406249999
1.5734619140625
1.5678222656249998
1.5412353515625
1.6403320312499998
1.7200927734375
2.3557617187499997
1.7539306640624999
1.482421875
1.4461669921875
1.4598632812499999
1.4469726562499998
1.5090087890625
1.4920898437499999
1.5041748046874999
1.4848388671875
1.4687255859375
1.5009521484375
1.4928955078125
1.4864501953125
1.5114257812499998
2.3525390625
1.522705078125
1.4316650390624999
1.48564453125
1.3833251953124999
1.34384765625
1.21171875
1.158544921875
1.3494873046875
1.46953125
1.5025634765625
1.5218994140625
1.461474609375
1.5428466796875
1.5492919921875
1.5138427734375
1.5597656249999998
1.5484863281249999
1.56943359375
1.533984375
1.5162597656249999
0.6727294921875
1.5541259765625
1.6645019531249998
1.5331787109375
1.603271484375
1.67900390625
2.357373046875
1.6991455078125
1.5283447265624999
1.4332763671875
1.4445556640625
1.464697265625
1.4912841796874998
1.4719482421874999
1.477587890625
1.458251953125
1.4759765624999999
1.5146484375
1.5009521484375
1.4977294921875
1.5090087890625
2.2832519531249997
1.803076171875
1.3905761718749998
1.5009521484375
1.4598632812499999
1.2963134765625
1.0626708984375
1.2173583984375
1.2262207031249999
1.4010498046875
1.4953124999999998
1.5073974609374998
1.5138427734375
1.5573486328125
1.5331787109375
1.529150390625
1.5807128906249999
1.546875
1.5251220703125
1.5275390624999998
1.525927734375
0.684814453125
1.2052734375
1.62744140625
1.5251220703125
1.585546875
1.7474853515625
2.2107421874999997
2.093115234375
1.609716796875
1.45341796875
1.4389160156249998
1.4187744140624998
1.4542236328125
1.4598632812499999
1.5194824218749998
1.4928955078125
1.4800048828124999
1.4953124999999998
1.5057861328125
1.4840332031249999
1.49853515625
1.5726562499999999
1.8707519531249999
1.4139404296875
1.4791992187499998
1.4888671875
1.3059814453124998
1.1222900390625
1.2503906249999999
1.2181640624999999
1.3857421875
1.47275390625
1.5017578125
1.509814453125
1.5283447265624999
1.5565429687499999
1.5347900390625
1.5396240234374998
1.5597656249999998
1.5331787109375
1.545263671875
1.5267333984375
1.3502929687499998
1.1335693359374999
1.6693359374999999
1.5621826171875
1.6008544921874999
1.7152587890625
1.7337890624999999
2.3340087890625
1.603271484375
1.4759765624999999
1.4638916015624999
1.4912841796874998
1.4832275390624998
1.50498046875
1.4832275390624998
1.4888671875
1.48564453125
1.464697265625
1.4872558593749998
1.4880615234374999
1.493701171875
1.509814453125
2.29453125
1.49853515625
1.46630859375
1.4703369140625
1.3905761718749998
1.329345703125
1.2898681640624998
1.15048828125
1.3261230468749998
1.493701171875
1.5090087890625
1.5243164062499999
1.5057861328125
1.5645996093749999
1.542041015625
1.5267333984375
1.5573486328125
1.5444580078124999
1.55009765625
1.5589599609375
1.477587890625
0.6815917968749999
1.5557373046874998
1.587158203125
1.538818359375
1.6234130859375
1.7128417968749998
2.3678466796874997
1.72412109375
1.48564453125
1.4397216796874999
1.4413330078125
1.4719482421874999
1.509814453125
1.4840332031249999
1.4896728515625
1.4671142578124998
1.48564453125
1.4945068359375
1.4864501953125
1.5017578125
1.49853515625
2.3001708984375
1.5243164062499999
1.43408203125
1.493701171875
1.4074951171874999
1.3422363281249998
1.0997314453125
1.1464599609375
1.3059814453124998
1.4590576171874998
1.5041748046874999
1.513037109375
1.4791992187499998
1.5597656249999998
1.5573486328125
1.53076171875
1.5992431640625
1.5645996093749999
1.5380126953125
1.5170654296875
1.5090087890625
0.6260009765625
1.496923828125
1.6411376953124999
1.5315673828124998
1.6185791015625
1.7217041015624999
2.180126953125
1.8441650390625
1.5218994140625
1.4381103515625
1.4477783203124999
1.45341796875
1.4888671875
1.4791992187499998
1.522705078125
1.496923828125
1.4461669921875
1.5162597656249999
1.49853515625
1.4816162109375
1.480810546875
2.2083251953125
1.8377197265624998
1.3913818359374999
1.50498046875
1.4526123046875
1.27939453125
1.1061767578125
1.2052734375
1.22138671875
1.3978271484375
1.49853515625
1.5267333984375
1.5162597656249999
1.5654052734375
1.554931640625
1.546875
1.5484863281249999
1.542041015625
1.5218994140625
1.51787109375
1.5283447265624999
0.704150390625
1.158544921875
1.6685302734374998
1.5355957031249998
1.5911865234375
1.7039794921875
2.0697509765624997
2.19140625
1.6137451171875
1.4252197265625
1.4518066406249999
1.4679199218749999
1.4719482421874999
1.4638916015624999
1.4945068359375
1.4880615234374999
1.458251953125
1.4791992187499998
1.4888671875
1.4880615234374999
1.5154541015624998
1.5645996093749999
1.948095703125
1.409912109375
1.432470703125
1.4655029296875
1.2995361328125
1.0892578124999999
1.2890625
1.1996337890625
1.3921875
1.4953124999999998
1.5138427734375
1.5106201171875
1.5106201171875
1.546875
1.55009765625
1.5726562499999999
1.5541259765625
1.5525146484374999
1.522705078125
1.522705078125
1.47275390625
1.0368896484374999
1.6435546875
1.5670166015625
1.5839355468749998
1.7055908203124999
1.77890625
2.3557617187499997
1.5944091796875
1.46630859375
1.4397216796874999
1.448583984375
1.4832275390624998
1.4888671875
1.4888671875
1.482421875
1.46630859375
1.4880615234374999
1.50498046875
1.49853515625
1.496923828125
1.5009521484375
2.3195068359374997
1.5315673828124998
1.4469726562499998
1.4920898437499999
1.3857421875
1.3430419921874999
1.2262207031249999
1.1617675781249999
1.297119140625
1.4953124999999998
1.5114257812499998
1.529150390625
1.496923828125
1.546875
1.5509033203125
1.5331787109375
1.561376953125
1.5444580078124999
1.53720703125
1.5186767578125
1.51787109375
0.652587890625
1.5436523437499998
1.6048828124999999
1.5509033203125
1.611328125
1.7450683593749998
2.3517333984374997
1.687060546875
1.4816162109375
1.4510009765624998
1.45341796875
1.45341796875
1.4888671875
1.4953124999999998
1.50498046875
1.4993408203124998
1.46630859375
1.5041748046874999
1.5001464843749999
1.4791992187499998
1.4864501953125
2.247802734375
1.5670166015625
1.42119140625
1.4993408203124998
1.4236083984374999
1.3494873046875
1.12470703125
1.147265625
1.29228515625
1.44052734375
1.4977294921875
1.5082031249999999
1.4888671875
1.5847412109374999
1.5444580078124999
1.5799072265624998
1.5702392578125
1.533984375
1.538818359375
1.5412353515625
1.5170654296875
0.5760498046875
1.4300537109375
1.654833984375
1.5428466796875
1.6153564453125
1.7474853515625
1.909423828125
2.0044921875
1.5686279296874999
1.4445556640625
1.456640625
1.4655029296875
1.4888671875
1.5017578125
1.5001464843749999
1.4518066406249999
1.4123291015625
1.48564453125
1.496923828125
1.4945068359375
1.4920898437499999
2.126953125
1.925537109375
1.400244140625
1.4888671875
1.4437499999999999
1.2955078125
1.061865234375
1.197216796875
1.197216796875
1.4598632812499999
1.509814453125
1.522705078125
1.5090087890625
1.5436523437499998
1.545263671875
1.5525146484374999
1.5863525390625
1.5476806640624998
1.538818359375
1.5218994140625
1.5106201171875
0.8306396484374999
1.0763671875
1.6411376953124999
1.538818359375
1.5645996093749999
1.7692382812499998
1.9134521484375
2.255859375
1.585546875
1.4501953125
1.4389160156249998
1.4397216796874999
1.4687255859375
1.490478515625
1.509814453125
1.4767822265625
1.4606689453125
1.4928955078125
1.480810546875
1.4816162109375
1.5033691406249998
1.496923828125
2.012548828125
1.43408203125
1.4630859374999998
1.4445556640625
1.3067871093749999
1.30517578125
1.2576416015624998
1.1794921875
1.3430419921874999
1.480810546875
1.522705078125
1.5041748046874999
1.5218994140625
1.59521484375
1.590380859375
1.558154296875
1.55009765625
1.5138427734375
1.533984375
1.5275390624999998
1.00546875
0.9531005859374999
1.6177734375
1.554931640625
1.5484863281249999
1.6943115234375
1.722509765625
2.3138671875
1.6653076171874999
1.4783935546875
1.4469726562499998
1.4469726562499998
1.46953125
1.5033691406249998
1.49853515625
1.4864501953125
1.4920898437499999
1.480810546875
1.48564453125
1.4791992187499998
1.47275390625
1.4888671875
2.376708984375
1.456640625
1.4638916015624999
1.4767822265625
1.3873535156249999
1.3253173828125
1.24716796875
1.152099609375
1.345458984375
1.474365234375
1.5073974609374998
1.5364013671874999
1.5251220703125
1.5573486328125
1.5404296874999999
1.542041015625
1.546875
1.5275390624999998
1.5283447265624999
1.5436523437499998
1.5315673828124998
0.5768554687499999
1.622607421875
1.6201904296874998
1.5404296874999999
1.6773925781249999
1.6814208984374999
2.302587890625
1.7370117187499998
1.4953124999999998
1.4373046875
1.4501953125
1.4719482421874999
1.509814453125
1.4848388671875
1.5114257812499998
1.48564453125
1.4606689453125
1.4888671875
1.480810546875
1.4880615234374999
1.496923828125
2.3855712890625
1.5992431640625
1.3986328124999998
1.4832275390624998
1.4437499999999999
1.3043701171875
1.119873046875
1.1706298828125
1.281005859375
1.4542236328125
1.5315673828124998
1.545263671875
1.493701171875
1.5565429687499999
1.5146484375
1.53720703125
1.6040771484374998
1.5565429687499999
1.5404296874999999
1.5347900390625
1.5090087890625
0.5607421874999999
1.405078125
1.67578125
1.5525146484374999
1.6250244140624999
1.7555419921875
2.3275634765624997
1.9625976562499998
1.5517089843749998
1.4477783203124999
1.4630859374999998
1.4816162109375
1.4679199218749999
1.474365234375
1.4638916015624999
1.4066894531249998
1.442138671875
1.474365234375
1.4800048828124999
1.48564453125
1.509814453125
2.006103515625
2.0044921875
1.3905761718749998
1.4759765624999999
1.4510009765624998
1.3100097656249998
1.1367919921875
1.21171875
1.184326171875
1.4268310546874998
1.529150390625
1.5509033203125
1.496923828125
1.55009765625
1.5428466796875
1.529150390625
1.558154296875
1.5380126953125
1.53076171875
1.5355957031249998
1.5218994140625
0.97646484375
1.3317626953125
1.6846435546874998
1.593603515625
1.5839355468749998
1.7418457031249999
1.7732666015624998
2.309033203125
1.61455078125
1.458251953125
1.448583984375
1.4373046875
1.45341796875
1.4880615234374999
1.4598632812499999
1.482421875
1.4759765624999999
1.496923828125
1.4953124999999998
1.4920898437499999
1.50498046875
1.7845458984375
2.1084228515625
1.40830078125
1.4364990234375
1.46630859375
1.303564453125
1.3220947265624998
1.216552734375
1.1657958984374999
1.3398193359375
1.4630859374999998
1.5299560546875
1.5460693359375
1.5444580078124999
1.577490234375
1.542041015625
1.538818359375
1.5218994140625
1.53720703125
1.53720703125
1.5428466796875
1.184326171875
0.8765624999999999
1.65
1.56298828125
1.5476806640624998
1.662890625
1.7668212890625
2.3718749999999997
1.8046875
1.4953124999999998
1.426025390625
1.4558349609374999
1.4783935546875
1.4961181640624999
1.4719482421874999
1.4711425781249998
1.4413330078125
1.4542236328125
1.5073974609374998
1.4961181640624999
1.480810546875
1.474365234375
2.3968505859375
1.464697265625
1.4703369140625
1.496923828125
1.35673828125
1.2834228515625
1.1134277343749999
1.1794921875
1.3462646484374998
1.4840332031249999
1.5235107421874998
1.5412353515625
1.4945068359375
1.5637939453124998
1.5444580078124999
1.542041015625
1.5879638671874998
1.5509033203125
1.5476806640624998
1.546875
1.51787109375
0.7863281249999999
1.638720703125
1.6669189453125
1.5847412109374999
1.651611328125
1.6806152343749998
2.2888916015625
1.7507080078125
1.493701171875
1.416357421875
1.442138671875
1.45341796875
1.5106201171875
1.4896728515625
1.5106201171875
1.4469726562499998
1.4655029296875
1.4912841796874998
1.4679199218749999
1.4759765624999999
1.5001464843749999
2.3952392578125
1.6363037109374998
1.4042724609375
1.4759765624999999
1.4058837890625
1.255224609375
0.992578125
1.1786865234375
1.2576416015624998
1.482421875
1.5090087890625
1.4687255859375
1.4493896484375
1.496923828125
1.4993408203124998
1.5025634765625
1.53720703125
1.5283447265624999
1.5218994140625
1.55009765625
1.53720703125
0.562353515625
1.3261230468749998
1.6314697265625
1.5621826171875
1.6346923828125
1.74345703125
2.1132568359375
2.1551513671875
1.5525146484374999
1.4767822265625
1.461474609375
1.4542236328125
1.5106201171875
1.4751708984374998
1.4896728515625
1.51787109375
1.474365234375
1.5170654296875
1.5154541015624998
1.5114257812499998
1.477587890625
1.8570556640625
1.7692382812499998
1.4034667968749999
1.4816162109375
1.4236083984374999
1.2439453125
1.1319580078125
1.1835205078125
1.2447509765625
1.4123291015625
1.4791992187499998
1.5235107421874998
1.5146484375
1.5645996093749999
1.5686279296874999
1.554931640625
1.5484863281249999
1.5146484375
1.5146484375
1.506591796875
1.4783935546875
0.456005859375
1.1512939453125
1.6209960937499999
1.5283447265624999
1.5726562499999999
1.7660156249999999
1.799853515625
2.405712890625
1.780517578125
1.474365234375
1.41796875
1.442138671875
1.4655029296875
1.490478515625
1.50498046875
1.4671142578124998
1.4228027343749998
1.4364990234375
1.4832275390624998
1.5017578125
1.5299560546875
1.75634765625
2.360595703125
1.506591796875
1.482421875
1.456640625
1.2858398437499998
1.1931884765625
1.077978515625
1.103759765625
1.2898681640624998
1.442138671875
1.482421875
1.545263671875
1.5476806640624998
1.5436523437499998
1.5815185546875
1.56943359375
1.571044921875
1.5509033203125
1.5533203125
1.5299560546875
1.2399169921875
0.630029296875
1.6717529296875
1.5428466796875
1.545263671875
1.6935058593749999
1.8175781249999998
2.6208251953125
1.9247314453125
1.4920898437499999
1.4389160156249998
1.4445556640625
1.4751708984374998
1.4864501953125
1.5114257812499998
1.493701171875
1.4606689453125
1.4928955078125
1.4953124999999998
1.5041748046874999
1.474365234375
1.5017578125
2.4943359375
1.542041015625
1.4461669921875
1.4816162109375
1.351904296875
1.2568359375
0.849169921875
1.036083984375
1.252001953125
1.51787109375
1.5492919921875
1.5734619140625
1.509814453125
1.5807128906249999
1.5605712890624999
1.5251220703125
1.5847412109374999
1.53720703125
1.5283447265624999
1.529150390625
1.5138427734375
0.4632568359375
1.5444580078124999
1.6733642578124999
1.5702392578125
1.662890625
1.7829345703125
2.241357421875
2.05927734375
1.5484863281249999
1.4058837890625
1.3591552734374999
1.361572265625
1.4300537109375
1.4542236328125
1.4928955078125
1.4437499999999999
1.400244140625
1.4461669921875
1.4308593749999998
1.4364990234375
1.480810546875
2.7062255859374997
1.8248291015625
1.4244140625
1.4880615234374999
1.416357421875
1.1980224609374999
0.845947265625
0.9635742187499999
1.0852294921874999
1.4276367187499999
1.509814453125
1.5347900390625
1.4928955078125
1.558154296875
1.525927734375
1.56298828125
1.6040771484374998
1.5686279296874999
1.554931640625
1.5323730468749999
1.5275390624999998
0.1635498046875
1.07958984375
1.6749755859375
1.5879638671874998
1.65
1.8425537109374999
2.07861328125
2.6538574218749997
1.8739746093749998
1.461474609375
1.4244140625
1.4139404296875
1.4630859374999998
1.432470703125
1.5057861328125
1.509814453125
1.4518066406249999
1.46953125
1.482421875
1.4606689453125
1.4461669921875
1.80791015625
1.9553466796874999
1.4066894531249998
1.4461669921875
1.400244140625
1.1690185546875
1.100537109375
0.95068359375
1.0207763671874999
1.3301513671874998
1.50498046875
1.545263671875
1.5355957031249998
1.558154296875
1.5887695312499999
1.58232421875
1.5984375
1.611328125
1.5573486328125
1.5484863281249999
1.5138427734375
0.2263916015625
1.0119140625
1.7579589843749999
1.625830078125
1.6266357421875
1.812744140625
1.8256347656249998
2.6232421875
1.8465820312499999
1.5033691406249998
1.4413330078125
1.461474609375
1.4816162109375
1.5017578125
1.482421875
1.413134765625
1.384130859375
1.4219970703125
1.448583984375
1.45341796875
1.4880615234374999
1.6089111328124999
2.67158203125
1.558154296875
1.4445556640625
1.4800048828124999
1.2785888671874999
1.1319580078125
0.8660888671875
0.913623046875
1.1295410156249999
1.4759765624999999
1.51787109375
1.529150390625
1.5597656249999998
1.5831298828125
1.546875
1.5702392578125
1.5911865234375
1.56298828125
1.5162597656249999
1.5154541015624998
1.3672119140624999
0.2771484375
1.4880615234374999
1.585546875
1.5734619140625
1.7080078125
1.880419921875
2.8125732421875
2.2357177734375
1.5525146484374999
1.4228027343749998
1.4074951171874999
1.4518066406249999
1.5444580078124999
1.456640625
1.4590576171874998
1.477587890625
1.4139404296875
1.46630859375
1.4735595703125
1.4832275390624998
1.4590576171874998
2.956787109375
1.6298583984375
1.442138671875
1.4880615234374999
1.3100097656249998
1.2125244140625
0.7557128906249999
0.839501953125
1.0787841796875
1.332568359375
1.4542236328125
1.50498046875
1.4630859374999998
1.5911865234375
1.5750732421875
1.6000488281249998
1.6129394531249999
1.5541259765625
1.5565429687499999
1.5686279296874999
1.554931640625
0.037060546874999996
1.3575439453125
1.638720703125
1.56943359375
1.7104248046875
1.9029785156249999
2.31064453125
2.4951416015624996
1.79501953125
1.4510009765624998
1.3905761718749998
1.3801025390625
1.4638916015624999
1.47275390625
1.5001464843749999
1.461474609375
1.4171630859375
1.4590576171874998
1.4622802734375
1.44052734375
1.4510009765624998
2.9914306640625
2.1470947265625
1.4413330078125
1.4912841796874998
1.3962158203125
1.0997314453125
0.6469482421874999
0.8612548828125
0.9007324218749999
1.3478759765625
1.4606689453125
1.4896728515625
1.46630859375
1.5863525390625
1.5476806640624998
1.5517089843749998
1.6185791015625
1.5927978515624999
1.5726562499999999
1.56298828125
1.5605712890624999
0.011279296874999999
0.8096923828125
1.6403320312499998
1.5662109375
1.6395263671875
1.9223144531249998
2.4774169921875
2.8681640625
1.9698486328125
1.4671142578124998
1.3897705078125
1.38896484375
1.4687255859375
1.4477783203124999
1.4920898437499999
1.429248046875
1.4244140625
1.4526123046875
1.4590576171874998
1.4791992187499998
1.4630859374999998
1.690283203125
2.3211181640625
1.4816162109375
1.4501953125
1.3784912109374998
1.08603515625
1.036083984375
0.7734375
0.8113037109375
1.1698242187499999
1.40185546875
1.5186767578125
1.5194824218749998
1.603271484375
1.625830078125
1.577490234375
1.5815185546875
1.5815185546875
1.5686279296874999
1.5460693359375
1.52109375
0.0120849609375
0.6098876953125
1.6451660156249999
1.554931640625
1.63388671875
1.9166748046875
2.0625
3.003515625
2.1454833984375
1.5887695312499999
1.4034667968749999
1.36962890625
1.44052734375
1.522705078125
1.4993408203124998
1.4493896484375
1.4526123046875
1.429248046875
1.4767822265625
1.5315673828124998
1.5114257812499998
1.4840332031249999
2.9608154296875
1.670947265625
1.442138671875
1.4655029296875
1.24716796875
0.9917724609374999
0.7927734375
0.6630615234374999
0.9402099609375
1.348681640625
1.5017578125
1.5670166015625
1.5992431640625
1.6129394531249999
1.611328125
1.6048828124999999
1.577490234375
1.5533203125
1.5782958984375
1.5726562499999999
1.4671142578124998
0.0088623046875
1.264892578125
1.56298828125
1.554931640625
1.7047851562499998
1.980322265625
3.005126953125
2.5853759765624997
1.65966796875
1.4195800781249999
1.3954101562499999
1.43408203125
1.493701171875
1.4953124999999998
1.496923828125
1.4791992187499998
1.409912109375
1.448583984375
1.4759765624999999
1.4832275390624998
1.4630859374999998
3.003515625
1.8022705078124999
1.47275390625
1.5243164062499999
1.3124267578125
1.095703125
0.47373046874999997
0.6711181640624999
0.8805908203124999
1.2656982421874998
1.4203857421875
1.5533203125
1.46630859375
1.6177734375
1.5782958984375
1.542041015625
1.670947265625
1.6056884765625
1.6105224609375
1.5895751953125
1.5557373046874998
0.0120849609375
1.1964111328125
1.6451660156249999
1.5662109375
1.6975341796874999
1.980322265625
2.7779296875
2.5587890625
1.8828369140624999
1.4993408203124998
1.38896484375
1.3817138671875
1.4381103515625
1.4244140625
1.50498046875
1.4510009765624998
1.448583984375
1.4598632812499999
1.458251953125
1.5082031249999999
1.4920898437499999
3.003515625
2.3581787109375
1.4711425781249998
1.5162597656249999
1.3905761718749998
1.018359375
0.4640625
0.64775390625
0.639697265625
1.0812011718749999
1.409912109375
1.522705078125
1.509814453125
1.6435546875
1.6314697265625
1.5645996093749999
1.6266357421875
1.6081054687499998
1.622607421875
1.622607421875
1.5460693359375
0.0120849609375
0.562353515625
1.7104248046875
1.5565429687499999
1.6177734375
1.9996582031249999
2.334814453125
3.0010986328125
2.14306640625
1.5170654296875
1.377685546875
1.35673828125
1.4711425781249998
1.4195800781249999
1.4848388671875
1.4638916015624999
1.3736572265625
1.409912109375
1.4518066406249999
1.42119140625
1.4445556640625
1.55009765625
2.5636230468749996
1.52109375
1.4397216796874999
1.4469726562499998
0.9974121093749999
0.7702148437499999
0.7323486328125
0.69287109375
1.0626708984375
1.4042724609375
1.5315673828124998
1.5355957031249998
1.53720703125
1.5815185546875
1.56943359375
1.5968261718749999
1.5791015625
1.5517089843749998
1.571044921875
1.554931640625
1.4139404296875
0.32871093749999997
1.6250244140624999
1.6121337890624998
1.6459716796875
1.8739746093749998
1.9827392578124998
3.0043212890624997
2.2349121093749997
1.5927978515624999
1.3792968749999999
1.2882568359375
1.3502929687499998
1.461474609375
1.5057861328125
1.5114257812499998
1.4115234374999999
1.3414306640625
1.4518066406249999
1.4332763671875
1.4413330078125
1.4477783203124999
2.9986816406249996
1.7595703125
1.4461669921875
1.4228027343749998
1.2189697265625
1.06025390625
0.510791015625
0.555908203125
0.8483642578124999
1.364794921875
1.5057861328125
1.5041748046874999
1.4348876953124998
1.6048828124999999
1.5879638671874998
1.61455078125
1.6475830078125
1.5758789062499998
1.6161621093749998
1.5645996093749999
1.5436523437499998
0.011279296874999999
1.2544189453124999
1.5919921874999998
1.587158203125
1.7281494140625
2.0214111328124997
3.0027099609374996
2.634521484375
1.909423828125
1.4373046875
1.3639892578125
1.3752685546874999
1.50498046875
1.4800048828124999
1.5041748046874999
1.3978271484375
1.3929931640625
1.4268310546874998
1.4518066406249999
1.490478515625
1.5017578125
3.001904296875
1.9110351562499999
1.445361328125
1.461474609375
1.264892578125
1.0417236328125
0.359326171875
0.5003173828124999
0.6654785156249999
1.148876953125
1.4276367187499999
1.5839355468749998
1.51787109375
1.6886718749999998
1.6451660156249999
1.6048828124999999
1.6781982421875
1.6137451171875
1.6129394531249999
1.593603515625
1.5597656249999998
0.012890625
1.0948974609375
1.6153564453125
1.525927734375
1.7466796875
2.1140624999999997
2.4290771484375
2.989013671875
2.0979492187499997
1.66611328125
1.5106201171875
1.4316650390624999
1.47275390625
1.4397216796874999
1.525927734375
1.48564453125
1.40830078125
1.4800048828124999
1.4832275390624998
1.5033691406249998
1.5114257812499998
3.0027099609374996
2.650634765625
1.6121337890624998
1.5573486328125
1.4510009765624998
1.061865234375
0.3343505859375
0.456005859375
0.4890380859375
0.889453125
1.3212890625
1.4928955078125
1.5170654296875
1.6121337890624998
1.6282470703124998
1.590380859375
1.6491943359374999
1.619384765625
1.6371093749999999
1.5750732421875
1.5597656249999998
0.014501953125
0.214306640625
1.496923828125
1.493701171875
1.5791015625
1.9585693359374998
2.2711669921874997
3.0043212890624997
2.4145751953125
1.6612792968749999
1.4888671875
1.3954101562499999
1.4042724609375
1.4719482421874999
1.5541259765625
1.509814453125
1.4026611328124998
1.4510009765624998
1.4332763671875
1.4606689453125
1.4703369140625
1.44052734375
3.003515625
1.6967285156249998
1.5218994140625
1.5186767578125
1.074755859375
0.8902587890625
0.3117919921875
0.3424072265625
0.8000244140624999
1.222998046875
1.37607421875
1.4655029296875
1.5009521484375
1.6048828124999999
1.5718505859374998
1.5887695312499999
1.699951171875
1.651611328125
1.6322753906249998
1.5831298828125
1.5283447265624999
0.0314208984375
1.37607421875
1.4389160156249998
1.464697265625
1.899755859375
2.083447265625
3.003515625
2.43310546875
1.8949218749999999
1.6153564453125
1.456640625
1.4389160156249998
1.545263671875
1.5243164062499999
1.5347900390625
1.4236083984374999
1.4187744140624998
1.4791992187499998
1.4703369140625
1.4518066406249999
1.4638916015624999
3.0059326171875
2.038330078125
1.611328125
1.6612792968749999
1.3728515625
1.1061767578125
0.33354492187499996
0.2215576171875
0.5164306640624999
0.9837158203124999
1.3309570312499999
1.4574462890625
1.413134765625
1.603271484375
1.5831298828125
1.5944091796875
1.6403320312499998
1.590380859375
1.5662109375
1.590380859375
1.5484863281249999
0.011279296874999999
0.9990234375
1.4888671875
1.4542236328125
1.6878662109375
2.0657226562499997
3.0002929687499997
3.0002929687499997
2.2107421874999997
1.6781982421875
1.5057861328125
1.4437499999999999
1.5750732421875
1.5202880859374999
1.5484863281249999
1.4880615234374999
1.3229003906249999
1.4348876953124998
1.4638916015624999
1.4461669921875
1.4622802734375
3.003515625
2.1849609375
1.6242187499999998
1.6798095703125
1.461474609375
0.9974121093749999
0.252978515625
0.359326171875
0.491455078125
0.984521484375
1.2665039062499999
1.4574462890625
1.384130859375
1.561376953125
1.561376953125
1.5839355468749998
1.6725585937499998
1.6556396484375
1.61455078125
1.606494140625
1.5831298828125
0.011279296874999999
0.8096923828125
1.52109375
1.456640625
1.6330810546874999
2.080224609375
2.30419921875
3.003515625
2.231689453125
1.7603759765625
1.56298828125
1.458251953125
1.49853515625
1.4880615234374999
1.542041015625
1.493701171875
1.40830078125
1.4501953125
1.4872558593749998
1.4429443359374998
1.4526123046875
2.85849609375
2.8963623046875
1.7555419921875
1.635498046875
1.53720703125
1.039306640625
0.8225830078124999
0.43828124999999996
0.33837890625
0.7565185546875
1.26005859375
1.4034667968749999
1.458251953125
1.477587890625
1.6000488281249998
1.6435546875
1.6081054687499998
1.6830322265625
1.67578125
1.6346923828125
1.538818359375
0.012890625
0.0378662109375
1.3728515625
1.4493896484375
1.5186767578125
1.8908935546874999
2.386376953125
3.003515625
2.44599609375
1.9537353515625
1.522705078125
1.4413330078125
1.4461669921875
1.4655029296875
1.5122314453124999
1.545263671875
1.43408203125
1.4655029296875
1.4953124999999998
1.4920898437499999
1.47275390625
1.4590576171874998
3.0010986328125
1.791796875
1.622607421875
1.5750732421875
1.0981201171875
0.9394042968749999
0.30615234375
0.20061035156249998
0.6791748046874999
1.095703125
1.3309570312499999
1.4445556640625
1.4920898437499999
1.609716796875
1.6153564453125
1.658056640625
1.6435546875
1.6024658203125
1.5879638671874998
1.5750732421875
1.5525146484374999
0.011279296874999999
1.32451171875
1.4719482421874999
1.4711425781249998
1.8546386718749999
2.1132568359375
3.0002929687499997
2.73603515625
2.0302734375
1.670947265625
1.4413330078125
1.432470703125
1.538818359375
1.5573486328125
1.5323730468749999
1.513037109375
1.393798828125
1.4381103515625
1.44052734375
1.4373046875
1.4574462890625
3.0010986328125
2.141455078125
1.6121337890624998
1.6089111328124999
1.3962158203125
1.0675048828125
0.2280029296875
0.165966796875
0.44633789062499996
0.9756591796874999
1.329345703125
1.490478515625
1.4187744140624998
1.5766845703124999
1.5919921874999998
1.5895751953125
1.6862548828125
1.6411376953124999
1.6379150390625
1.6242187499999998
1.5678222656249998
0.0088623046875
0.8064697265624999
1.4993408203124998
1.4469726562499998
1.67578125
2.1374267578125
3.0083496093749997
3.005126953125
2.2985595703125
1.6693359374999999
1.4606689453125
1.397021484375
1.5025634765625
1.5251220703125
1.5758789062499998
1.513037109375
1.4236083984374999
1.46630859375
1.482421875
1.4735595703125
1.4703369140625
2.9704833984374996
2.36865234375
1.6121337890624998
1.6072998046875
1.4920898437499999
1.0030517578125
0.515625
0.33193359375
0.3391845703125
0.863671875
1.2431396484375
1.4437499999999999
1.4542236328125
1.538818359375
1.6008544921874999
1.6564453124999998
1.7370117187499998
1.6669189453125
1.6129394531249999
1.6040771484374998
1.5654052734375
0.014501953125
0.662255859375
1.4840332031249999
1.477587890625
1.6363037109374998
2.1728759765625
2.3372314453125
3.001904296875
2.3372314453125
1.8103271484374999
1.5718505859374998
1.4429443359374998
1.47275390625
1.477587890625
1.5122314453124999
1.533984375
1.405078125
1.4308593749999998
1.4510009765624998
1.4832275390624998
1.47275390625
2.4919189453125
3.0002929687499997
1.8095214843749998
1.65966796875
1.56298828125
1.05380859375
0.85400390625
0.31904296875
0.1611328125
0.6372802734374999
1.20849609375
1.4630859374999998
1.4864501953125
1.506591796875
1.6411376953124999
1.6000488281249998
1.6346923828125
1.6411376953124999
1.5815185546875
1.5992431640625
1.6024658203125
0.4278076171875
0.013696289062499999
1.3317626953125
1.4598632812499999
1.506591796875
1.8755859375
2.280029296875
2.9994873046875
2.7650390624999996
2.075390625
1.5919921874999998
1.4252197265625
1.464697265625
1.5509033203125
1.5218994140625
1.5170654296875
1.5194824218749998
1.429248046875
1.445361328125
1.4268310546874998
1.48564453125
1.4389160156249998
3.001904296875
1.88525390625
1.65
1.5944091796875
1.1303466796875
0.9216796875
0.20947265625
0.17885742187499998
0.5760498046875
1.0594482421875
1.3220947265624998
1.4872558593749998
1.4598632812499999
1.6000488281249998
1.6322753906249998
1.7217041015624999
1.6927001953124998
1.6137451171875
1.574267578125
1.5879638671874998
1.5686279296874999
0.0120849609375
1.24072265625
1.4598632812499999
1.4477783203124999
1.7740722656249999
2.0407470703125
3.001904296875
2.7964599609375
2.0778076171874997
1.66611328125
1.4872558593749998
1.4139404296875
1.52109375
1.5041748046874999
1.5162597656249999
1.4993408203124998
1.4203857421875
1.4751708984374998
1.4800048828124999
1.4429443359374998
1.4518066406249999
3.001904296875
2.2760009765625
1.6435546875
1.674169921875
1.4107177734374998
0.994189453125
0.043505859375
0.19094238281249998
0.3391845703125
0.90556640625
1.3212890625
1.45341796875
1.4477783203124999
1.5911865234375
1.5758789062499998
1.6153564453125
1.703173828125
1.6910888671875
1.6306640625
1.6040771484374998
1.590380859375
0.011279296874999999
0.7130126953125
1.4993408203124998
1.4332763671875
1.62744140625
2.1591796875
3.0010986328125
3.001904296875
2.2913085937499997
1.722509765625
1.5033691406249998
1.432470703125
1.4735595703125
1.47275390625
1.5267333984375
1.480810546875
1.4389160156249998
1.448583984375
1.4872558593749998
1.4840332031249999
1.474365234375
2.6772216796875
2.9986816406249996
1.6411376953124999
1.6693359374999999
1.5001464843749999
0.9611572265624999
0.636474609375
0.30937499999999996
0.18449707031249998
0.8548095703124999
1.1964111328125
1.405078125
1.4010498046875
1.5992431640625
1.5670166015625
1.6250244140624999
1.7136474609374999
1.6935058593749999
1.606494140625
1.590380859375
1.5799072265624998
0.12246093749999999
0.4954833984375
1.522705078125
1.4381103515625
1.5106201171875
2.16884765625
2.321923828125
3.003515625
2.4629150390625
1.8409423828125
1.5597656249999998
1.4381103515625
1.458251953125
1.5331787109375
1.5170654296875
1.5460693359375
1.41796875
1.3873535156249999
1.3986328124999998
1.4115234374999999
1.4558349609374999
2.1374267578125
3.0027099609374996
1.8344970703124999
1.65966796875
1.571044921875
1.09248046875
0.863671875
0.34885253906249997
0.1861083984375
0.6243896484375
1.10859375
1.4276367187499999
1.5154541015624998
1.4703369140625
1.6169677734374999
1.60166015625
1.683837890625
1.683837890625
1.5927978515624999
1.6000488281249998
1.5235107421874998
0.8266113281249999
0.011279296874999999
1.2665039062499999
1.4413330078125
1.4912841796874998
1.843359375
2.0810302734375
3.003515625
2.8109619140624997
2.0391357421875
1.56298828125
1.4268310546874998
1.4195800781249999
1.5041748046874999
1.5533203125
1.558154296875
1.4872558593749998
1.4574462890625
1.474365234375
1.46953125
1.4912841796874998
1.458251953125
3.0010986328125
1.8788085937499999
1.67900390625
1.6556396484375
1.4236083984374999
0.9224853515625
0.013696289062499999
0.18852539062499998
0.5260986328125
1.0409179687499999
1.327734375
1.4606689453125
1.4155517578124999
1.571044921875
1.65
1.6242187499999998
1.791796875
1.6822265625
1.6218017578125
1.5976318359375
1.5138427734375
0.011279296874999999
1.187548828125
1.4928955078125
1.4356933593749999
1.7861572265624999
2.012548828125
3.001904296875
3.001904296875
2.0794189453125
1.64677734375
1.4912841796874998
1.4510009765624998
1.56943359375
1.5364013671874999
1.5017578125
1.4945068359375
1.3978271484375
1.4501953125
1.461474609375
1.4389160156249998
1.464697265625
3.0027099609374996
2.4548583984375
1.64677734375
1.587158203125
1.4042724609375
1.007080078125
0.48178710937499997
0.21269531249999998
0.3794677734375
0.8523925781249999
1.271337890625
1.4300537109375
1.4461669921875
1.5919921874999998
1.6169677734374999
1.5944091796875
1.66611328125
1.635498046875
1.587158203125
1.5863525390625
1.56943359375
0.0072509765625
0.5776611328125
1.4655029296875
1.4437499999999999
1.658056640625
2.152734375
2.760205078125
3.001904296875
2.4041015624999997
1.8409423828125
1.509814453125
1.4526123046875
1.458251953125
1.5170654296875
1.6209960937499999
1.5218994140625
1.3752685546874999
1.409912109375
1.432470703125
1.4574462890625
1.4816162109375
2.230078125
3.001904296875
1.6749755859375
1.6314697265625
1.558154296875
0.9273193359374999
0.5357666015625
0.36496582031249997
0.15791015625
0.78310546875
1.173046875
1.3881591796875
1.458251953125
1.5476806640624998
1.6008544921874999
1.5919921874999998
1.7329833984374998
1.6693359374999999
1.6282470703124998
1.6024658203125
1.5919921874999998
0.7146240234375
0.3520751953125
1.5090087890625
1.4437499999999999
1.4711425781249998
2.1116455078125
2.2647216796875
3.001904296875
2.4274658203125
1.8812255859375
1.619384765625
1.4606689453125
1.4542236328125
1.5025634765625
1.5186767578125
1.5146484375
1.4518066406249999
1.4284423828125
1.4816162109375
1.464697265625
1.4590576171874998
1.5033691406249998
3.001904296875
1.9053955078125
1.6951171875
1.5243164062499999
1.16337890625
0.9144287109375
0.21108398437499998
0.120849609375
0.554296875
1.06669921875
1.37607421875
1.4872558593749998
1.4381103515625
1.5911865234375
1.61455078125
1.61455078125
1.7426513671875
1.667724609375
1.6290527343749999
1.5976318359375
1.2511962890625
0.0120849609375
1.1867431640625
1.5122314453124999
1.4630859374999998
1.7507080078125
2.006103515625
3.0027099609374996
2.705419921875
2.0431640625
1.6177734375
1.4711425781249998
1.456640625
1.5766845703124999
1.5686279296874999
1.5412353515625
1.4767822265625
1.4034667968749999
1.409912109375
1.4413330078125
1.3994384765624999
1.4606689453125
3.003515625
2.3799316406249997
1.7080078125
1.6967285156249998
1.4493896484375
0.9732421874999999
0.0910400390625
0.19658203124999998
0.34965820312499996
1.0127197265624999
1.300341796875
1.4228027343749998
1.4066894531249998
1.61455078125
1.5605712890624999
1.699951171875
1.7208984374999998
1.6395263671875
1.6040771484374998
1.6081054687499998
1.5597656249999998
0.013696289062499999
1.0409179687499999
1.5001464843749999
1.4791992187499998
1.6645019531249998
2.0375244140624997
2.6933349609375
3.001904296875
2.2228271484374997
1.7184814453125
1.52109375
1.429248046875
1.5331787109375
1.5114257812499998
1.5476806640624998
1.53076171875
1.4445556640625
1.4389160156249998
1.4397216796874999
1.44052734375
1.4622802734375
3.0010986328125
2.5410644531249997
1.6773925781249999
1.6862548828125
1.4413330078125
0.9514892578124999
0.4729248046875
0.1699951171875
0.3230712890625
0.8064697265624999
1.1609619140625
1.4236083984374999
1.4364990234375
1.51787109375
1.6024658203125
1.6411376953124999
1.719287109375
1.654833984375
1.658056640625
1.6209960937499999
1.561376953125
0.011279296874999999
0.394775390625
1.4687255859375
1.4767822265625
1.6040771484374998
2.1076171875
2.205908203125
3.0010986328125
2.4210205078125
1.8820312499999998
1.4993408203124998
1.42119140625
1.4461669921875
1.4187744140624998
1.5243164062499999
1.53720703125
1.429248046875
1.4300537109375
1.4977294921875
1.5138427734375
1.4920898437499999
1.7829345703125
3.001904296875
1.7370117187499998
1.6636962890625
1.6024658203125
1.16337890625
0.7557128906249999
0.2263916015625
0.18691406249999998
0.7677978515624999
1.2044677734375
1.4187744140624998
1.4767822265625
1.48564453125
1.5597656249999998
1.5879638671874998
1.662890625
1.6725585937499998
1.6564453124999998
1.6242187499999998
1.5863525390625
1.1190673828125
0.008056640625
1.4598632812499999
1.416357421875
1.4268310546874998
2.0230224609375
2.2365234375
3.0010986328125
2.6659423828124997
1.877197265625
1.606494140625
1.4711425781249998
1.474365234375
1.5315673828124998
1.5202880859374999
1.529150390625
1.4074951171874999
1.4034667968749999
1.4526123046875
1.4711425781249998
1.4711425781249998
1.445361328125
3.0002929687499997
1.9545410156249998
1.6822265625
1.5799072265624998
1.2858398437499998
1.0352783203125
0.23203125
0.17885742187499998
0.5132080078125
0.992578125
1.3108154296874999
1.4598632812499999
1.4574462890625
1.6089111328124999
1.619384765625
1.6806152343749998
1.654833984375
1.6024658203125
1.6322753906249998
1.6000488281249998
1.4687255859375
0.0120849609375
1.1384033203125
1.506591796875
1.4912841796874998
1.7120361328125
2.0842529296875
3.0010986328125
2.9430908203125
2.144677734375
1.670947265625
1.46953125
1.4493896484375
1.5678222656249998
1.5299560546875
1.5009521484375
1.461474609375
1.3599609375
1.4469726562499998
1.4316650390624999
1.4501953125
1.4719482421874999
3.0010986328125
2.495947265625
1.6725585937499998
1.6862548828125
1.4526123046875
1.0505859375
0.09426269531249999
0.23686523437499998
0.33273925781249997
0.9812988281249999
1.2818115234374998
1.4550292968749998
1.4195800781249999
1.6185791015625
1.5847412109374999
1.56298828125
1.6540283203125
1.6532226562499999
1.6459716796875
1.6346923828125
1.55009765625
0.011279296874999999
0.45036621093749996
1.529150390625
1.3921875
1.6177734375
2.1019775390624997
2.8472167968749997
3.0010986328125
2.2115478515625
1.7297607421874999
1.48564453125
1.4356933593749999
1.51787109375
1.4679199218749999
1.5460693359375
1.5114257812499998
1.4397216796874999
1.44052734375
1.458251953125
1.4598632812499999
1.4381103515625
1.864306640625
2.6739990234374997
1.732177734375
1.6475830078125
1.4759765624999999
1.0006347656249999
0.733154296875
0.2811767578125
0.24492187499999998
0.823388671875
1.235888671875
1.448583984375
1.4679199218749999
1.5057861328125
1.6000488281249998
1.609716796875
1.6363037109374998
1.6854492187499999
1.6177734375
1.61455078125
1.6169677734374999
0.0104736328125
0.24733886718749998
1.4606689453125
1.397021484375
1.5815185546875
2.0657226562499997
2.2494140625
3.001904296875
2.373486328125
1.867529296875
1.5275390624999998
1.4203857421875
1.4510009765624998
1.55009765625
1.5799072265624998
1.5492919921875
1.4332763671875
1.4244140625
1.4437499999999999
1.464697265625
1.445361328125
1.5275390624999998
3.0156005859375
1.896533203125
1.6048828124999999
1.58232421875
1.2334716796875
0.8209716796875
0.4189453125
0.16274414062499998
0.5857177734375
1.222998046875
1.405078125
1.4711425781249998
1.5315673828124998
1.6443603515624998
1.6322753906249998
1.7072021484375
1.6306640625
1.6008544921874999
1.6040771484374998
1.574267578125
1.5243164062499999
0.009667968749999999
1.461474609375
1.413134765625
1.5235107421874998
1.7120361328125
2.1390380859375
3.0027099609374996
2.972900390625
1.9311767578124999
1.5879638671874998
1.4655029296875
1.432470703125
1.5412353515625
1.5275390624999998
1.5251220703125
1.4606689453125
1.3954101562499999
1.4703369140625
1.47275390625
1.47275390625
1.464697265625
3.0010986328125
1.9295654296875
1.5960205078124998
1.6105224609375
1.29228515625
1.02802734375
0.095068359375
0.2118896484375
0.7694091796875
1.327734375
1.5815185546875
1.5919921874999998
1.496923828125
1.69189453125
1.5984375
1.5565429687499999
1.6201904296874998
1.6435546875
1.6242187499999998
1.5968261718749999
1.5082031249999999
0.011279296874999999
1.319677734375
1.7490966796874998
1.5670166015625
1.740234375
2.0278564453125
2.8536621093749996
2.65546875
1.8248291015625
1.4558349609374999
1.26005859375
1.2455566406249998
1.3623779296874998
1.4042724609375
1.4413330078125
1.3929931640625
1.393798828125
1.4356933593749999
1.4397216796874999
1.4630859374999998
1.4711425781249998
3.003515625
2.3138671875
1.3639892578125
1.4155517578124999
1.31162109375
0.9861328125
0.530126953125
0.5857177734375
0.67998046875
1.319677734375
1.4928955078125
1.53076171875
1.50498046875
1.64677734375
1.5927978515624999
1.5863525390625
1.6854492187499999
1.6379150390625
1.6048828124999999
1.5992431640625
1.571044921875
0.0072509765625
0.6509765624999999
1.7313720703125
1.6250244140624999
1.67900390625
2.080224609375
2.40732421875
2.9994873046875
2.0729736328125
1.4219970703125
1.3309570312499999
1.3825195312499998
1.41796875
1.4348876953124998
1.5186767578125
1.4759765624999999
1.3946044921874998
1.4091064453125
1.4373046875
1.4679199218749999
1.5073974609374998
1.587158203125
2.4685546874999997
1.4703369140625
1.3801025390625
1.3978271484375
1.061865234375
0.9990234375
0.7863281249999999
0.8104980468749999
1.1706298828125
1.393798828125
1.5001464843749999
1.4791992187499998
1.5565429687499999
1.6645019531249998
1.6371093749999999
1.6862548828125
1.6725585937499998
1.6121337890624998
1.5750732421875
1.55009765625
0.13615722656249998
0.5124023437499999
1.706396484375
1.6290527343749999
1.6564453124999998
1.920703125
2.0069091796875
3.0010986328125
2.1889892578125
1.6290527343749999
1.3865478515624998
1.3865478515624998
1.42119140625
1.4920898437499999
1.5243164062499999
1.5170654296875
1.4896728515625
1.4364990234375
1.4598632812499999
1.4510009765624998
1.4558349609374999
1.480810546875
3.0010986328125
1.6604736328124998
1.397021484375
1.4477783203124999
1.287451171875
1.0658935546875
0.7226806640625
0.8201660156249999
1.0650878906249999
1.4058837890625
1.49853515625
1.513037109375
1.5146484375
1.577490234375
1.542041015625
1.5509033203125
1.606494140625
1.5863525390625
1.5654052734375
1.5597656249999998
1.554931640625
0.014501953125
1.393798828125
1.67900390625
1.6209960937499999
1.6927001953124998
1.8925048828125
2.9559814453124997
2.3871826171875
1.5782958984375
1.3921875
1.384130859375
1.3921875
1.4800048828124999
1.4381103515625
1.4655029296875
1.416357421875
1.4203857421875
1.5025634765625
1.477587890625
1.4638916015624999
1.458251953125
2.8713867187499997
1.7466796875
1.4284423828125
1.4236083984374999
1.316455078125
1.1738525390624999
0.775048828125
0.9063720703125
1.0336669921875
1.3559326171875
1.4896728515625
1.529150390625
1.4767822265625
1.5992431640625
1.5734619140625
1.6129394531249999
1.6781982421875
1.58232421875
1.5460693359375
1.5202880859374999
1.506591796875
0.0120849609375
1.2979248046874998
1.7297607421874999
1.6773925781249999
1.7370117187499998
1.9827392578124998
2.2341064453125
2.5152832031249996
1.754736328125
1.4413330078125
1.3639892578125
1.3978271484375
1.46953125
1.4332763671875
1.4703369140625
1.4469726562499998
1.3801025390625
1.458251953125
1.46630859375
1.480810546875
1.4526123046875
2.5168945312499997
2.1873779296875
1.3825195312499998
1.4751708984374998
1.3656005859375
1.11181640625
0.8040527343749999
0.9756591796874999
0.9982177734375
1.276171875
1.4510009765624998
1.5017578125
1.5525146484374999
1.593603515625
1.522705078125
1.5299560546875
1.5509033203125
1.5396240234374998
1.5525146484374999
1.6072998046875
1.5702392578125
0.4487548828125
0.8467529296874999
1.7660156249999999
1.5686279296874999
1.5863525390625
1.8199951171875
1.941650390625
2.7529541015624996
1.9674316406249999
1.4550292968749998
1.4066894531249998
1.4066894531249998
1.429248046875
1.456640625
1.509814453125
1.4719482421874999
1.4236083984374999
1.4510009765624998
1.4800048828124999
1.4703369140625
1.4711425781249998
1.4751708984374998
2.254248046875
1.4244140625
1.4107177734374998
1.482421875
1.2383056640624999
1.24072265625
0.9821044921875
1.0159423828125
1.2938964843749998
1.4687255859375
1.5347900390625
1.9714599609374999
2.5579833984375
2.13662109375
1.7128417968749998
1.6081054687499998
1.5525146484374999
1.48564453125
1.4598632812499999
1.458251953125
1.4501953125
0.684814453125
1.6475830078125
1.5702392578125
1.52109375
1.6927001953124998
1.7329833984374998
2.599072265625
1.7635986328125
1.44052734375
1.34384765625
1.3422363281249998
1.3631835937499999
1.4252197265625
1.4413330078125
1.4630859374999998
1.4413330078125
1.4155517578124999
1.4236083984374999
1.4364990234375
1.4638916015624999
1.456640625
2.6490234375
1.546875
1.3470703124999999
1.4389160156249998
1.348681640625
1.224609375
0.8507812499999999
1.052197265625
1.2173583984375
1.4961181640624999
1.5170654296875
1.5154541015624998
1.45341796875
1.55009765625
1.52109375
1.53720703125
1.593603515625
1.5412353515625
1.522705078125
1.51787109375
1.5017578125
0.294873046875
1.4550292968749998
1.6636962890625
1.5782958984375
1.667724609375
1.7700439453124999
2.5410644531249997
2.102783203125
1.5654052734375
1.3881591796875
1.3946044921874998
1.409912109375
1.5001464843749999
1.4800048828124999
1.4759765624999999
1.4703369140625
1.41796875
1.4501953125
1.4671142578124998
1.461474609375
1.4840332031249999
2.3904052734375
1.6427490234375
1.3784912109374998
1.4300537109375
1.3962158203125
1.2439453125
0.9313476562499999
1.1279296875
1.2052734375
1.4244140625
1.51787109375
1.5557373046874998
1.4816162109375
1.5766845703124999
1.55009765625
1.5678222656249998
1.561376953125
1.5492919921875
1.5589599609375
1.5645996093749999
1.5347900390625
0.30937499999999996
1.3365966796875
1.674169921875
1.5565429687499999
1.6403320312499998
1.8054931640624998
1.912646484375
2.25263671875
1.6363037109374998
1.4356933593749999
1.416357421875
1.4276367187499999
1.4671142578124998
1.4800048828124999
1.5009521484375
1.4816162109375
1.4308593749999998
1.4735595703125
1.4880615234374999
1.482421875
1.46953125
2.1503173828124997
2.1060058593749997
1.40185546875
1.4711425781249998
1.4348876953124998
1.2238037109375
0.926513671875
1.1158447265625
1.1029541015625
1.3583496093749998
1.5355957031249998
1.5299560546875
1.5251220703125
1.5476806640624998
1.5654052734375
1.5670166015625
1.6000488281249998
1.56298828125
1.533984375
1.5355957031249998
1.5243164062499999
0.7420166015624999
0.8685058593749999
1.6830322265625
1.585546875
1.5686279296874999
1.7499023437499999
1.85947265625
2.5499267578125
1.7821289062499999
1.4300537109375
1.409912109375
1.4195800781249999
1.458251953125
1.4832275390624998
1.4945068359375
1.4872558593749998
1.4469726562499998
1.464697265625
1.474365234375
1.4751708984374998
1.4687255859375
1.4864501953125
2.591015625
1.4356933593749999
1.4356933593749999
1.48564453125
1.26328125
1.2189697265625
0.9692138671874999
1.0642822265625
1.30517578125
1.4711425781249998
1.5331787109375
1.5758789062499998
1.522705078125
1.5565429687499999
1.5492919921875
1.55009765625
1.590380859375
1.5517089843749998
1.5444580078124999
1.5517089843749998
1.5114257812499998
0.7138183593749999
1.65
1.6282470703124998
1.5573486328125
1.7152587890625
1.764404296875
2.537841796875
1.8240234375
1.4953124999999998
1.4058837890625
1.4187744140624998
1.4550292968749998
1.4848388671875
1.482421875
1.5090087890625
1.4791992187499998
1.4373046875
1.5033691406249998
1.4880615234374999
1.4711425781249998
1.474365234375
2.6095458984374997
1.6395263671875
1.40830078125
1.464697265625
1.3897705078125
1.2890625
1.013525390625
1.0634765625
1.2238037109375
1.42119140625
1.5057861328125
1.53076171875
1.4687255859375
1.5758789062499998
1.546875
1.5807128906249999
1.5678222656249998
1.5573486328125
1.5444580078124999
1.546875
1.5283447265624999
0.33676757812499997
1.4308593749999998
1.6475830078125
1.5589599609375
1.6298583984375
1.735400390625
2.27841796875
2.2212158203125
1.6306640625
1.4203857421875
1.4332763671875
1.4348876953124998
1.554931640625
1.506591796875
1.509814453125
1.4630859374999998
1.4236083984374999
1.4687255859375
1.4848388671875
1.490478515625
1.474365234375
2.2236328125
1.66611328125
1.34384765625
1.4493896484375
1.3994384765624999
1.2439453125
0.9627685546875
1.1029541015625
1.21171875
1.4630859374999998
1.5315673828124998
1.5235107421874998
1.4791992187499998
1.571044921875
1.5791015625
1.5597656249999998
1.5887695312499999
1.5815185546875
1.5525146484374999
1.5404296874999999
1.5218994140625
0.262646484375
1.3092041015625
1.7136474609374999
1.571044921875
1.625830078125
1.851416015625
1.9376220703125
2.241357421875
1.6218017578125
1.4501953125
1.4058837890625
1.4397216796874999
1.4574462890625
1.46630859375
1.509814453125
1.4687255859375
1.4437499999999999
1.4711425781249998
1.4800048828124999
1.480810546875
1.4832275390624998
2.0117431640625
2.199462890625
1.38896484375
1.461474609375
1.4389160156249998
1.255224609375
1.1239013671875
1.0836181640625
1.0675048828125
1.319677734375
1.5146484375
1.542041015625
1.5404296874999999
1.5525146484374999
1.574267578125
1.5380126953125
1.554931640625
1.56943359375
1.5315673828124998
1.546875
1.546875
0.8338623046875
0.7226806640625
1.7184814453125
1.56943359375
1.56943359375
1.7748779296875
1.8925048828125
2.695751953125
1.7934082031249998
1.409912109375
1.3881591796875
1.4364990234375
1.4389160156249998
1.5073974609374998
1.4791992187499998
1.480810546875
1.4107177734374998
1.4413330078125
1.4703369140625
1.49853515625
1.5186767578125
1.5033691406249998
2.8423828125
1.38896484375
1.4074951171874999
1.4445556640625
1.2350830078125
1.1964111328125
0.97646484375
0.9974121093749999
1.2914794921875
1.4840332031249999
1.5138427734375
1.5476806640624998
1.5122314453124999
1.5984375
1.5460693359375
1.5750732421875
1.571044921875
1.5654052734375
1.5645996093749999
1.5404296874999999
1.4920898437499999
0.45761718749999997
1.7474853515625
1.6773925781249999
1.5662109375
1.7450683593749998
1.7845458984375
2.5515380859374996
1.92392578125
1.4791992187499998
1.368017578125
1.3962158203125
1.4219970703125
1.5017578125
1.4816162109375
1.49853515625
1.458251953125
1.4042724609375
1.4735595703125
1.4800048828124999
1.480810546875
1.5033691406249998
3.0027099609374996
1.5791015625
1.2673095703125
1.4888671875
1.3672119140624999
1.16337890625
0.7637695312499999
0.9772705078124999
1.1754638671875
1.477587890625
1.5654052734375
1.5589599609375
1.4703369140625
1.60166015625
1.558154296875
1.5678222656249998
1.6177734375
1.525927734375
1.5444580078124999
1.5758789062499998
1.5364013671874999
0.0120849609375
1.4542236328125
1.7378173828124999
1.5347900390625
1.6830322265625
1.9303710937499998
2.70380859375
2.341259765625
1.5686279296874999
1.3422363281249998
1.3712402343749999
1.3913818359374999
1.5017578125
1.46630859375
1.522705078125
1.461474609375
1.4510009765624998
1.4783935546875
1.47275390625
1.480810546875
1.4759765624999999
2.3050048828125
1.687060546875
1.2302490234374999
1.4542236328125
1.3921875
1.1448486328125
0.9966064453125
1.0127197265624999
1.1158447265625
1.4300537109375
1.5355957031249998
1.5815185546875
1.5218994140625
1.5895751953125
1.5678222656249998
1.574267578125
1.609716796875
1.5839355468749998
1.5509033203125
1.5460693359375
1.5154541015624998
0.45036621093749996
1.3108154296874999
1.8844482421875
1.5895751953125
1.6564453124999998
1.9682373046875
1.9787109374999998
2.940673828125
1.60166015625
1.35673828125
1.3494873046875
1.38896484375
1.4219970703125
1.480810546875
1.496923828125
1.4751708984374998
1.4034667968749999
1.4445556640625
1.4767822265625
1.46953125
1.474365234375
2.060888671875
2.5168945312499997
1.229443359375
1.429248046875
1.4107177734374998
1.142431640625
1.1456542968749999
1.02158203125
0.9635742187499999
1.3180664062499998
1.5218994140625
1.5597656249999998
1.5484863281249999
1.49853515625
1.587158203125
1.5533203125
1.59521484375
1.56298828125
1.5509033203125
1.5662109375
1.5573486328125
0.8749511718749999
0.41813964843749996
1.8755859375
1.611328125
1.5839355468749998
1.8264404296874999
1.93359375
3.003515625
1.93359375
1.405078125
1.3349853515624999
1.348681640625
1.3873535156249999
1.509814453125
1.4993408203124998
1.4767822265625
1.4058837890625
1.44052734375
1.461474609375
1.4735595703125
1.480810546875
1.4703369140625
3.003515625
1.264892578125
1.3607666015625
1.477587890625
1.1666015625
1.1496826171874999
0.720263671875
0.93779296875
1.2511962890625
1.51787109375
1.5799072265624998
1.5573486328125
1.4912841796874998
1.6242187499999998
1.577490234375
1.5525146484374999
1.6218017578125
1.5654052734375
1.5573486328125
1.5323730468749999
1.4977294921875
0.012890625
1.8498046874999998
1.7724609375
1.5484863281249999
1.7507080078125
1.8328857421875
2.7932373046874996
2.402490234375
1.4139404296875
1.2930908203125
1.351904296875
1.4010498046875
1.5017578125
1.4501953125
1.4816162109375
1.4058837890625
1.45341796875
1.509814453125
1.4574462890625
1.46953125
1.477587890625
3.003515625
1.6169677734374999
1.213330078125
1.4437499999999999
1.33740234375
1.1190673828125
0.9450439453124999
1.0078857421875
1.110205078125
1.442138671875
1.5758789062499998
1.5726562499999999
1.5073974609374998
1.6129394531249999
1.5492919921875
1.5517089843749998
1.622607421875
1.55009765625
1.55009765625
1.5460693359375
1.496923828125
0.013696289062499999
1.4026611328124998
1.89169921875
1.545263671875
1.6991455078125
2.0044921875
2.52978515625
2.5877929687499996
1.56943359375
1.3253173828125
1.348681640625
1.35673828125
1.432470703125
1.4767822265625
1.5041748046874999
1.46953125
1.3954101562499999
1.46953125
1.464697265625
1.4783935546875
1.4703369140625
2.2018798828125
2.410546875
1.2052734375
1.4469726562499998
1.4139404296875
1.071533203125
0.9313476562499999
0.968408203125
0.9788818359375
1.429248046875
1.5396240234374998
1.5766845703124999
1.5315673828124998
1.6000488281249998
1.571044921875
1.56298828125
1.6000488281249998
1.554931640625
1.554931640625
1.5396240234374998
1.522705078125
0.726708984375
0.49870605468749996
1.931982421875
1.606494140625
1.6048828124999999
1.9835449218749999
1.9005615234375
3.0010986328125
1.683837890625
1.3382080078124998
1.340625
1.3575439453125
1.4219970703125
1.4816162109375
1.4872558593749998
1.4606689453125
1.4074951171874999
1.4413330078125
1.4791992187499998
1.480810546875
1.4864501953125
1.4872558593749998
2.6441894531249996
1.2536132812499998
1.3341796874999998
1.4445556640625
1.171435546875
1.116650390625
0.9788818359375
0.958740234375
1.2745605468749999
1.509814453125
1.577490234375
1.577490234375
1.50498046875
1.577490234375
1.5678222656249998
1.5364013671874999
1.6282470703124998
1.5573486328125
1.5541259765625
1.561376953125
1.1432373046875
0.3029296875
1.8578613281249998
1.738623046875
1.56298828125
1.7635986328125
1.843359375
3.001904296875
1.8667236328124999
1.4276367187499999
1.3390136718749999
1.3543212890624998
1.738623046875
1.5887695312499999
1.4429443359374998
1.4187744140624998
1.3881591796875
1.4574462890625
1.4800048828124999
1.4630859374999998
1.46630859375
1.47275390625
3.001904296875
1.5509033203125
1.287451171875
1.4276367187499999
1.3639892578125
1.18271484375
0.6324462890625
0.9982177734375
1.1496826171874999
1.5331787109375
1.558154296875
1.5662109375
1.5106201171875
1.5927978515624999
1.5194824218749998
1.545263671875
1.6177734375
1.5573486328125
1.5654052734375
1.5444580078124999
1.5202880859374999
0.009667968749999999
1.84013671875
1.78857421875
1.5597656249999998
1.71123046875
1.8522216796875
2.521728515625
2.4822509765625
1.3929931640625
1.2898681640624998
1.3365966796875
1.3946044921874998
1.4848388671875
1.46630859375
1.4953124999999998
1.4413330078125
1.4203857421875
1.474365234375
1.4703369140625
1.46953125
1.4920898437499999
3.0010986328125
1.674169921875
1.1835205078125
1.432470703125
1.3591552734374999
1.0803955078125
0.855615234375
0.9772705078124999
1.147265625
1.4469726562499998
1.5396240234374998
1.5807128906249999
1.5202880859374999
1.6040771484374998
1.5492919921875
1.6024658203125
1.56943359375
1.5299560546875
1.5541259765625
1.5460693359375
1.5364013671874999
0.0088623046875
1.31162109375
1.931982421875
1.5460693359375
1.6725585937499998
1.957763671875
1.864306640625
2.7948486328124997
1.6411376953124999
1.327734375
1.3422363281249998
1.4010498046875
1.4276367187499999
1.4542236328125
1.5073974609374998
1.4638916015624999
1.4203857421875
1.46630859375
1.4848388671875
1.46953125
1.4800048828124999
1.8844482421875
2.5265625
1.1923828125
1.4300537109375
1.4236083984374999
1.1754638671875
0.9490722656249999
1.0119140625
0.961962890625
1.4115234374999999
1.5815185546875
1.585546875
1.5960205078124998
1.6040771484374998
1.58232421875
1.5476806640624998
1.625830078125
1.5766845703124999
1.5355957031249998
1.5517089843749998
1.5436523437499998
1.0433349609375
0.407666015625
1.9593749999999999
1.622607421875
1.5919921874999998
1.9674316406249999
1.8618896484374998
2.9986816406249996
1.8175781249999998
1.3180664062499998
1.3156494140625
1.3575439453125
1.4542236328125
1.48564453125
1.4920898437499999
1.4840332031249999
1.4461669921875
1.4816162109375
1.4888671875
1.4671142578124998
1.474365234375
1.4719482421874999
2.7158935546875
1.27294921875
1.340625
1.4244140625
1.229443359375
1.2076904296875
0.6485595703125
1.0086914062499999
1.2818115234374998
1.5331787109375
1.5565429687499999
1.5678222656249998
1.5218994140625
1.6024658203125
1.5364013671874999
1.558154296875
1.6290527343749999
1.5460693359375
1.5436523437499998
1.5404296874999999
1.3752685546874999
0.246533203125
1.819189453125
1.7821289062499999
1.5927978515624999
1.7265380859375
1.8135498046874998
2.9398681640624997
1.9907958984374998
1.67578125
1.5283447265624999
1.413134765625
1.400244140625
1.4961181640624999
1.4816162109375
1.4872558593749998
1.46953125
1.4147460937499998
1.4526123046875
1.456640625
1.4638916015624999
1.5114257812499998
3.001904296875
1.6048828124999999
1.2995361328125
1.445361328125
1.335791015625
1.206884765625
0.7371826171875
1.0143310546875
1.1545166015625
1.5009521484375
1.5565429687499999
1.5589599609375
1.4711425781249998
1.603271484375
1.5243164062499999
1.5887695312499999
1.5662109375
1.529150390625
1.5146484375
1.5154541015624998
1.4912841796874998
0.011279296874999999
1.7700439453124999
1.8054931640624998
1.56943359375
1.66611328125
1.848193359375
2.101171875
2.6699707031249997
1.4300537109375
1.2858398437499998
1.3253173828125
1.3865478515624998
1.474365234375
1.4413330078125
1.496923828125
1.4759765624999999
1.4187744140624998
1.4767822265625
1.4880615234374999
1.5001464843749999
1.506591796875
2.9825683593749996
1.7764892578125
1.1512939453125
1.4171630859375
1.3478759765625
1.074755859375
1.06025390625
1.0626708984375
1.1271240234375
1.4550292968749998
1.5758789062499998
1.5791015625
1.5396240234374998
1.5565429687499999
1.5621826171875
1.5621826171875
1.6105224609375
1.571044921875
1.5412353515625
1.5509033203125
1.5146484375
0.0169189453125
1.1859374999999999
1.9634033203124999
1.5887695312499999
1.65966796875
1.928759765625
1.85302734375
2.5853759765624997
1.554931640625
1.319677734375
1.3414306640625
1.3728515625
1.429248046875
1.4252197265625
1.5251220703125
1.4880615234374999
1.432470703125
1.4679199218749999
1.4840332031249999
1.46630859375
1.48564453125
1.6572509765624999
2.6699707031249997
1.15048828125
1.37607421875
1.4276367187499999
1.2052734375
1.1512939453125
1.0159423828125
1.0086914062499999
1.4123291015625
1.5718505859374998
1.5702392578125
1.5863525390625
1.561376953125
1.5734619140625
1.56298828125
1.5662109375
1.5960205078124998
1.5621826171875
1.5597656249999998
1.542041015625
1.281005859375
0.2972900390625
1.9472900390624999
1.6564453124999998
1.5734619140625
1.8820312499999998
1.8876708984375
2.9020019531249996
1.9086181640625
1.3527099609375
1.340625
1.368017578125
1.4187744140624998
1.513037109375
1.482421875
1.493701171875
1.4711425781249998
1.4437499999999999
1.5033691406249998
1.5025634765625
1.490478515625
1.4993408203124998
2.8214355468749996
1.2826171874999999
1.3043701171875
1.4622802734375
1.2689208984375
1.2076904296875
0.8113037109375
0.9796874999999999
1.27939453125
1.5146484375
1.571044921875
1.571044921875
1.4912841796874998
1.6242187499999998
1.5726562499999999
1.603271484375
1.5758789062499998
1.5275390624999998
1.5412353515625
1.5364013671874999
1.4888671875
0.11037597656249999
1.8087158203125
1.8119384765625
1.574267578125
1.7313720703125
1.8344970703124999
2.811767578125
2.1277587890625
1.445361328125
1.31162109375
1.3470703124999999
1.3921875
1.490478515625
1.482421875
1.482421875
1.4574462890625
1.4026611328124998
1.461474609375
1.4816162109375
1.4679199218749999
1.480810546875
3.0002929687499997
1.735400390625
1.2979248046874998
1.4574462890625
1.3913818359374999
1.1947998046875
0.7001220703125
1.03125
1.119873046875
1.5106201171875
1.574267578125
1.6000488281249998
1.448583984375
1.6177734375
1.5436523437499998
1.571044921875
1.64677734375
1.609716796875
1.5428466796875
1.5323730468749999
1.5380126953125
0.011279296874999999
1.2592529296875
1.8119384765625
1.574267578125
1.651611328125
1.8884765625
2.7166992187499996
2.3533447265625
1.3825195312499998
1.2947021484374999
1.3543212890624998
1.3994384765624999
1.4783935546875
1.4276367187499999
1.5138427734375
1.4356933593749999
1.4493896484375
1.4888671875
1.4848388671875
1.4711425781249998
1.4977294921875
1.7088134765624998
1.9279541015625
1.1778808593749999
1.3905761718749998
1.3656005859375
1.090869140625
1.1537109374999999
0.9313476562499999
1.0965087890625
1.4107177734374998
1.5396240234374998
1.5791015625
1.5492919921875
1.58232421875
1.5621826171875
1.55009765625
1.5686279296874999
1.577490234375
1.545263671875
1.5509033203125
1.533984375
0.0346435546875
1.0368896484374999
1.977099609375
1.6298583984375
1.6089111328124999
1.8949218749999999
1.8860595703124998
2.776318359375
1.6781982421875
1.3446533203125
1.3607666015625
1.3712402343749999
1.4356933593749999
1.5146484375
1.4912841796874998
1.4574462890625
1.456640625
1.4703369140625
1.4791992187499998
1.4630859374999998
1.4751708984374998
1.525927734375
2.8141845703125
1.2906738281249999
1.3639892578125
1.4622802734375
1.2318603515625
1.148876953125
1.0223876953125
1.00546875
1.2938964843749998
1.53720703125
1.5911865234375
1.5782958984375
1.5557373046874998
1.5968261718749999
1.5605712890624999
1.5670166015625
1.5355957031249998
1.51787109375
1.5106201171875
1.5162597656249999
1.4687255859375
0.130517578125
1.9537353515625
1.6975341796874999
1.6000488281249998
1.719287109375
1.8417480468749998
2.8190185546874997
2.1664306640624997
1.3333740234375
1.329345703125
1.3768798828125
1.4228027343749998
1.4864501953125
1.490478515625
1.509814453125
1.4630859374999998
1.4276367187499999
1.4711425781249998
1.477587890625
1.4945068359375
1.482421875
2.9575927734375
1.368017578125
1.281005859375
1.4671142578124998
1.3011474609375
1.21494140625
0.710595703125
1.010302734375
1.2262207031249999
1.5460693359375
1.5726562499999999
1.56298828125
1.4896728515625
1.6137451171875
1.5605712890624999
1.5533203125
1.619384765625
1.5436523437499998
1.53720703125
1.5428466796875
1.5186767578125
0.020947265625
1.714453125
1.8304687499999999
1.55009765625
1.71123046875
1.8788085937499999
2.344482421875
2.1084228515625
1.4477783203124999
1.316455078125
1.3494873046875
1.405078125
1.4880615234374999
1.4711425781249998
1.4864501953125
1.4429443359374998
1.4501953125
1.490478515625
1.4888671875
1.482421875
1.4791992187499998
2.856884765625
1.8973388671875
1.300341796875
1.458251953125
1.364794921875
1.0948974609375
0.816943359375
1.026416015625
1.077978515625
1.513037109375
1.55009765625
1.5589599609375
1.52109375
1.6524169921874998
1.5734619140625
1.5565429687499999
1.5863525390625
1.5565429687499999
1.554931640625
1.522705078125
1.5090087890625
0.0636474609375
1.0385009765625
1.8498046874999998
1.5887695312499999
1.641943359375
1.9110351562499999
1.98837890625
2.7497314453125
1.699951171875
1.33740234375
1.3462646484374998
1.4042724609375
1.4735595703125
1.4590576171874998
1.5001464843749999
1.4687255859375
1.40830078125
1.4550292968749998
1.493701171875
1.4751708984374998
1.4928955078125
1.5323730468749999
2.11083984375
1.1915771484375
1.37607421875
1.384130859375
1.100537109375
1.1239013671875
0.9958007812499999
1.0731445312499999
1.3913818359374999
1.5315673828124998
1.5758789062499998
1.5355957031249998
1.585546875
1.6121337890624998
1.5541259765625
1.571044921875
1.5404296874999999
1.5235107421874998
1.53720703125
1.5299560546875
1.4437499999999999
0.8322509765624999
1.9247314453125
1.6556396484375
1.6314697265625
1.8707519531249999
1.8385253906249999
2.8149902343749997
1.7982421874999999
1.348681640625
1.319677734375
1.3954101562499999
1.4348876953124998
1.4832275390624998
1.4816162109375
1.4800048828124999
1.4679199218749999
1.4638916015624999
1.4880615234374999
1.4687255859375
1.4848388671875
1.4912841796874998
2.9197265624999997
1.3398193359375
1.3664062499999998
1.4679199218749999
1.2737548828124998
1.1923828125
0.8048583984375
1.0175537109375
1.2431396484375
1.5573486328125
1.5678222656249998
1.5807128906249999
1.49853515625
1.56943359375
1.5517089843749998
1.5509033203125
1.5992431640625
1.5484863281249999
1.5436523437499998
1.5202880859374999
1.5090087890625
0.045117187499999996
1.7249267578124998
1.6806152343749998
1.56298828125
1.71123046875
1.82080078125
2.9076416015624997
2.0947265625
1.458251953125
1.3301513671874998
1.351904296875
1.40185546875
1.493701171875
1.482421875
1.50498046875
1.4445556640625
1.456640625
1.482421875
1.48564453125
1.4671142578124998
1.4759765624999999
2.89072265625
1.448583984375
1.271337890625
1.4840332031249999
1.3083984375
1.2173583984375
0.797607421875
1.044140625
1.213330078125
1.5315673828124998
1.5589599609375
1.5605712890624999
1.4800048828124999
1.62744140625
1.5444580078124999
1.55009765625
1.6081054687499998
1.56298828125
1.5315673828124998
1.5283447265624999
1.533984375
0.013696289062499999
1.6290527343749999
1.8393310546875
1.5670166015625
1.69833984375
1.9215087890625
2.0004638671875
2.3227294921875
1.50498046875
1.3349853515624999
1.361572265625
1.4228027343749998
1.4574462890625
1.4429443359374998
1.4912841796874998
1.4574462890625
1.426025390625
1.461474609375
1.4912841796874998
1.4977294921875
1.5154541015624998
2.679638671875
2.0262451171875
1.1835205078125
1.4445556640625
1.377685546875
1.0900634765625
0.7879394531249999
1.0191650390625
1.10859375
1.4066894531249998
1.5404296874999999
1.5726562499999999
1.542041015625
