1.53720703125
1.5492919921875
1.5355957031249998
1.5283447265624999
0.3665771484375
1.3092041015625
1.812744140625
1.593603515625
1.658056640625
1.8135498046874998
1.8062988281249999
2.1825439453124997
1.4800048828124999
1.3623779296874998
1.393798828125
1.4219970703125
1.4606689453125
1.4872558593749998
1.4888671875
1.4840332031249999
1.458251953125
1.47275390625
1.4993408203124998
1.5090087890625
1.496923828125
1.587158203125
2.3726806640625
1.316455078125
1.3897705078125
1.4373046875
1.2955078125
1.1464599609375
1.2431396484375
1.1617675781249999
1.480810546875
1.554931640625
1.5484863281249999
1.5621826171875
1.571044921875
1.5670166015625
1.5492919921875
1.5412353515625
1.5557373046874998
1.5605712890624999
1.5396240234374998
1.538818359375
1.405078125
0.588134765625
1.8385253906249999
1.6185791015625
1.6121337890624998
1.796630859375
1.7297607421874999
2.466943359375
1.8304687499999999
1.3825195312499998
1.3736572265625
1.3954101562499999
1.4590576171874998
1.5082031249999999
1.4816162109375
1.4783935546875
1.4703369140625
1.4550292968749998
1.493701171875
1.4993408203124998
1.5025634765625
1.506591796875
2.4532470703125
1.33740234375
1.3591552734374999
1.4389160156249998
1.3365966796875
1.3390136718749999
1.173046875
1.1255126953124999
1.3639892578125
1.5460693359375
1.5654052734375
1.5597656249999998
1.4920898437499999
1.590380859375
1.5557373046874998
1.5597656249999998
1.6000488281249998
1.5436523437499998
1.53076171875
1.561376953125
1.490478515625
0.48581542968749997
1.706396484375
1.7313720703125
1.6129394531249999
1.6540283203125
1.7184814453125
2.5209228515624997
1.791796875
1.4187744140624998
1.37607421875
1.40830078125
1.4381103515625
1.4953124999999998
1.4751708984374998
1.4880615234374999
1.4598632812499999
1.4759765624999999
1.4945068359375
1.4928955078125
1.4896728515625
1.480810546875
2.5950439453125
1.670947265625
1.329345703125
1.448583984375
1.393798828125
1.329345703125
0.9394042968749999
1.2286376953125
1.2616699218749998
1.5444580078124999
1.5541259765625
1.571044921875
1.5275390624999998
1.609716796875
1.5573486328125
1.5323730468749999
1.5847412109374999
1.53720703125
1.5323730468749999
1.5323730468749999
1.5057861328125
0.32145996093749996
1.699951171875
1.7362060546875
1.5944091796875
1.6685302734374998
1.7660156249999999
2.115673828125
2.2051025390625
1.4219970703125
1.377685546875
1.397021484375
1.4445556640625
1.4920898437499999
1.46630859375
1.4993408203124998
1.480810546875
1.4389160156249998
1.477587890625
1.490478515625
1.4993408203124998
1.5009521484375
2.50400390625
1.7394287109375
1.2608642578125
1.46953125
1.4026611328124998
1.2286376953125
1.2028564453125
1.1859374999999999
1.268115234375
1.4993408203124998
1.5533203125
1.587158203125
1.5243164062499999
1.5662109375
1.5686279296874999
1.561376953125
1.5533203125
1.5380126953125
1.53076171875
1.529150390625
1.5073974609374998
0.41813964843749996
1.235888671875
1.8256347656249998
1.6105224609375
1.638720703125
1.7974365234374998
1.8183837890624999
2.4097412109375
1.6161621093749998
1.3591552734374999
1.409912109375
1.416357421875
1.45341796875
1.45341796875
1.4872558593749998
1.490478515625
1.4381103515625
1.4759765624999999
1.5009521484375
1.5001464843749999
1.4953124999999998
1.5565429687499999
2.3879882812499997
1.2528076171875
1.3881591796875
1.4389160156249998
1.2383056640624999
1.222998046875
1.1150390625
1.198828125
1.46953125
1.5726562499999999
1.5621826171875
1.538818359375
1.5573486328125
1.5984375
1.5654052734375
1.5621826171875
1.571044921875
1.5492919921875
1.525927734375
1.52109375
1.4373046875
1.0997314453125
1.8216064453124998
1.635498046875
1.6346923828125
1.7668212890625
1.7410400390624998
2.5289794921874997
1.5992431640625
1.377685546875
1.3744628906249998
1.405078125
1.4364990234375
1.4703369140625
1.4848388671875
1.4888671875
1.458251953125
1.4735595703125
1.4977294921875
1.5001464843749999
1.4993408203124998
1.5017578125
2.505615234375
1.3414306640625
1.3752685546874999
1.458251953125
1.3478759765625
1.3237060546875
1.0078857421875
1.1859374999999999
1.353515625
1.56298828125
1.561376953125
1.5686279296874999
1.522705078125
1.5887695312499999
1.5428466796875
1.5484863281249999
1.574267578125
1.53076171875
1.546875
1.5202880859374999
1.50498046875
0.4519775390625
1.7015624999999999
1.6717529296875
1.6000488281249998
1.6717529296875
1.716064453125
2.425048828125
1.8731689453125
1.3946044921874998
1.3825195312499998
1.41796875
1.4501953125
1.5033691406249998
1.4912841796874998
1.4945068359375
1.4630859374999998
1.429248046875
1.493701171875
1.482421875
1.48564453125
1.4888671875
2.5950439453125
1.3962158203125
1.3349853515624999
1.4437499999999999
1.3551269531249999
1.332568359375
0.9603515625
1.18916015625
1.3720458984375
1.51787109375
1.55009765625
1.571044921875
1.5194824218749998
1.6314697265625
1.5533203125
1.5686279296874999
1.554931640625
1.538818359375
1.5323730468749999
1.5323730468749999
1.5138427734375
0.3520751953125
1.662890625
1.7313720703125
1.603271484375
1.67900390625
1.7652099609374998
1.8409423828125
2.1060058593749997
1.4719482421874999
1.3736572265625
1.4091064453125
1.4308593749999998
1.477587890625
1.4703369140625
1.4864501953125
1.4655029296875
1.4276367187499999
1.4751708984374998
1.4791992187499998
1.4912841796874998
1.4928955078125
2.4371337890625
1.7909912109375
1.3220947265624998
1.4687255859375
1.4107177734374998
1.248779296875
0.9893554687499999
1.2012451171875
1.2560302734375
1.5299560546875
1.5557373046874998
1.5839355468749998
1.5323730468749999
1.5927978515624999
1.5645996093749999
1.5525146484374999
1.5887695312499999
1.546875
1.55009765625
1.5154541015624998
1.5114257812499998
0.4970947265625
1.1666015625
1.7619873046874999
1.6137451171875
1.6435546875
1.783740234375
1.8755859375
2.3638183593749997
1.47275390625
1.3688232421875
1.3849365234375
1.4268310546874998
1.4751708984374998
1.4445556640625
1.4945068359375
1.4630859374999998
1.4638916015624999
1.4953124999999998
1.493701171875
1.490478515625
1.4977294921875
1.53076171875
1.9352050781249999
1.2705322265624999
1.3978271484375
1.400244140625
1.2511962890625
1.26328125
0.8918701171875
1.2399169921875
1.4671142578124998
1.5726562499999999
1.5750732421875
1.558154296875
1.56943359375
1.56943359375
1.5492919921875
1.561376953125
1.5662109375
1.5299560546875
1.5251220703125
1.5355957031249998
0.6751464843749999
1.045751953125
1.8216064453124998
1.6129394531249999
1.63388671875
1.7853515624999998
1.7458740234374999
2.4387451171875
1.6330810546874999
1.3801025390625
1.3929931640625
1.4147460937499998
1.4501953125
1.48564453125
1.4896728515625
1.4840332031249999
1.4687255859375
1.4622802734375
1.5033691406249998
1.4977294921875
1.4888671875
1.5009521484375
2.5410644531249997
1.271337890625
1.3833251953124999
1.4429443359374998
1.361572265625
1.2785888671874999
1.0803955078125
1.18916015625
1.4308593749999998
1.5525146484374999
1.5573486328125
1.5605712890624999
1.5573486328125
1.5944091796875
1.5517089843749998
1.5766845703124999
1.55009765625
1.5323730468749999
1.5396240234374998
1.5235107421874998
1.5138427734375
0.4189453125
1.8006591796875
1.6532226562499999
1.6048828124999999
1.7313720703125
1.7088134765624998
2.2663330078125
1.7426513671875
1.400244140625
1.3712402343749999
1.397021484375
1.43408203125
1.4953124999999998
1.48564453125
1.496923828125
1.474365234375
1.4477783203124999
1.48564453125
1.496923828125
1.4920898437499999
1.49853515625
2.6119628906249996
1.4139404296875
1.329345703125
1.4469726562499998
1.368017578125
1.3188720703124999
0.95390625
1.2157470703125
1.332568359375
1.5597656249999998
1.5605712890624999
1.5678222656249998
1.5033691406249998
1.5879638671874998
1.561376953125
1.5412353515625
1.593603515625
1.5589599609375
1.533984375
1.5355957031249998
1.5057861328125
0.32468261718749997
1.619384765625
1.7539306640624999
1.6081054687499998
1.65966796875
1.7603759765625
2.3597900390624997
1.9988525390624998
1.4574462890625
1.3688232421875
1.4042724609375
1.445361328125
1.4832275390624998
1.4735595703125
1.4993408203124998
1.4550292968749998
1.4735595703125
1.50498046875
1.48564453125
1.4912841796874998
1.4888671875
2.3654296875
1.4711425781249998
1.2850341796875
1.44052734375
1.400244140625
1.3059814453124998
1.123095703125
1.16015625
1.3083984375
1.52109375
1.5541259765625
1.56943359375
1.51787109375
1.6056884765625
1.5662109375
1.56943359375
1.5984375
1.554931640625
1.5355957031249998
1.5138427734375
1.5057861328125
0.597802734375
1.5315673828124998
1.7829345703125
1.5976318359375
1.667724609375
1.8103271484374999
1.8216064453124998
2.1583740234374997
1.493701171875
1.3623779296874998
1.393798828125
1.4268310546874998
1.464697265625
1.477587890625
1.490478515625
1.4816162109375
1.4284423828125
1.4759765624999999
1.4961181640624999
1.4977294921875
1.496923828125
2.1889892578125
1.9827392578124998
1.2616699218749998
1.4381103515625
1.41796875
1.2439453125
1.0900634765625
1.1754638671875
1.2503906249999999
1.445361328125
1.5476806640624998
1.5645996093749999
1.538818359375
1.59521484375
1.5670166015625
1.5509033203125
1.561376953125
1.538818359375
1.5364013671874999
1.533984375
1.5202880859374999
0.8056640625
0.9724365234375
1.7934082031249998
1.6209960937499999
1.61455078125
1.75634765625
1.7692382812499998
2.4532470703125
1.7233154296875
1.3744628906249998
1.4058837890625
1.4058837890625
1.4622802734375
1.46630859375
1.474365234375
1.4872558593749998
1.4477783203124999
1.4800048828124999
1.49853515625
1.4888671875
1.4945068359375
1.4993408203124998
2.1221191406249997
1.297119140625
1.3744628906249998
1.4364990234375
1.2665039062499999
1.2834228515625
0.9949951171875
1.2157470703125
1.43408203125
1.561376953125
1.5718505859374998
1.5557373046874998
1.5444580078124999
1.5815185546875
1.5492919921875
1.5476806640624998
1.585546875
1.542041015625
1.5243164062499999
1.5380126953125
1.5146484375
0.8386962890624999
1.799853515625
1.6645019531249998
1.6153564453125
1.7136474609374999
1.7039794921875
2.5064208984375
1.6403320312499998
1.4058837890625
1.3704345703124998
1.405078125
1.4526123046875
1.5025634765625
1.4880615234374999
1.4896728515625
1.458251953125
1.4864501953125
1.496923828125
1.4800048828124999
1.4751708984374998
1.5001464843749999
2.6619140624999997
1.448583984375
1.3631835937499999
1.4558349609374999
1.3688232421875
1.2914794921875
0.9216796875
1.1867431640625
1.345458984375
1.5702392578125
1.558154296875
1.5573486328125
1.5557373046874998
1.5766845703124999
1.554931640625
1.5331787109375
1.585546875
1.5436523437499998
1.5323730468749999
1.5364013671874999
1.5114257812499998
0.32468261718749997
1.5380126953125
1.6717529296875
1.5919921874999998
1.658056640625
1.7257324218749999
2.1825439453124997
2.0826416015625
1.4219970703125
1.3921875
1.4171630859375
1.4381103515625
1.4953124999999998
1.4759765624999999
1.4888671875
1.4735595703125
1.4389160156249998
1.482421875
1.5033691406249998
1.4767822265625
1.4864501953125
2.6739990234374997
1.48564453125
1.2850341796875
1.4389160156249998
1.397021484375
1.3059814453124998
1.029638671875
1.16015625
1.340625
1.5146484375
1.538818359375
1.5525146484374999
1.5082031249999999
1.577490234375
1.5621826171875
1.5645996093749999
1.5686279296874999
1.53076171875
1.5364013671874999
1.5396240234374998
1.5154541015624998
0.30454101562499997
1.5106201171875
1.767626953125
1.5863525390625
1.6669189453125
1.8143554687499999
1.77890625
2.2663330078125
1.525927734375
1.3688232421875
1.3897705078125
1.4373046875
1.46953125
1.4864501953125
1.48564453125
1.4767822265625
1.4510009765624998
1.4872558593749998
1.5001464843749999
1.4953124999999998
1.4993408203124998
2.0761962890625
2.028662109375
1.2979248046874998
1.4461669921875
1.4123291015625
1.248779296875
1.164990234375
1.1674072265625
1.224609375
1.5057861328125
1.5525146484374999
1.5557373046874998
1.525927734375
1.5654052734375
1.5839355468749998
1.5460693359375
1.5984375
1.5662109375
1.546875
1.5251220703125
1.5114257812499998
0.8604492187499999
0.9394042968749999
1.7772949218749998
1.6201904296874998
1.651611328125
1.8062988281249999
1.7748779296875
2.470166015625
1.51787109375
1.37607421875
1.380908203125
1.405078125
1.456640625
1.47275390625
1.4832275390624998
1.4880615234374999
1.4510009765624998
1.4896728515625
1.5082031249999999
1.4961181640624999
1.4912841796874998
1.4920898437499999
2.1720703125
1.287451171875
1.37607421875
1.41796875
1.27294921875
1.3059814453124998
1.119873046875
1.2310546875
1.4308593749999998
1.5460693359375
1.5509033203125
1.5750732421875
1.5927978515624999
1.5791015625
1.5637939453124998
1.5251220703125
1.546875
1.5017578125
1.50498046875
1.5017578125
1.0658935546875
0.7919677734374999
1.8062988281249999
1.7015624999999999
1.6540283203125
1.7152587890625
1.7176757812499999
2.4556640625
1.735400390625
1.4123291015625
1.384130859375
1.4228027343749998
1.461474609375
1.4920898437499999
1.47275390625
1.509814453125
1.4791992187499998
1.461474609375
1.4840332031249999
1.4880615234374999
1.49853515625
1.5057861328125
2.6594970703125
1.456640625
1.3599609375
1.4461669921875
1.384130859375
1.3027587890624999
1.019970703125
1.1561279296875
1.3978271484375
1.554931640625
1.5662109375
1.5718505859374998
1.533984375
1.5960205078124998
1.561376953125
1.5782958984375
1.5517089843749998
1.53720703125
1.53720703125
1.5396240234374998
1.506591796875
0.3182373046875
1.7555419921875
1.69833984375
1.6153564453125
1.6830322265625
1.7023681640625
2.1205078125
1.85625
1.445361328125
1.368017578125
1.4026611328124998
1.442138671875
1.4864501953125
1.46630859375
1.4832275390624998
1.4767822265625
1.4510009765624998
1.5041748046874999
1.49853515625
1.4912841796874998
1.4848388671875
2.6772216796875
1.5283447265624999
1.2866455078124999
1.43408203125
1.397021484375
1.2753662109375
0.928125
1.2101074218749999
1.3172607421875
1.5106201171875
1.5404296874999999
1.5662109375
1.5162597656249999
1.6008544921874999
1.571044921875
1.5492919921875
1.5976318359375
1.5541259765625
1.5565429687499999
1.5251220703125
1.51787109375
0.2908447265625
1.4622802734375
1.7152587890625
1.5992431640625
1.64677734375
1.79501953125
2.204296875
2.11083984375
1.4993408203124998
1.3736572265625
1.4252197265625
1.4638916015624999
1.496923828125
1.4477783203124999
1.4840332031249999
1.4767822265625
1.46630859375
1.5009521484375
1.506591796875
1.4928955078125
1.5033691406249998
2.028662109375
1.641943359375
1.2866455078124999
1.429248046875
1.413134765625
1.2479736328125
1.2254150390625
1.139208984375
1.3092041015625
1.506591796875
1.5355957031249998
1.5331787109375
1.4993408203124998
1.5726562499999999
1.542041015625
1.5275390624999998
1.5807128906249999
1.5879638671874998
1.5517089843749998
1.5444580078124999
1.5194824218749998
0.9498779296875
1.380908203125
1.799853515625
1.638720703125
1.6636962890625
1.7982421874999999
1.7603759765625
2.309033203125
1.5750732421875
1.3792968749999999
1.3962158203125
1.4244140625
1.4493896484375
1.4783935546875
1.4840332031249999
1.5073974609374998
1.456640625
1.48564453125
1.5009521484375
1.5041748046874999
1.5041748046874999
1.8151611328125
2.189794921875
1.27294921875
1.4228027343749998
1.44052734375
1.3011474609375
1.16015625
1.1738525390624999
1.22783203125
1.4155517578124999
1.538818359375
1.5645996093749999
1.561376953125
1.5750732421875
1.574267578125
1.5678222656249998
1.571044921875
1.5380126953125
1.5138427734375
1.5251220703125
1.5025634765625
1.168212890625
0.749267578125
1.799853515625
1.625830078125
1.6330810546874999
1.716064453125
1.7539306640624999
2.486279296875
1.8006591796875
1.4042724609375
1.3929931640625
1.4074951171874999
1.4510009765624998
1.4606689453125
1.4590576171874998
1.456640625
1.4461669921875
1.4501953125
1.4711425781249998
1.5025634765625
1.522705078125
1.52109375
2.3557617187499997
1.313232421875
1.3825195312499998
1.442138671875
1.3075927734375
1.2850341796875
0.9112060546874999
1.21171875
1.3849365234375
1.5331787109375
1.5541259765625
1.5702392578125
1.5355957031249998
1.6218017578125
1.5517089843749998
1.5484863281249999
1.6137451171875
1.55009765625
1.5162597656249999
1.538818359375
1.5323730468749999
0.6114990234375
1.7531249999999998
1.687060546875
1.5968261718749999
1.6822265625
1.6773925781249999
2.5587890625
1.7619873046874999
1.4348876953124998
1.368017578125
1.3929931640625
1.4252197265625
1.49853515625
1.48564453125
1.5267333984375
1.4574462890625
1.4510009765624998
1.4783935546875
1.4840332031249999
1.442138671875
1.445361328125
2.6844726562499996
1.5758789062499998
1.3792968749999999
1.4550292968749998
1.42119140625
1.3220947265624998
0.903955078125
1.14404296875
1.281005859375
1.5315673828124998
1.5492919921875
1.5670166015625
1.5267333984375
1.5847412109374999
1.538818359375
1.55009765625
1.61455078125
1.5605712890624999
1.5597656249999998
1.554931640625
1.5154541015624998
0.2513671875
1.4461669921875
1.714453125
1.6081054687499998
1.6532226562499999
1.740234375
1.96904296875
2.3259521484375
1.4429443359374998
1.353515625
1.3849365234375
1.458251953125
1.513037109375
1.456640625
1.493701171875
1.5041748046874999
1.4445556640625
1.5009521484375
1.4928955078125
1.480810546875
1.5041748046874999
2.657080078125
1.6588623046875
1.2608642578125
1.43408203125
1.4074951171874999
1.2383056640624999
1.1222900390625
1.1456542968749999
1.287451171875
1.4977294921875
1.5396240234374998
1.5621826171875
1.4953124999999998
1.5750732421875
1.5476806640624998
1.5476806640624998
1.56298828125
1.5194824218749998
1.5323730468749999
1.5533203125
1.5404296874999999
0.28359375
1.3124267578125
1.8256347656249998
1.6306640625
1.6725585937499998
1.8385253906249999
1.78857421875
2.39765625
1.577490234375
1.3873535156249999
1.3728515625
1.3905761718749998
1.4155517578124999
1.42119140625
1.46953125
1.47275390625
1.4244140625
1.4445556640625
1.493701171875
1.5355957031249998
1.51787109375
1.7724609375
2.3162841796875
1.2568359375
1.3986328124999998
1.426025390625
1.2665039062499999
1.1923828125
1.0658935546875
1.1794921875
1.4888671875
1.5605712890624999
1.585546875
1.5702392578125
1.5702392578125
1.5726562499999999
1.5509033203125
1.5645996093749999
1.6000488281249998
1.5726562499999999
1.5299560546875
1.5218994140625
1.2286376953125
0.6380859375
1.8119384765625
1.6411376953124999
1.6129394531249999
1.82724609375
1.7523193359375
2.5998779296874996
1.5791015625
1.3825195312499998
1.3736572265625
1.4195800781249999
1.4558349609374999
1.4840332031249999
1.4735595703125
1.4920898437499999
1.4381103515625
1.4767822265625
1.5082031249999999
1.4840332031249999
1.4872558593749998
1.474365234375
2.4282714843749997
1.297119140625
1.3575439453125
1.432470703125
1.3067871093749999
1.3059814453124998
1.0916748046875
1.16337890625
1.3905761718749998
1.533984375
1.58232421875
1.5686279296874999
1.5364013671874999
1.5476806640624998
1.5186767578125
1.5355957031249998
1.5976318359375
1.5637939453124998
1.529150390625
1.5323730468749999
1.4364990234375
0.49387207031249997
1.7442626953125
1.719287109375
1.6137451171875
1.714453125
1.7120361328125
2.4274658203125
1.944873046875
1.4389160156249998
1.3873535156249999
1.4042724609375
1.4469726562499998
1.50498046875
1.4783935546875
1.5025634765625
1.4928955078125
1.4896728515625
1.506591796875
1.4840332031249999
1.4687255859375
1.4477783203124999
2.7400634765625
1.316455078125
1.3237060546875
1.4284423828125
1.3672119140624999
1.3092041015625
0.9087890624999999
1.13115234375
1.3881591796875
1.5380126953125
1.5597656249999998
1.5879638671874998
1.5315673828124998
1.6153564453125
1.5662109375
1.5758789062499998
1.56298828125
1.53076171875
1.522705078125
1.506591796875
1.5194824218749998
0.12246093749999999
1.7507080078125
1.7474853515625
1.611328125
1.7313720703125
1.754736328125
2.1551513671875
2.328369140625
1.4364990234375
1.3430419921874999
1.3768798828125
1.4058837890625
1.480810546875
1.4445556640625
1.4993408203124998
1.493701171875
1.4638916015624999
1.490478515625
1.4888671875
1.506591796875
1.4977294921875
2.7481201171875
1.658056640625
1.22138671875
1.448583984375
1.36962890625
1.197216796875
0.9063720703125
1.1448486328125
1.2568359375
1.5057861328125
1.5863525390625
1.577490234375
1.5186767578125
1.5984375
1.5637939453124998
1.5533203125
1.5879638671874998
1.55009765625
1.5267333984375
1.522705078125
1.5001464843749999
0.127294921875
1.313232421875
1.8393310546875
1.6048828124999999
1.6395263671875
1.8304687499999999
2.2147705078124997
2.2631103515624997
1.480810546875
1.3059814453124998
1.3792968749999999
1.40830078125
1.4953124999999998
1.45341796875
1.4800048828124999
1.4679199218749999
1.4284423828125
1.4638916015624999
1.4977294921875
1.4993408203124998
1.5017578125
1.76279296875
1.8256347656249998
1.2383056640624999
1.3913818359374999
1.42119140625
1.197216796875
1.1778808593749999
1.1287353515625
1.198828125
1.4679199218749999
1.5645996093749999
1.60166015625
1.5621826171875
1.5960205078124998
1.6089111328124999
1.5726562499999999
1.5960205078124998
1.5621826171875
1.56943359375
1.56943359375
1.5412353515625
1.2350830078125
1.1319580078125
1.8361083984375
1.6290527343749999
1.6588623046875
1.8417480468749998
1.8240234375
2.6296874999999997
1.7088134765624998
1.38896484375
1.3599609375
1.3784912109374998
1.4187744140624998
1.4679199218749999
1.4606689453125
1.4848388671875
1.490478515625
1.4389160156249998
1.493701171875
1.5275390624999998
1.5001464843749999
1.5782958984375
2.5475097656249996
1.27294921875
1.335791015625
1.3929931640625
1.2012451171875
1.200439453125
1.0320556640625
1.1214843749999999
1.3704345703124998
1.5476806640624998
1.5791015625
1.5895751953125
1.50498046875
1.5944091796875
1.5791015625
1.5919921874999998
1.546875
1.542041015625
1.5396240234374998
1.509814453125
1.44052734375
0.3029296875
1.767626953125
1.69833984375
1.6975341796874999
1.8054931640624998
1.851416015625
2.7287841796874996
1.9666259765624998
1.3494873046875
1.3124267578125
1.345458984375
1.3897705078125
1.4574462890625
1.4510009765624998
1.4961181640624999
1.4526123046875
1.4598632812499999
1.5009521484375
1.4832275390624998
1.4928955078125
1.493701171875
2.98740234375
1.3261230468749998
1.3317626953125
1.4107177734374998
1.2802001953125
1.2342773437499999
0.7710205078125
1.1295410156249999
1.36962890625
1.5758789062499998
1.574267578125
1.5944091796875
1.496923828125
1.5895751953125
1.545263671875
1.5509033203125
1.6129394531249999
1.5275390624999998
1.5243164062499999
1.5895751953125
1.5678222656249998
0.17080078124999998
1.732177734375
1.8143554687499999
1.662890625
1.7249267578124998
1.7829345703125
2.2993652343749997
1.95615234375
1.4155517578124999
1.2890625
1.3398193359375
1.384130859375
1.490478515625
1.47275390625
1.4767822265625
1.474365234375
1.4066894531249998
1.4622802734375
1.4590576171874998
1.4655029296875
1.5162597656249999
3.0027099609374996
1.7764892578125
1.2834228515625
1.448583984375
1.3446533203125
1.07958984375
0.7549072265625
1.0288330078124999
1.1867431640625
1.5041748046874999
1.5895751953125
1.6072998046875
1.53076171875
1.6604736328124998
1.5637939453124998
1.5734619140625
1.590380859375
1.5444580078124999
1.5533203125
1.5275390624999998
1.5162597656249999
0.0104736328125
1.16337890625
1.8232177734375
1.6081054687499998
1.714453125
1.880419921875
2.0149658203125
2.7827636718749997
1.4920898437499999
1.276171875
1.3100097656249998
1.3672119140624999
1.461474609375
1.416357421875
1.4679199218749999
1.4751708984374998
1.426025390625
1.45341796875
1.4606689453125
1.44052734375
1.4630859374999998
1.714453125
1.9215087890625
1.1706298828125
1.3422363281249998
1.335791015625
1.090869140625
1.0916748046875
0.936181640625
1.132763671875
1.416357421875
1.5791015625
1.6451660156249999
1.5863525390625
1.6242187499999998
1.59521484375
1.5686279296874999
1.654833984375
1.6008544921874999
1.5557373046874998
1.5541259765625
1.5162597656249999
0.014501953125
0.9369873046874999
1.93359375
1.7176757812499999
1.7265380859375
1.944873046875
1.893310546875
2.9100585937499996
1.7579589843749999
1.3527099609375
1.2979248046874998
1.327734375
1.397021484375
1.4800048828124999
1.4437499999999999
1.3583496093749998
1.34384765625
1.4791992187499998
1.4945068359375
1.4945068359375
1.4912841796874998
1.5476806640624998
2.8738037109374996
1.335791015625
1.33740234375
1.41796875
1.22783203125
1.045751953125
0.8104980468749999
0.93779296875
1.2802001953125
1.60166015625
1.6137451171875
1.611328125
1.546875
1.67578125
1.5992431640625
1.5283447265624999
1.5992431640625
1.5428466796875
1.5146484375
1.5114257812499998
1.384130859375
0.08620605468749999
1.9303710937499998
1.7072021484375
1.6935058593749999
1.803076171875
1.9384277343749998
3.003515625
1.7619873046874999
1.3825195312499998
1.3446533203125
1.351904296875
1.4413330078125
1.4574462890625
1.4445556640625
1.4928955078125
1.4115234374999999
1.43408203125
1.4711425781249998
1.47275390625
1.480810546875
1.4928955078125
3.0002929687499997
1.405078125
1.32451171875
1.4429443359374998
1.2850341796875
1.1867431640625
0.5454345703125
0.7839111328124999
1.1400146484375
1.4461669921875
1.5605712890624999
1.60166015625
1.5154541015624998
1.6459716796875
1.577490234375
1.6153564453125
1.6201904296874998
1.5589599609375
1.5589599609375
1.5637939453124998
1.53720703125
0.0169189453125
1.6806152343749998
1.7893798828124998
1.6620849609375
1.7249267578124998
1.93359375
2.238134765625
2.4991699218749996
1.6161621093749998
1.3382080078124998
1.3204833984375
1.3623779296874998
1.4373046875
1.429248046875
1.4735595703125
1.4332763671875
1.3551269531249999
1.4493896484375
1.4711425781249998
1.4711425781249998
1.4993408203124998
3.005126953125
1.9827392578124998
1.2785888671874999
1.4356933593749999
1.3067871093749999
1.0159423828125
0.4729248046875
0.7782714843749999
0.9877441406249999
1.4518066406249999
1.5517089843749998
1.6000488281249998
1.5484863281249999
1.7055908203124999
1.6081054687499998
1.6242187499999998
1.6346923828125
1.5726562499999999
1.5645996093749999
1.5718505859374998
1.538818359375
0.014501953125
0.961962890625
1.84013671875
1.6701416015625
1.740234375
1.98515625
2.3259521484375
2.9841796874999997
1.7893798828124998
1.3502929687499998
1.3237060546875
1.3430419921874999
1.4574462890625
1.3768798828125
1.4679199218749999
1.4622802734375
1.4147460937499998
1.4687255859375
1.4687255859375
1.4751708984374998
1.477587890625
1.6967285156249998
2.18173828125
1.2262207031249999
1.316455078125
1.3414306640625
1.0006347656249999
0.9329589843749999
0.5309326171875
0.845947265625
1.3075927734375
1.5114257812499998
1.5799072265624998
1.5807128906249999
1.654833984375
1.6653076171874999
1.5944091796875
1.6475830078125
1.641943359375
1.593603515625
1.561376953125
1.5355957031249998
0.012890625
0.7742431640624999
1.915869140625
1.667724609375
1.6862548828125
2.0423583984375
1.9988525390624998
3.0027099609374996
1.869140625
1.4356933593749999
1.3253173828125
1.3607666015625
1.4308593749999998
1.4945068359375
1.4558349609374999
1.4518066406249999
1.3712402343749999
1.461474609375
1.4477783203124999
1.46630859375
1.4880615234374999
1.5041748046874999
2.9970703125
1.4373046875
1.3559326171875
1.4155517578124999
1.1802978515625
0.9966064453125
0.5744384765625
0.71220703125
1.0948974609375
1.4542236328125
1.5597656249999998
1.59521484375
1.6040771484374998
1.6330810546874999
1.6346923828125
1.69833984375
1.6129394531249999
1.5807128906249999
1.5807128906249999
1.5670166015625
1.5001464843749999
0.015307617187499999
1.7015624999999999
1.6781982421875
1.6556396484375
1.8224121093749999
2.0004638671875
3.0043212890624997
2.5885986328125
1.4751708984374998
1.2705322265624999
1.287451171875
1.3059814453124998
1.4510009765624998
1.4550292968749998
1.4920898437499999
1.4759765624999999
1.377685546875
1.4364990234375
1.4445556640625
1.4928955078125
1.4783935546875
3.003515625
1.4590576171874998
1.3067871093749999
1.432470703125
1.2238037109375
1.12470703125
0.28842773437499997
0.636474609375
1.052197265625
1.4397216796874999
1.545263671875
1.6306640625
1.5235107421874998
1.7152587890625
1.6056884765625
1.6056884765625
1.6798095703125
1.59521484375
1.593603515625
1.5670166015625
1.5396240234374998
0.012890625
1.63388671875
1.8328857421875
1.6475830078125
1.7990478515625
1.9988525390624998
2.50400390625
2.5160888671875
1.6322753906249998
1.3092041015625
1.2898681640624998
1.348681640625
1.4437499999999999
1.4493896484375
1.4759765624999999
1.4115234374999999
1.409912109375
1.4526123046875
1.4703369140625
1.4920898437499999
1.4469726562499998
3.0059326171875
2.0906982421875
1.2745605468749999
1.40185546875
1.2745605468749999
0.9329589843749999
0.4358642578125
0.7146240234375
0.865283203125
1.41796875
1.574267578125
1.62744140625
1.546875
1.6822265625
1.6000488281249998
1.5911865234375
1.6685302734374998
1.5887695312499999
1.5718505859374998
1.5436523437499998
1.5090087890625
0.015307617187499999
0.9047607421874999
1.9078125
1.6951171875
1.7555419921875
2.067333984375
2.4548583984375
3.0067382812499996
1.9062011718749998
1.327734375
1.300341796875
1.3180664062499998
1.4477783203124999
1.4010498046875
1.482421875
1.4590576171874998
1.364794921875
1.4155517578124999
1.4558349609374999
1.513037109375
1.4397216796874999
1.6475830078125
2.2905029296875
1.2383056640624999
1.33740234375
1.332568359375
0.961962890625
0.9087890624999999
0.604248046875
0.7726318359375
1.21171875
1.4920898437499999
1.6209960937499999
1.6081054687499998
1.6951171875
1.651611328125
1.5863525390625
1.6669189453125
1.6153564453125
1.5807128906249999
1.5533203125
1.5444580078124999
0.01611328125
0.652587890625
1.9376220703125
1.66611328125
1.7208984374999998
2.0979492187499997
2.101171875
3.0075439453125
2.08828125
1.48564453125
1.287451171875
1.3019531249999998
1.3462646484374998
1.4429443359374998
1.47275390625
1.482421875
1.4630859374999998
1.3978271484375
1.4622802734375
1.4590576171874998
1.4840332031249999
1.4783935546875
3.0083496093749997
1.3704345703124998
1.2673095703125
1.442138671875
1.1641845703125
0.88623046875
0.4874267578125
0.588134765625
1.0562255859375
1.525927734375
1.6242187499999998
1.6612792968749999
1.6290527343749999
1.67578125
1.611328125
1.6000488281249998
1.6363037109374998
1.6024658203125
1.5927978515624999
1.5734619140625
1.5041748046874999
0.013696289062499999
1.7571533203124998
1.754736328125
1.6822265625
1.832080078125
2.0407470703125
3.0043212890624997
2.4532470703125
1.4526123046875
1.268115234375
1.2584472656249999
1.287451171875
1.4268310546874998
1.4042724609375
1.4671142578124998
1.4115234374999999
1.464697265625
1.4945068359375
1.480810546875
1.442138671875
1.4574462890625
3.0043212890624997
1.4896728515625
1.2995361328125
1.3849365234375
1.1883544921875
1.0973144531249999
0.2900390625
0.6123046875
0.9547119140625
1.4461669921875
1.5927978515624999
1.6363037109374998
1.5541259765625
1.714453125
1.6314697265625
1.62744140625
1.7740722656249999
1.6459716796875
1.5766845703124999
1.5428466796875
1.4832275390624998
0.013696289062499999
1.6693359374999999
1.9392333984374999
1.6927001953124998
1.8755859375
2.0874755859375
2.892333984375
2.4725830078124997
1.5831298828125
1.2665039062499999
1.2511962890625
1.3446533203125
1.4469726562499998
1.3664062499999998
1.4840332031249999
1.4679199218749999
1.3583496093749998
1.4687255859375
1.4840332031249999
1.4542236328125
1.4711425781249998
3.0059326171875
2.1632080078125
1.2028564453125
1.3720458984375
1.2665039062499999
0.8580322265625
0.2255859375
0.555908203125
0.7283203125
1.2463623046874999
1.5654052734375
1.6685302734374998
1.619384765625
1.7555419921875
1.64677734375
1.6322753906249998
1.6806152343749998
1.6459716796875
1.6040771484374998
1.6250244140624999
1.5565429687499999
0.0104736328125
0.7387939453125
1.98515625
1.722509765625
1.78857421875
2.1922119140625
2.3235351562499997
3.0083496093749997
2.0036865234375
1.3043701171875
1.222998046875
1.2536132812499998
1.3913818359374999
1.3881591796875
1.474365234375
1.4437499999999999
1.33740234375
1.4147460937499998
1.4389160156249998
1.4687255859375
1.4622802734375
1.6024658203125
2.4298828125
1.1786865234375
1.27939453125
1.3768798828125
0.8548095703124999
0.8185546874999999
0.46970214843749997
0.6356689453125
1.2060791015624999
1.5573486328125
1.641943359375
1.64677734375
1.6693359374999999
1.67900390625
1.662890625
1.7096191406249999
1.6685302734374998
1.6379150390625
1.5831298828125
1.5702392578125
1.3664062499999998
0.49870605468749996
1.98193359375
1.79501953125
1.7748779296875
2.1624023437499997
2.0745849609375
3.0010986328125
2.018994140625
1.38896484375
1.2125244140625
1.2439453125
1.3390136718749999
1.4622802734375
1.4920898437499999
1.490478515625
1.3623779296874998
1.4413330078125
1.4493896484375
1.4348876953124998
1.4348876953124998
1.4679199218749999
3.005126953125
1.4203857421875
1.2181640624999999
1.351904296875
1.1206787109375
0.8749511718749999
0.15146484375
0.5631591796875
0.9563232421875
1.5605712890624999
1.619384765625
1.667724609375
1.6483886718749998
1.6935058593749999
1.6427490234375
1.6089111328124999
1.683837890625
1.658056640625
1.6322753906249998
1.6056884765625
1.6040771484374998
0.015307617187499999
1.7168701171874998
1.7410400390624998
1.722509765625
1.8892822265625
2.11083984375
3.003515625
2.5475097656249996
1.429248046875
1.22783203125
1.232666015625
1.3229003906249999
1.4791992187499998
1.4356933593749999
1.4767822265625
1.43408203125
1.3712402343749999
1.4381103515625
1.41796875
1.426025390625
1.458251953125
3.005126953125
1.46630859375
1.2592529296875
1.4091064453125
1.1778808593749999
1.0634765625
0.08217773437499999
0.4197509765625
0.8765624999999999
1.4074951171874999
1.5919921874999998
1.7047851562499998
1.5815185546875
1.8071044921875
1.6894775390624999
1.73056640625
1.6886718749999998
1.585546875
1.585546875
1.619384765625
1.5605712890624999
0.013696289062499999
1.6266357421875
1.9795166015624999
1.703173828125
1.8763916015625
2.18173828125
2.470166015625
2.9463134765624996
1.73056640625
1.2495849609374998
1.173046875
1.24072265625
1.4026611328124998
1.3639892578125
1.461474609375
1.4300537109375
1.3446533203125
1.4381103515625
1.4542236328125
1.4574462890625
1.442138671875
3.0059326171875
2.254248046875
1.1126220703125
1.35673828125
1.2673095703125
0.8564208984374999
0.1635498046875
0.43022460937499996
0.6743408203125
1.2447509765625
1.606494140625
1.6894775390624999
1.6346923828125
1.7523193359375
1.662890625
1.6443603515624998
1.73056640625
1.62744140625
1.6282470703124998
1.5992431640625
1.545263671875
0.0169189453125
0.7484619140625
2.0230224609375
1.7982421874999999
1.764404296875
2.20751953125
2.4419677734375
2.995458984375
1.9545410156249998
1.2665039062499999
1.1786865234375
1.2076904296875
1.37607421875
1.3801025390625
1.4880615234374999
1.4671142578124998
1.3881591796875
1.4300537109375
1.4518066406249999
1.4638916015624999
1.464697265625
1.593603515625
2.47822265625
1.1617675781249999
1.203662109375
1.351904296875
0.8443359374999999
0.7645751953125
0.1458251953125
0.6493652343749999
1.232666015625
1.635498046875
1.674169921875
1.6701416015625
1.6540283203125
1.6862548828125
1.674169921875
1.6967285156249998
1.706396484375
1.619384765625
1.5919921874999998
1.590380859375
1.3269287109374999
0.5293212890625
2.08505859375
1.8264404296874999
1.7764892578125
2.18173828125
2.118896484375
3.0027099609374996
1.8957275390625
1.3414306640625
1.203662109375
1.2938964843749998
1.353515625
1.4655029296875
1.4445556640625
1.4469726562499998
1.4397216796874999
1.380908203125
1.4679199218749999
1.4469726562499998
1.45341796875
1.490478515625
3.0027099609374996
1.3986328124999998
1.2270263671875
1.335791015625
1.135986328125
1.0626708984375
0.3955810546875
0.42941894531249997
0.929736328125
1.5218994140625
1.6121337890624998
1.6653076171874999
1.5589599609375
1.722509765625
1.714453125
1.7724609375
1.6612792968749999
1.609716796875
1.6209960937499999
1.611328125
1.5444580078124999
0.013696289062499999
1.76279296875
1.8062988281249999
1.6862548828125
1.8981445312499998
2.1084228515625
3.003515625
2.721533203125
1.61455078125
1.2157470703125
1.168212890625
1.2914794921875
1.4123291015625
1.4373046875
1.4791992187499998
1.4413330078125
1.3470703124999999
1.4510009765624998
1.4638916015624999
1.4800048828124999
1.4800048828124999
3.005126953125
1.4679199218749999
1.1690185546875
1.3672119140624999
1.216552734375
1.0376953125
0.026586914062499998
0.43828124999999996
0.8749511718749999
1.429248046875
1.6242187499999998
1.7007568359374998
1.5726562499999999
1.80791015625
1.6814208984374999
1.635498046875
1.7120361328125
1.6532226562499999
1.6290527343749999
1.5807128906249999
1.5847412109374999
0.012890625
1.6733642578124999
1.9698486328125
1.7104248046875
1.8747802734374999
2.1470947265625
2.640966796875
2.67158203125
1.635498046875
1.2503906249999999
1.190771484375
1.2616699218749998
1.4107177734374998
1.3253173828125
1.4816162109375
1.4123291015625
1.4147460937499998
1.47275390625
1.4880615234374999
1.4606689453125
1.4655029296875
3.003515625
2.2614990234375
1.1222900390625
1.384130859375
1.2850341796875
0.8121093749999999
0.39638671875
0.4471435546875
0.623583984375
1.2584472656249999
1.6572509765624999
1.7217041015624999
1.6298583984375
1.7942138671874999
1.6943115234375
1.6765869140624998
1.7096191406249999
1.6403320312499998
1.619384765625
1.60166015625
1.5436523437499998
0.0169189453125
0.6912597656249999
2.0504150390625
1.7652099609374998
1.8264404296874999
2.2051025390625
2.5732910156249997
3.0043212890624997
1.883642578125
1.2455566406249998
1.174658203125
1.2624755859374999
1.327734375
1.3784912109374998
1.4445556640625
1.474365234375
1.3382080078124998
1.4244140625
1.445361328125
1.482421875
1.4711425781249998
1.5597656249999998
3.003515625
1.0981201171875
1.2060791015624999
1.327734375
0.8201660156249999
0.78955078125
0.43344726562499997
0.5148193359375
1.2318603515625
1.5686279296874999
1.719287109375
1.6266357421875
1.6604736328124998
1.7265380859375
1.667724609375
1.722509765625
1.66611328125
1.6250244140624999
1.5919921874999998
1.5597656249999998
1.4590576171874998
0.41330566406249997
2.0391357421875
1.8377197265624998
1.7499023437499999
2.199462890625
2.176904296875
3.0043212890624997
2.11728515625
1.397021484375
1.18916015625
1.2342773437499999
1.303564453125
1.4364990234375
1.4397216796874999
1.4244140625
1.4389160156249998
1.3712402343749999
1.4872558593749998
1.4735595703125
1.4550292968749998
1.4598632812499999
3.0043212890624997
1.3470703124999999
1.206884765625
1.3462646484374998
1.1045654296875
0.98291015625
0.26022949218749997
0.4358642578125
0.9692138671874999
1.5057861328125
1.7152587890625
1.690283203125
1.5678222656249998
1.7450683593749998
1.6725585937499998
1.625830078125
1.7208984374999998
1.6403320312499998
1.5895751953125
1.5799072265624998
1.5436523437499998
0.013696289062499999
1.7700439453124999
2.0004638671875
1.7587646484375
1.851416015625
2.018994140625
3.005126953125
2.5708740234375
1.5573486328125
1.1496826171874999
1.164990234375
1.30517578125
1.4783935546875
1.4606689453125
1.48564453125
1.3905761718749998
1.4139404296875
1.4437499999999999
1.4679199218749999
1.4872558593749998
1.4518066406249999
3.0027099609374996
2.0262451171875
1.200439453125
1.3470703124999999
1.2584472656249999
1.06025390625
0.291650390625
0.4471435546875
0.7033447265624999
1.464697265625
1.6435546875
1.6846435546874998
1.5726562499999999
1.8014648437499998
1.6822265625
1.6427490234375
1.7418457031249999
1.6524169921874998
1.5960205078124998
1.558154296875
1.5428466796875
0.013696289062499999
1.6556396484375
2.0069091796875
1.764404296875
1.861083984375
2.1438720703125
2.518505859375
3.005126953125
1.6306640625
1.2125244140625
1.197216796875
1.2858398437499998
1.4219970703125
1.361572265625
1.47275390625
1.477587890625
1.3470703124999999
1.4010498046875
1.44052734375
1.4510009765624998
1.4389160156249998
3.0027099609374996
2.2518310546875
1.0932861328124999
1.2423339843749999
1.2431396484375
0.7984130859374999
0.7460449218749999
0.46970214843749997
0.6767578125
1.2640869140625
1.5766845703124999
1.7128417968749998
1.6508056640625
1.7450683593749998
1.683837890625
1.6701416015625
1.687060546875
1.674169921875
1.6040771484374998
1.5831298828125
1.5734619140625
0.0120849609375
0.7001220703125
2.054443359375
1.8046875
1.8199951171875
2.2228271484374997
2.1978515625
3.005126953125
2.083447265625
1.3494873046875
1.184326171875
1.2052734375
1.3180664062499998
1.4171630859375
1.4316650390624999
1.4590576171874998
1.4268310546874998
1.377685546875
1.46953125
1.5041748046874999
1.4945068359375
1.5766845703124999
3.0043212890624997
1.2568359375
1.1432373046875
1.3156494140625
1.00224609375
0.7057617187499999
0.323876953125
0.514013671875
1.0594482421875
1.6403320312499998
1.690283203125
1.6967285156249998
1.6862548828125
1.719287109375
1.6475830078125
1.6508056640625
1.6943115234375
1.6524169921874998
1.603271484375
1.5541259765625
1.397021484375
0.012890625
1.90458984375
1.799853515625
1.7233154296875
1.9150634765624999
2.11083984375
3.003515625
2.3662353515625
1.353515625
1.152099609375
1.181103515625
1.287451171875
1.458251953125
1.4308593749999998
1.4920898437499999
1.3784912109374998
1.3905761718749998
1.4518066406249999
1.4550292968749998
1.4590576171874998
1.456640625
3.0043212890624997
1.3688232421875
1.2350830078125
1.3220947265624998
1.095703125
1.0650878906249999
0.10634765624999999
0.48259277343749996
0.9160400390625
1.5114257812499998
1.6604736328124998
1.7217041015624999
1.6008544921874999
1.7603759765625
1.69189453125
1.638720703125
1.751513671875
1.6636962890625
1.5960205078124998
1.5919921874999998
1.5678222656249998
0.012890625
1.7619873046874999
1.996435546875
1.7539306640624999
1.920703125
2.0898925781249997
2.7650390624999996
2.631298828125
1.5718505859374998
1.184326171875
1.1448486328125
1.2697265624999998
1.4445556640625
1.3623779296874998
1.4542236328125
1.4429443359374998
1.3285400390625
1.4518066406249999
1.456640625
1.461474609375
1.4501953125
3.0043212890624997
2.022216796875
1.0594482421875
1.397021484375
1.2665039062499999
0.8483642578124999
0.014501953125
0.39799804687499996
0.6759521484375
1.2576416015624998
1.63388671875
1.6967285156249998
1.6306640625
1.738623046875
1.683837890625
1.7184814453125
1.7015624999999999
1.6379150390625
1.6081054687499998
1.5960205078124998
1.5517089843749998
0.015307617187499999
0.9547119140625
2.0761962890625
1.7748779296875
1.880419921875
2.273583984375
2.3968505859375
3.0059326171875
1.9706542968749998
1.3108154296874999
1.1778808593749999
1.219775390625
1.327734375
1.3656005859375
1.4928955078125
1.4630859374999998
1.3043701171875
1.3905761718749998
1.5017578125
1.461474609375
1.4364990234375
1.920703125
3.0002929687499997
1.116650390625
1.2076904296875
1.3067871093749999
0.7645751953125
0.6654785156249999
0.343212890625
0.5204589843749999
1.26328125
1.5968261718749999
1.7281494140625
1.7007568359374998
1.7200927734375
1.740234375
1.651611328125
1.72734375
1.6645019531249998
1.59521484375
1.606494140625
1.558154296875
1.103759765625
0.012890625
2.11728515625
1.8312744140625
1.7587646484375
1.9787109374999998
2.20107421875
3.005126953125
2.296142578125
1.2221923828124999
1.09892578125
1.1770751953125
1.2753662109375
1.41796875
1.4622802734375
1.4574462890625
1.4026611328124998
1.4397216796874999
1.474365234375
1.482421875
1.4687255859375
1.461474609375
3.0010986328125
1.2544189453124999
1.21171875
1.33740234375
1.039306640625
0.9732421874999999
0.012890625
0.488232421875
1.01513671875
1.5702392578125
1.6862548828125
1.6959228515625
1.651611328125
1.7523193359375
1.6781982421875
1.667724609375
1.7507080078125
1.6540283203125
1.5968261718749999
1.5976318359375
1.5509033203125
0.013696289062499999
1.8796142578125
2.0036865234375
1.7797119140625
1.8925048828125
2.0488037109375
2.9656494140625
3.0043212890624997
1.496923828125
1.1698242187499999
1.1448486328125
1.2640869140625
1.4244140625
1.405078125
1.4961181640624999
1.4679199218749999
1.3422363281249998
1.4147460937499998
1.4373046875
1.4687255859375
1.4872558593749998
3.003515625
1.7982421874999999
1.0417236328125
1.3212890625
1.229443359375
0.8515869140625
0.46164550781249997
0.4189453125
0.7371826171875
1.3664062499999998
1.6459716796875
1.735400390625
1.5863525390625
1.75634765625
1.767626953125
1.780517578125
1.6943115234375
1.6177734375
1.651611328125
1.6242187499999998
1.533984375
0.013696289062499999
1.2423339843749999
2.0761962890625
1.80791015625
1.764404296875
2.3138671875
2.2888916015625
3.003515625
1.7442626953125
1.2125244140625
1.1690185546875
1.187548828125
1.3229003906249999
1.432470703125
1.4389160156249998
1.442138671875
1.3502929687499998
1.4034667968749999
1.4558349609374999
1.4526123046875
1.4542236328125
1.4791992187499998
2.947119140625
1.1335693359374999
1.1754638671875
1.3382080078124998
0.95068359375
0.8499755859375
0.34562988281249996
0.5478515625
1.126318359375
1.5541259765625
1.6959228515625
1.6935058593749999
1.6314697265625
1.740234375
1.7039794921875
1.6322753906249998
1.7313720703125
1.619384765625
1.585546875
1.5484863281249999
0.5365722656249999
0.030615234374999998
2.0230224609375
1.9634033203124999
1.7523193359375
2.028662109375
2.015771484375
3.005126953125
2.1374267578125
1.3744628906249998
1.1061767578125
1.2012451171875
1.3172607421875
1.4928955078125
1.458251953125
1.4510009765624998
1.36962890625
1.432470703125
1.4590576171874998
1.46953125
1.4711425781249998
1.4606689453125
3.003515625
1.55009765625
1.187548828125
1.3905761718749998
1.22783203125
0.9329589843749999
0.011279296874999999
0.546240234375
0.8902587890625
1.55009765625
1.6685302734374998
1.6878662109375
1.65
1.748291015625
1.6636962890625
1.6363037109374998
1.7531249999999998
1.6185791015625
1.5976318359375
1.6161621093749998
1.60166015625
0.014501953125
1.46953125
1.9585693359374998
1.7603759765625
1.8369140625
1.9924072265625
3.001904296875
2.9672607421875
1.4872558593749998
1.2157470703125
1.2342773437499999
1.2914794921875
1.4542236328125
1.448583984375
1.4848388671875
1.4187744140624998
1.3672119140624999
1.4590576171874998
1.4751708984374998
1.4284423828125
1.4598632812499999
3.003515625
1.6451660156249999
1.1077880859375
1.353515625
1.2995361328125
1.0143310546875
0.45358886718749997
0.5857177734375
0.90556640625
1.3913818359374999
1.5718505859374998
1.6943115234375
1.558154296875
1.7120361328125
1.6564453124999998
1.764404296875
1.703173828125
1.6371093749999999
1.6169677734374999
1.6056884765625
1.5597656249999998
0.014501953125
1.3494873046875
1.972265625
1.7039794921875
1.8111328125
2.1744873046874997
2.1358154296875
3.003515625
1.7716552734375
1.313232421875
1.2350830078125
1.2802001953125
1.3559326171875
1.380908203125
1.4606689453125
1.4477783203124999
1.3704345703124998
1.46953125
1.513037109375
1.5017578125
1.506591796875
2.550732421875
2.5845703125
1.1915771484375
1.3059814453124998
1.3212890625
0.990966796875
0.9087890624999999
0.7307373046875
0.8668945312499999
1.3043701171875
1.6306640625
1.62744140625
1.606494140625
1.65966796875
1.6298583984375
1.587158203125
1.587158203125
1.64677734375
1.558154296875
1.5758789062499998
1.55009765625
0.34079589843749997
0.41572265625
1.95615234375
1.7378173828124999
1.6886718749999998
1.9891845703125
2.006103515625
3.0043212890624997
1.9053955078125
1.271337890625
1.2399169921875
1.3019531249999998
1.5009521484375
1.351904296875
1.3510986328124999
1.329345703125
1.3083984375
1.3712402343749999
1.4107177734374998
1.456640625
1.4622802734375
1.4550292968749998
3.0067382812499996
1.164990234375
1.2125244140625
1.3599609375
1.0755615234375
1.1134277343749999
0.48017578125
0.936181640625
1.3398193359375
1.6000488281249998
1.6048828124999999
1.5911865234375
1.5758789062499998
1.6298583984375
1.5863525390625
1.5589599609375
1.6234130859375
1.5654052734375
1.554931640625
1.5678222656249998
1.5637939453124998
0.3182373046875
1.9537353515625
1.8473876953125
1.6781982421875
1.869140625
1.8868652343749999
2.6997802734375
2.0044921875
1.35673828125
1.2374999999999998
1.2979248046874998
1.3728515625
1.4864501953125
1.442138671875
1.4880615234374999
1.496923828125
1.43408203125
1.4703369140625
1.490478515625
1.4703369140625
1.50498046875
3.005126953125
1.5251220703125
1.168212890625
1.4123291015625
1.2995361328125
1.2093017578125
0.6429199218749999
0.9305419921875
1.21494140625
1.5315673828124998
1.6153564453125
1.6040771484374998
1.5154541015624998
1.6363037109374998
1.5968261718749999
1.619384765625
1.60166015625
1.5533203125
1.561376953125
1.53720703125
1.5114257812499998
0.013696289062499999
1.5170654296875
1.8425537109374999
1.658056640625
1.7362060546875
1.9545410156249998
2.2727783203125
2.6997802734375
1.5815185546875
1.255224609375
1.3027587890624999
1.6814208984374999
1.6008544921874999
1.4574462890625
1.4147460937499998
1.38896484375
1.3470703124999999
1.4026611328124998
1.4574462890625
1.4518066406249999
1.4655029296875
2.5249511718749997
1.5517089843749998
1.132763671875
1.3446533203125
1.3494873046875
1.1351806640625
0.9627685546875
0.9571289062499999
1.2076904296875
1.5025634765625
1.5807128906249999
1.603271484375
1.525927734375
1.6129394531249999
1.574267578125
1.587158203125
1.625830078125
1.561376953125
1.5492919921875
1.529150390625
1.5218994140625
0.38510742187499997
1.416357421875
1.9198974609375
1.6693359374999999
1.7426513671875
1.9585693359374998
1.9142578124999998
2.8673583984374997
1.5202880859374999
1.2737548828124998
1.316455078125
1.3801025390625
1.4518066406249999
1.4526123046875
1.4912841796874998
1.4493896484375
1.4510009765624998
1.4800048828124999
1.4832275390624998
1.4735595703125
1.4961181640624999
2.18173828125
2.305810546875
1.2109130859375
1.36962890625
1.393798828125
1.15048828125
1.181103515625
0.91201171875
1.0997314453125
1.3946044921874998
1.5968261718749999
1.59521484375
1.5807128906249999
1.6185791015625
1.587158203125
1.5734619140625
1.5782958984375
1.6000488281249998
1.5243164062499999
1.5283447265624999
1.5154541015624998
0.79921875
0.5865234375
1.9247314453125
1.6814208984374999
1.6443603515624998
1.8385253906249999
1.8884765625
2.8230468749999997
1.8884765625
1.3623779296874998
1.3317626953125
1.3712402343749999
1.4155517578124999
1.4630859374999998
1.4598632812499999
1.49853515625
1.432470703125
1.4501953125
1.48564453125
1.4687255859375
1.48564453125
1.477587890625
2.9849853515625
1.232666015625
1.2995361328125
1.4236083984374999
1.1770751953125
1.19560546875
0.8225830078124999
1.0328613281249999
1.3728515625
1.5678222656249998
1.58232421875
1.56943359375
1.5476806640624998
1.635498046875
1.5605712890624999
1.6040771484374998
1.5525146484374999
1.5364013671874999
1.5355957031249998
1.538818359375
1.5194824218749998
0.42216796874999996
1.8393310546875
1.7635986328125
1.651611328125
1.7853515624999998
1.764404296875
2.2832519531249997
2.0294677734374997
1.405078125
1.3059814453124998
1.3349853515624999
1.4276367187499999
1.48564453125
1.4550292968749998
1.47275390625
1.4816162109375
1.4228027343749998
1.4703369140625
1.4791992187499998
1.4800048828124999
1.48564453125
3.0043212890624997
1.5194824218749998
1.2254150390625
1.4316650390624999
1.3510986328124999
1.224609375
0.72509765625
1.071533203125
1.2463623046874999
1.5267333984375
1.5726562499999999
1.587158203125
1.506591796875
1.6040771484374998
1.5525146484374999
1.574267578125
1.6330810546874999
1.5541259765625
1.5645996093749999
1.5557373046874998
1.5444580078124999
0.013696289062499999
1.4912841796874998
1.8248291015625
1.6540283203125
1.6967285156249998
1.9037841796875
2.5201171875
2.3356201171874997
1.5090087890625
1.2947021484374999
1.3253173828125
1.3921875
1.4703369140625
1.4542236328125
1.4872558593749998
1.4542236328125
1.4590576171874998
1.4993408203124998
1.480810546875
1.4759765624999999
1.4751708984374998
2.40087890625
2.151123046875
1.2012451171875
1.4123291015625
1.3744628906249998
1.198828125
1.0820068359375
1.00546875
1.1222900390625
1.5090087890625
1.56298828125
1.5758789062499998
1.5283447265624999
1.6153564453125
1.5791015625
1.5726562499999999
1.603271484375
1.56943359375
1.546875
1.5331787109375
1.5194824218749998
0.456005859375
1.4058837890625
1.893310546875
1.6532226562499999
1.6886718749999998
1.931982421875
1.9198974609375
2.7585937499999997
1.5509033203125
1.33740234375
1.3462646484374998
1.3986328124999998
1.3317626953125
1.429248046875
1.56298828125
1.5251220703125
1.44052734375
1.3897705078125
1.5122314453124999
1.561376953125
1.5041748046874999
2.0898925781249997
2.2437744140625
1.2882568359375
1.397021484375
1.3873535156249999
1.1778808593749999
1.1923828125
1.0368896484374999
1.1142333984375
1.3833251953124999
1.5533203125
1.59521484375
1.5654052734375
1.5541259765625
1.603271484375
1.5726562499999999
1.6105224609375
1.5533203125
1.5404296874999999
1.5428466796875
1.5396240234374998
0.8531982421875
0.6380859375
1.8586669921874999
1.6540283203125
1.6435546875
1.803076171875
1.8361083984375
2.7739013671875
1.8884765625
1.393798828125
1.3341796874999998
1.3929931640625
1.4155517578124999
1.4590576171874998
1.4816162109375
1.4896728515625
1.4373046875
1.4477783203124999
1.48564453125
1.49853515625
1.4832275390624998
1.4767822265625
2.9656494140625
1.2592529296875
1.3212890625
1.4219970703125
1.22138671875
1.2205810546875
0.760546875
1.0610595703124999
1.3559326171875
1.5637939453124998
1.5670166015625
1.5645996093749999
1.53076171875
1.6209960937499999
1.554931640625
1.5645996093749999
1.6072998046875
1.554931640625
1.5525146484374999
1.5283447265624999
1.5073974609374998
0.4793701171875
1.8111328125
1.7249267578124998
1.6242187499999998
1.7571533203124998
1.7466796875
2.616796875
1.812744140625
1.405078125
1.335791015625
1.3470703124999999
1.397021484375
1.4953124999999998
1.4816162109375
1.4977294921875
1.4389160156249998
1.4977294921875
1.4888671875
1.4816162109375
1.4864501953125
1.4993408203124998
2.9978759765625
1.5412353515625
1.2608642578125
1.409912109375
1.3623779296874998
1.229443359375
0.752490234375
1.0803955078125
1.2310546875
1.513037109375
1.585546875
1.58232421875
1.5170654296875
1.609716796875
1.5589599609375
1.554931640625
1.6040771484374998
1.5517089843749998
1.5355957031249998
1.533984375
1.5267333984375
0.014501953125
1.496923828125
1.8393310546875
1.6177734375
1.6991455078125
1.8828369140624999
2.13984375
2.415380859375
1.5621826171875
1.33740234375
1.3744628906249998
1.4058837890625
1.4558349609374999
1.4590576171874998
1.4920898437499999
1.4872558593749998
1.4252197265625
1.4800048828124999
1.4864501953125
1.4832275390624998
1.5009521484375
2.3211181640625
2.14951171875
1.2028564453125
1.393798828125
1.38896484375
1.2254150390625
0.9353759765624999
1.0626708984375
1.1432373046875
1.4920898437499999
1.5621826171875
1.5702392578125
1.5106201171875
1.6161621093749998
1.58232421875
1.593603515625
1.5791015625
1.538818359375
1.542041015625
1.5347900390625
1.5235107421874998
0.6598388671875
1.3543212890624998
1.8425537109374999
1.6475830078125
1.65
1.8900878906249998
1.8441650390625
2.7392578125
1.5831298828125
1.340625
1.353515625
1.4155517578124999
1.4655029296875
1.4526123046875
1.4759765624999999
1.46630859375
1.4526123046875
1.4655029296875
1.477587890625
1.482421875
1.4832275390624998
2.006103515625
2.3050048828125
1.2528076171875
1.3446533203125
1.3825195312499998
1.1867431640625
1.2020507812499999
0.9998291015624999
1.15693359375
1.3768798828125
1.5565429687499999
1.5718505859374998
1.5662109375
1.5380126953125
1.603271484375
1.5654052734375
1.5444580078124999
1.577490234375
1.5412353515625
1.5323730468749999
1.529150390625
0.8612548828125
0.6856201171874999
1.8441650390625
1.6483886718749998
1.638720703125
1.780517578125
1.7466796875
2.7593994140625
1.690283203125
1.4010498046875
1.3527099609375
1.3801025390625
1.43408203125
1.4751708984374998
1.4687255859375
1.4638916015624999
1.44052734375
1.4791992187499998
1.4848388671875
1.4912841796874998
1.5009521484375
1.4993408203124998
2.905224609375
1.271337890625
1.327734375
1.4252197265625
1.3559326171875
1.2423339843749999
0.8419189453125
1.0610595703124999
1.3623779296874998
1.5589599609375
1.5654052734375
1.585546875
1.5589599609375
1.6105224609375
1.558154296875
1.5428466796875
1.590380859375
1.5621826171875
1.5331787109375
1.5243164062499999
1.5114257812499998
0.0362548828125
1.79501953125
1.7394287109375
1.6000488281249998
1.7772949218749998
1.7853515624999998
2.4081298828124997
2.228466796875
1.416357421875
1.348681640625
1.3817138671875
1.4300537109375
1.4872558593749998
1.461474609375
1.4872558593749998
1.4679199218749999
1.426025390625
1.4840332031249999
1.490478515625
1.5082031249999999
1.4848388671875
2.9720947265624997
1.5460693359375
1.2689208984375
1.4228027343749998
1.3591552734374999
1.248779296875
0.9063720703125
1.058642578125
1.2673095703125
1.4880615234374999
1.5517089843749998
1.58232421875
1.4993408203124998
1.6040771484374998
1.5589599609375
1.5879638671874998
1.5702392578125
1.5436523437499998
1.55009765625
1.5396240234374998
1.5138427734375
0.015307617187499999
1.4638916015624999
1.82724609375
1.6218017578125
1.6886718749999998
1.864306640625
2.1503173828124997
2.4443847656249997
1.5654052734375
1.3309570312499999
1.34384765625
1.4107177734374998
1.46630859375
1.4711425781249998
1.490478515625
1.4840332031249999
1.4510009765624998
1.4735595703125
1.4638916015624999
1.4800048828124999
1.4767822265625
2.24619140625
2.1728759765625
1.239111328125
1.42119140625
1.4195800781249999
1.1947998046875
1.0892578124999999
1.036083984375
1.1593505859375
1.4896728515625
1.5758789062499998
1.5670166015625
1.5106201171875
1.5782958984375
1.5758789062499998
1.5533203125
1.6161621093749998
1.5782958984375
1.5589599609375
1.5235107421874998
1.5186767578125
0.6356689453125
1.3728515625
1.85625
1.65
1.6435546875
1.8707519531249999
1.85302734375
2.6965576171874996
1.5275390624999998
1.3422363281249998
1.345458984375
1.3873535156249999
1.4268310546874998
1.4429443359374998
1.477587890625
1.4735595703125
1.44052734375
1.4848388671875
1.4961181640624999
1.5025634765625
1.5009521484375
1.4888671875
2.281640625
1.232666015625
1.3180664062499998
1.40830078125
1.2334716796875
1.2447509765625
1.013525390625
1.1480712890625
1.3978271484375
1.5557373046874998
1.5645996093749999
1.538818359375
1.577490234375
1.5726562499999999
1.5686279296874999
1.5807128906249999
1.5726562499999999
1.5509033203125
1.5355957031249998
1.5323730468749999
1.00546875
0.6678955078125
1.8304687499999999
1.6894775390624999
1.6282470703124998
1.7893798828124998
1.7555419921875
2.599072265625
1.85625
1.4042724609375
1.361572265625
1.4123291015625
1.4308593749999998
1.480810546875
1.4719482421874999
1.490478515625
1.4719482421874999
1.4493896484375
1.4888671875
1.4800048828124999
1.51787109375
1.4912841796874998
2.856884765625
1.4461669921875
1.3382080078124998
1.44052734375
1.3583496093749998
1.252001953125
0.87978515625
1.1222900390625
1.2930908203125
1.545263671875
1.5654052734375
1.5758789062499998
1.5331787109375
1.6056884765625
1.56298828125
1.6024658203125
1.56298828125
1.5275390624999998
1.5525146484374999
1.53076171875
1.5122314453124999
0.08701171875
1.8062988281249999
1.7176757812499999
1.6459716796875
1.7394287109375
1.72734375
2.1857666015625
2.3066162109375
1.4356933593749999
1.3365966796875
1.3728515625
1.4276367187499999
1.5033691406249998
1.4526123046875
1.50498046875
1.4767822265625
1.4373046875
1.4872558593749998
1.5009521484375
1.480810546875
1.493701171875
2.8939453124999996
1.5364013671874999
1.2616699218749998
1.4373046875
1.3881591796875
1.2584472656249999
1.1158447265625
1.1448486328125
1.281005859375
1.506591796875
1.577490234375
1.5654052734375
1.513037109375
1.5927978515624999
1.5492919921875
1.545263671875
1.60166015625
1.5509033203125
1.5162597656249999
1.5162597656249999
1.5299560546875
0.08056640625
1.482421875
1.8071044921875
1.6177734375
1.6975341796874999
1.85947265625
2.3436767578124997
2.212353515625
1.50498046875
1.34384765625
1.3728515625
1.42119140625
1.47275390625
1.4711425781249998
1.4872558593749998
1.4872558593749998
1.4606689453125
1.490478515625
1.496923828125
1.493701171875
1.4840332031249999
2.1696533203125
2.1374267578125
1.2310546875
1.4300537109375
1.42119140625
1.222998046875
1.1375976562499999
1.0755615234375
1.1666015625
1.49853515625
1.5509033203125
1.5565429687499999
1.529150390625
1.6040771484374998
1.56943359375
1.53720703125
1.5766845703124999
1.5541259765625
1.5589599609375
1.5283447265624999
1.5194824218749998
0.7822998046874999
1.3422363281249998
1.8312744140625
1.63388671875
1.61455078125
1.8812255859375
1.8417480468749998
2.599072265625
1.6040771484374998
1.3583496093749998
1.3672119140624999
1.397021484375
1.4606689453125
1.474365234375
1.4791992187499998
1.4953124999999998
1.4501953125
1.4606689453125
1.4912841796874998
1.506591796875
1.4888671875
1.48564453125
2.2727783203125
1.2423339843749999
1.332568359375
1.4300537109375
1.2374999999999998
1.2568359375
1.0997314453125
1.171435546875
1.4123291015625
1.55009765625
1.5726562499999999
1.5621826171875
1.542041015625
1.571044921875
1.554931640625
1.5895751953125
1.5605712890624999
1.542041015625
1.546875
1.5331787109375
1.1045654296875
0.6251953124999999
1.7893798828124998
1.6878662109375
1.6443603515624998
1.7861572265624999
1.7450683593749998
2.6280761718749996
1.8498046874999998
1.3978271484375
1.3688232421875
1.397021484375
1.426025390625
1.4848388671875
1.46953125
1.4751708984374998
1.4679199218749999
1.4783935546875
1.5025634765625
1.4864501953125
1.509814453125
1.4928955078125
2.8593017578124997
1.4606689453125
1.3269287109374999
1.4373046875
1.3688232421875
1.2624755859374999
0.813720703125
1.16337890625
1.2850341796875
1.5645996093749999
1.571044921875
1.5654052734375
1.53720703125
1.6177734375
1.5484863281249999
1.545263671875
1.5992431640625
1.542041015625
1.53076171875
1.5315673828124998
1.5154541015624998
0.11440429687499999
1.796630859375
1.7265380859375
1.5927978515624999
1.6886718749999998
1.7281494140625
2.4419677734375
2.1333984375
1.4066894531249998
1.33740234375
1.3784912109374998
1.4373046875
1.4961181640624999
1.4711425781249998
1.490478515625
1.4373046875
1.4590576171874998
1.4848388671875
1.49853515625
1.4783935546875
1.4848388671875
2.8721923828125
1.561376953125
1.2479736328125
1.41796875
1.36962890625
1.2568359375
1.077978515625
1.123095703125
1.2665039062499999
1.51787109375
1.5557373046874998
1.56298828125
1.5057861328125
1.6121337890624998
1.5605712890624999
1.5460693359375
1.593603515625
1.5299560546875
1.533984375
1.5364013671874999
1.5202880859374999
0.0966796875
1.4219970703125
1.8248291015625
1.6137451171875
1.6669189453125
1.8538330078124998
1.8578613281249998
2.3952392578125
1.5621826171875
1.3551269531249999
1.37607421875
1.40830078125
1.4590576171874998
1.4671142578124998
1.4896728515625
1.493701171875
1.4332763671875
1.4606689453125
1.4800048828124999
1.4896728515625
1.5025634765625
2.1648193359375
2.1358154296875
1.2423339843749999
1.4034667968749999
1.416357421875
1.2012451171875
1.0852294921874999
1.110205078125
1.1883544921875
1.4832275390624998
1.558154296875
1.577490234375
1.5476806640624998
1.59521484375
1.5702392578125
1.5533203125
1.5944091796875
1.5492919921875
1.5380126953125
1.5404296874999999
1.513037109375
0.8789794921874999
0.7621582031249999
1.8183837890624999
1.6363037109374998
1.6411376953124999
1.869140625
1.8087158203125
2.6280761718749996
1.5992431640625
1.351904296875
1.3672119140624999
1.4123291015625
1.45341796875
1.4671142578124998
1.490478515625
1.4840332031249999
1.4437499999999999
1.4800048828124999
1.4928955078125
1.4759765624999999
1.506591796875
1.4848388671875
2.29453125
1.2737548828124998
1.3768798828125
1.400244140625
1.24072265625
1.235888671875
0.9917724609374999
1.158544921875
1.3873535156249999
1.5766845703124999
1.5791015625
1.5702392578125
1.5509033203125
1.5911865234375
1.56298828125
1.561376953125
1.6024658203125
1.5509033203125
1.5315673828124998
1.5364013671874999
1.0868408203125
0.6598388671875
1.82080078125
1.7370117187499998
1.6161621093749998
1.72734375
1.7104248046875
2.6562744140624996
1.7474853515625
1.3994384765624999
1.3583496093749998
1.3897705078125
1.4308593749999998
1.4767822265625
1.4888671875
1.4920898437499999
1.4389160156249998
1.480810546875
1.4953124999999998
1.493701171875
1.4832275390624998
1.4945068359375
2.866552734375
1.2850341796875
1.3446533203125
1.4276367187499999
1.3551269531249999
1.2818115234374998
0.8773681640625
1.1303466796875
1.3825195312499998
1.5484863281249999
1.5541259765625
1.5645996093749999
1.558154296875
1.6121337890624998
1.5573486328125
1.585546875
1.5573486328125
1.5315673828124998
1.5484863281249999
1.5541259765625
1.4993408203124998
0.1297119140625
1.77890625
1.7168701171874998
1.6129394531249999
1.740234375
1.7362060546875
2.11083984375
1.9537353515625
1.464697265625
1.3720458984375
1.3849365234375
1.4381103515625
1.5170654296875
1.4590576171874998
1.4767822265625
1.4880615234374999
1.4284423828125
1.4816162109375
1.509814453125
1.4920898437499999
1.4912841796874998
2.8391601562499997
1.5323730468749999
1.2697265624999998
1.4550292968749998
1.3728515625
1.255224609375
0.8612548828125
1.132763671875
1.2745605468749999
1.5033691406249998
1.5718505859374998
1.5782958984375
1.5090087890625
1.5968261718749999
1.56943359375
1.5541259765625
1.587158203125
1.542041015625
1.53720703125
1.5186767578125
1.5114257812499998
0.13615722656249998
1.4461669921875
1.82724609375
1.6185791015625
1.6822265625
1.8707519531249999
2.10439453125
2.3243408203125
1.5194824218749998
1.3446533203125
1.36962890625
1.4147460937499998
1.4800048828124999
1.4461669921875
1.4961181640624999
1.4832275390624998
1.448583984375
1.4945068359375
1.4816162109375
1.4945068359375
1.5009521484375
2.0858642578124997
1.6556396484375
1.2350830078125
1.4058837890625
1.3929931640625
1.2262207031249999
1.155322265625
1.0675048828125
1.2673095703125
1.5154541015624998
1.5637939453124998
1.56943359375
1.5122314453124999
1.5815185546875
1.577490234375
1.5484863281249999
1.6048828124999999
1.5702392578125
1.525927734375
1.5541259765625
1.5114257812499998
0.84111328125
1.3398193359375
1.8457763671874998
1.6282470703124998
1.6685302734374998
1.8336914062499998
1.8087158203125
2.5902099609375
1.5267333984375
1.345458984375
1.368017578125
1.409912109375
1.4501953125
1.477587890625
1.4896728515625
1.493701171875
1.442138671875
1.493701171875
1.5082031249999999
1.4896728515625
1.4896728515625
1.8731689453125
2.257470703125
1.264892578125
1.3978271484375
1.4187744140624998
1.2374999999999998
1.2608642578125
1.0433349609375
1.168212890625
1.4066894531249998
1.5637939453124998
1.5791015625
1.5734619140625
1.5670166015625
1.587158203125
1.5605712890624999
1.5960205078124998
1.5509033203125
1.5202880859374999
1.5243164062499999
1.5267333984375
1.126318359375
0.6421142578125
1.8135498046874998
1.6483886718749998
1.6234130859375
1.767626953125
1.7909912109375
2.5450927734374997
1.844970703125
1.3825195312499998
1.3527099609375
1.409912109375
1.442138671875
1.4840332031249999
1.4848388671875
1.4840332031249999
1.4679199218749999
1.4413330078125
1.4848388671875
1.4848388671875
1.5146484375
1.4993408203124998
2.8399658203125
1.271337890625
1.3382080078124998
1.4445556640625
1.2616699218749998
1.2753662109375
0.9337646484375
1.1222900390625
1.3913818359374999
1.5654052734375
1.5670166015625
1.5686279296874999
1.5460693359375
1.590380859375
1.5847412109374999
1.585546875
1.571044921875
1.5484863281249999
1.5235107421874998
1.5331787109375
1.52109375
0.49951171875
1.8151611328125
1.7249267578124998
1.606494140625
1.7265380859375
1.7023681640625
2.318701171875
1.8336914062499998
1.3873535156249999
1.3398193359375
1.3873535156249999
1.4316650390624999
1.4864501953125
1.4703369140625
1.493701171875
1.461474609375
1.464697265625
1.4993408203124998
1.4888671875
1.48564453125
1.482421875
2.8351318359374997
1.5444580078124999
1.2503906249999999
1.448583984375
1.3607666015625
1.24716796875
0.8644775390624999
1.1722412109375
1.2818115234374998
1.5323730468749999
1.5895751953125
1.577490234375
1.5267333984375
1.593603515625
1.5678222656249998
1.5573486328125
1.611328125
1.538818359375
