1.522705078125
1.5678222656249998
1.593603515625
1.7660156249999999
1.6773925781249999
1.5750732421875
1.5154541015624998
1.5138427734375
1.5380126953125
1.509814453125
1.5283447265624999
1.4832275390624998
1.5041748046874999
1.477587890625
1.5025634765625
1.5033691406249998
1.48564453125
1.5251220703125
1.77568359375
1.590380859375
1.542041015625
1.5412353515625
1.4550292968749998
1.4679199218749999
1.3881591796875
1.3575439453125
1.3857421875
1.429248046875
1.4767822265625
1.4735595703125
1.4888671875
1.5436523437499998
1.5315673828124998
1.5122314453124999
1.5347900390625
1.5041748046874999
1.5202880859374999
1.5380126953125
1.5194824218749998
1.1980224609374999
1.42119140625
1.47275390625
1.4840332031249999
1.5686279296874999
1.577490234375
1.751513671875
1.6991455078125
1.5831298828125
1.522705078125
1.5082031249999999
1.4848388671875
1.5243164062499999
1.496923828125
1.5138427734375
1.5138427734375
1.4864501953125
1.5557373046874998
1.5283447265624999
1.46953125
1.52109375
1.7345947265625
1.674169921875
1.5001464843749999
1.4840332031249999
1.509814453125
1.442138671875
1.368017578125
1.3382080078124998
1.3929931640625
1.448583984375
1.448583984375
1.5017578125
1.4953124999999998
1.529150390625
1.5170654296875
1.49853515625
1.533984375
1.522705078125
1.5106201171875
1.5283447265624999
1.5412353515625
1.2415283203124998
1.332568359375
1.490478515625
1.4735595703125
1.5186767578125
1.5911865234375
1.6701416015625
1.7507080078125
1.6161621093749998
1.5275390624999998
1.5436523437499998
1.542041015625
1.5025634765625
1.5283447265624999
1.513037109375
1.5235107421874998
1.4791992187499998
1.4928955078125
1.509814453125
1.5243164062499999
1.525927734375
1.5194824218749998
1.7055908203124999
1.533984375
1.5218994140625
1.4638916015624999
1.4228027343749998
1.4219970703125
1.368017578125
1.3672119140624999
1.456640625
1.4953124999999998
1.496923828125
1.4711425781249998
1.5041748046874999
1.4800048828124999
1.5251220703125
1.53076171875
1.5138427734375
1.5106201171875
1.513037109375
1.5347900390625
1.3043701171875
1.30517578125
1.480810546875
1.5146484375
1.53076171875
1.5517089843749998
1.6008544921874999
1.8232177734375
1.6177734375
1.5509033203125
1.5533203125
1.522705078125
1.5041748046874999
1.5090087890625
1.5009521484375
1.522705078125
1.5267333984375
1.474365234375
1.4872558593749998
1.5017578125
1.5009521484375
1.5114257812499998
1.8014648437499998
1.585546875
1.5202880859374999
1.533984375
1.4800048828124999
1.42119140625
1.3204833984375
1.3575439453125
1.4381103515625
1.4655029296875
1.5009521484375
1.4800048828124999
1.5138427734375
1.5162597656249999
1.4928955078125
1.4655029296875
1.5557373046874998
1.522705078125
1.5799072265624998
1.5138427734375
1.50498046875
1.197216796875
1.4590576171874998
1.5162597656249999
1.5001464843749999
1.6048828124999999
1.5799072265624998
1.799853515625
1.6524169921874998
1.5573486328125
1.5138427734375
1.4880615234374999
1.4993408203124998
1.5251220703125
1.5009521484375
1.5001464843749999
1.506591796875
1.5355957031249998
1.53076171875
1.5009521484375
1.4896728515625
1.490478515625
1.7893798828124998
1.6177734375
1.5218994140625
1.5218994140625
1.4558349609374999
1.4816162109375
1.3446533203125
1.393798828125
1.3825195312499998
1.4219970703125
1.490478515625
1.5380126953125
1.4735595703125
1.5323730468749999
1.5202880859374999
1.5194824218749998
1.5235107421874998
1.538818359375
1.4848388671875
1.5041748046874999
1.5267333984375
1.2052734375
1.4373046875
1.493701171875
1.5364013671874999
1.525927734375
1.6056884765625
1.7490966796874998
1.703173828125
1.5919921874999998
1.529150390625
1.5017578125
1.5331787109375
1.5073974609374998
1.5243164062499999
1.5380126953125
1.5275390624999998
1.4759765624999999
1.4961181640624999
1.493701171875
1.4953124999999998
1.5057861328125
1.7603759765625
1.6781982421875
1.533984375
1.5484863281249999
1.48564453125
1.429248046875
1.348681640625
1.340625
1.400244140625
1.4598632812499999
1.4469726562499998
1.480810546875
1.4912841796874998
1.5218994140625
1.5025634765625
1.5380126953125
1.5267333984375
1.538818359375
1.5355957031249998
1.52109375
1.480810546875
1.2479736328125
1.4115234374999999
1.506591796875
1.49853515625
1.546875
1.6081054687499998
1.59521484375
1.803076171875
1.6081054687499998
1.5323730468749999
1.5025634765625
1.5235107421874998
1.5218994140625
1.509814453125
1.5412353515625
1.4888671875
1.506591796875
1.5073974609374998
1.4703369140625
1.5299560546875
1.4993408203124998
1.7281494140625
1.6951171875
1.5235107421874998
1.5138427734375
1.4961181640624999
1.4550292968749998
1.4364990234375
1.4195800781249999
1.3744628906249998
1.4219970703125
1.4711425781249998
1.4816162109375
1.4920898437499999
1.4848388671875
1.5202880859374999
1.5170654296875
1.529150390625
1.5057861328125
1.4961181640624999
1.5001464843749999
1.5025634765625
1.276171875
1.3019531249999998
1.46953125
1.5138427734375
1.5106201171875
1.5283447265624999
1.6008544921874999
1.7853515624999998
1.625830078125
1.5597656249999998
1.5267333984375
1.51787109375
1.5347900390625
1.496923828125
1.5138427734375
1.533984375
1.4977294921875
1.49853515625
1.5186767578125
1.49853515625
1.4840332031249999
1.493701171875
1.82080078125
1.56943359375
1.5347900390625
1.5057861328125
1.4783935546875
1.4268310546874998
1.3704345703124998
1.3575439453125
1.4107177734374998
1.4469726562499998
1.4630859374999998
1.493701171875
1.522705078125
1.5283447265624999
1.5186767578125
1.546875
1.5041748046874999
1.5001464843749999
1.5315673828124998
1.5154541015624998
1.480810546875
1.206884765625
1.5138427734375
1.506591796875
1.5017578125
1.55009765625
1.5791015625
1.738623046875
1.67900390625
1.5815185546875
1.509814453125
1.51787109375
1.5235107421874998
1.49853515625
1.5154541015624998
1.5331787109375
1.5267333984375
1.4518066406249999
1.5033691406249998
1.5114257812499998
1.4961181640624999
1.52109375
1.8199951171875
1.5984375
1.5146484375
1.5025634765625
1.4574462890625
1.400244140625
1.368017578125
1.351904296875
1.4518066406249999
1.4550292968749998
1.4928955078125
1.4751708984374998
1.4679199218749999
1.5025634765625
1.5017578125
1.490478515625
1.525927734375
1.522705078125
1.5492919921875
1.533984375
1.506591796875
1.2125244140625
1.4034667968749999
1.5154541015624998
1.4679199218749999
1.5017578125
1.590380859375
1.767626953125
1.7055908203124999
1.6081054687499998
1.5194824218749998
1.5444580078124999
1.529150390625
1.49853515625
1.4888671875
1.509814453125
1.5597656249999998
1.5082031249999999
1.5122314453124999
1.47275390625
1.5251220703125
1.51787109375
1.7418457031249999
1.5984375
1.5057861328125
1.5114257812499998
1.5041748046874999
1.429248046875
1.33740234375
1.353515625
1.3921875
1.46953125
1.4872558593749998
1.4896728515625
1.509814453125
1.53076171875
1.4880615234374999
1.5082031249999999
1.4993408203124998
1.5444580078124999
1.5114257812499998
1.5170654296875
1.53720703125
1.2769775390625
1.3962158203125
1.4961181640624999
1.538818359375
1.4953124999999998
1.5984375
1.6395263671875
1.8054931640624998
1.635498046875
1.5436523437499998
1.5162597656249999
1.5347900390625
1.4751708984374998
1.4912841796874998
1.4961181640624999
1.5186767578125
1.546875
1.5170654296875
1.5122314453124999
1.49853515625
1.5057861328125
1.7289550781249998
1.71123046875
1.522705078125
1.5412353515625
1.5331787109375
1.4284423828125
1.42119140625
1.3752685546874999
1.3583496093749998
1.432470703125
1.4332763671875
1.48564453125
1.4703369140625
1.5267333984375
1.506591796875
1.5355957031249998
1.51787109375
1.5404296874999999
1.5267333984375
1.5082031249999999
1.574267578125
1.2656982421874998
1.297119140625
1.4961181640624999
1.513037109375
1.5017578125
1.5404296874999999
1.5887695312499999
1.8119384765625
1.69189453125
1.5243164062499999
1.5355957031249998
1.5299560546875
1.513037109375
1.48564453125
1.5396240234374998
1.5275390624999998
1.4961181640624999
1.4767822265625
1.4920898437499999
1.48564453125
1.490478515625
1.482421875
1.77568359375
1.5492919921875
1.5509033203125
1.5412353515625
1.4461669921875
1.4123291015625
1.3583496093749998
1.3825195312499998
1.4244140625
1.448583984375
1.4767822265625
1.4977294921875
1.5235107421874998
1.5122314453124999
1.522705078125
1.5082031249999999
1.5154541015624998
1.5315673828124998
1.5218994140625
1.5057861328125
1.5106201171875
1.2785888671874999
1.4719482421874999
1.5017578125
1.5057861328125
1.5565429687499999
1.5911865234375
1.799853515625
1.651611328125
1.5879638671874998
1.5533203125
1.509814453125
1.5033691406249998
1.5114257812499998
1.496923828125
1.5267333984375
1.506591796875
1.53076171875
1.4493896484375
1.4872558593749998
1.48564453125
1.5001464843749999
1.8046875
1.5766845703124999
1.4977294921875
1.5275390624999998
1.5186767578125
1.4791992187499998
1.3261230468749998
1.3551269531249999
1.400244140625
1.4832275390624998
1.4356933593749999
1.4864501953125
1.47275390625
1.5533203125
1.5355957031249998
1.5235107421874998
1.5283447265624999
1.5404296874999999
1.529150390625
1.4840332031249999
1.5355957031249998
1.2020507812499999
1.4195800781249999
1.5146484375
1.4880615234374999
1.5323730468749999
1.5525146484374999
1.7603759765625
1.7362060546875
1.5412353515625
1.5654052734375
1.5162597656249999
1.542041015625
1.5082031249999999
1.509814453125
1.4888671875
1.5025634765625
1.4945068359375
1.482421875
1.509814453125
1.5154541015624998
1.5162597656249999
1.7853515624999998
1.5992431640625
1.5162597656249999
1.5122314453124999
1.5057861328125
1.4445556640625
1.3599609375
1.3833251953124999
1.3994384765624999
1.4284423828125
1.4783935546875
1.490478515625
1.5025634765625
1.5073974609374998
1.5186767578125
1.5017578125
1.5017578125
1.5194824218749998
1.525927734375
1.4880615234374999
1.4993408203124998
1.1859374999999999
1.3857421875
1.52109375
1.5057861328125
1.56298828125
1.590380859375
1.609716796875
1.7772949218749998
1.62744140625
1.5484863281249999
1.506591796875
1.4993408203124998
1.493701171875
1.5404296874999999
1.5243164062499999
1.506591796875
1.4840332031249999
1.51787109375
1.509814453125
1.5122314453124999
1.5114257812499998
1.7120361328125
1.7072021484375
1.5251220703125
1.5267333984375
1.4840332031249999
1.4655029296875
1.3946044921874998
1.327734375
1.3712402343749999
1.4437499999999999
1.4928955078125
1.522705078125
1.4840332031249999
1.509814453125
1.5122314453124999
1.5082031249999999
1.5412353515625
1.5235107421874998
1.5275390624999998
1.4816162109375
1.52109375
1.281005859375
1.2955078125
1.5106201171875
1.525927734375
1.5251220703125
1.5492919921875
1.6008544921874999
1.828857421875
1.6491943359374999
1.5533203125
1.5114257812499998
1.5025634765625
1.4848388671875
1.5251220703125
1.493701171875
1.5154541015624998
1.513037109375
1.538818359375
1.5017578125
1.5009521484375
1.522705078125
1.50498046875
1.7394287109375
1.5621826171875
1.5460693359375
1.506591796875
1.4356933593749999
1.40830078125
1.3688232421875
1.351904296875
1.413134765625
1.4703369140625
1.461474609375
1.4791992187499998
1.482421875
1.5267333984375
1.513037109375
1.513037109375
1.5299560546875
1.5509033203125
1.5509033203125
1.4880615234374999
1.300341796875
1.2640869140625
1.474365234375
1.4767822265625
1.5170654296875
1.558154296875
1.609716796875
1.8022705078124999
1.662890625
1.5202880859374999
1.5347900390625
1.5146484375
1.5275390624999998
1.4953124999999998
1.53720703125
1.5412353515625
1.522705078125
1.5001464843749999
1.52109375
1.4888671875
1.4791992187499998
1.4961181640624999
1.828857421875
1.5605712890624999
1.5678222656249998
1.5186767578125
1.4920898437499999
1.4066894531249998
1.3664062499999998
1.3349853515624999
1.3929931640625
1.4518066406249999
1.493701171875
1.5355957031249998
1.4751708984374998
1.493701171875
1.5073974609374998
1.52109375
1.5114257812499998
1.5364013671874999
1.53076171875
1.5114257812499998
1.5146484375
1.232666015625
1.4574462890625
1.482421875
1.525927734375
1.5645996093749999
1.5927978515624999
1.7466796875
1.6951171875
1.5726562499999999
1.509814453125
1.538818359375
1.4800048828124999
1.5202880859374999
1.5025634765625
1.5275390624999998
1.52109375
1.47275390625
1.4977294921875
1.4945068359375
1.5194824218749998
1.4993408203124998
1.85947265625
1.6209960937499999
1.51787109375
1.5243164062499999
1.46953125
1.4276367187499999
1.2802001953125
1.3607666015625
1.3857421875
1.4397216796874999
1.5138427734375
1.4880615234374999
1.5009521484375
1.538818359375
1.5025634765625
1.5202880859374999
1.51787109375
1.5662109375
1.5621826171875
1.51787109375
1.4977294921875
1.1029541015625
1.3704345703124998
1.4590576171874998
1.4759765624999999
1.5654052734375
1.5436523437499998
1.8087158203125
1.79501953125
1.6572509765624999
1.5364013671874999
1.5492919921875
1.522705078125
1.506591796875
1.513037109375
1.5001464843749999
1.4783935546875
1.5009521484375
1.529150390625
1.529150390625
1.4928955078125
1.493701171875
1.7724609375
1.651611328125
1.5001464843749999
1.5001464843749999
1.5267333984375
1.448583984375
1.3430419921874999
1.3188720703124999
1.3575439453125
1.4735595703125
1.490478515625
1.4872558593749998
1.5138427734375
1.5347900390625
1.533984375
1.5041748046874999
1.5412353515625
1.5484863281249999
1.4735595703125
1.4896728515625
1.5275390624999998
1.2447509765625
1.3422363281249998
1.4767822265625
1.509814453125
1.5597656249999998
1.5927978515624999
1.5678222656249998
1.8369140625
1.6822265625
1.5428466796875
1.52109375
1.513037109375
1.5380126953125
1.525927734375
1.477587890625
1.5162597656249999
1.5243164062499999
1.4832275390624998
1.4912841796874998
1.5162597656249999
1.46630859375
1.7015624999999999
1.75634765625
1.558154296875
1.55009765625
1.50498046875
1.4445556640625
1.3365966796875
1.335791015625
1.3333740234375
1.3720458984375
1.4469726562499998
1.46953125
1.4679199218749999
1.5170654296875
1.5323730468749999
1.5073974609374998
1.4920898437499999
1.5090087890625
1.4832275390624998
1.5146484375
1.5428466796875
1.2850341796875
1.2052734375
1.5090087890625
1.522705078125
1.5154541015624998
1.5879638671874998
1.625830078125
1.9182861328124998
1.7410400390624998
1.585546875
1.4840332031249999
1.477587890625
1.5033691406249998
1.5009521484375
1.5162597656249999
1.5138427734375
1.522705078125
1.48564453125
1.4977294921875
1.5218994140625
1.51787109375
1.4993408203124998
1.912646484375
1.5597656249999998
1.5114257812499998
1.5106201171875
1.448583984375
1.3704345703124998
1.252001953125
1.3414306640625
1.400244140625
1.4501953125
1.5001464843749999
1.5122314453124999
1.50498046875
1.52109375
1.5412353515625
1.4912841796874998
1.5331787109375
1.4912841796874998
1.5041748046874999
1.4888671875
1.5017578125
1.0505859375
1.429248046875
1.5396240234374998
1.5718505859374998
1.6000488281249998
1.62744140625
1.941650390625
1.7877685546875
1.5927978515624999
1.4977294921875
1.490478515625
1.5202880859374999
1.5444580078124999
1.5267333984375
1.4848388671875
1.4800048828124999
1.490478515625
1.474365234375
1.4920898437499999
1.513037109375
1.493701171875
2.070556640625
1.6693359374999999
1.52109375
1.5057861328125
1.4638916015624999
1.3849365234375
1.1690185546875
1.2342773437499999
1.3430419921874999
1.4268310546874998
1.4679199218749999
1.48564453125
1.48564453125
1.5267333984375
1.5726562499999999
1.558154296875
1.5162597656249999
1.5347900390625
1.5654052734375
1.522705078125
1.50498046875
0.8258056640625
1.3414306640625
1.5146484375
1.5082031249999999
1.5621826171875
1.6266357421875
1.8151611328125
1.9867675781249998
1.6935058593749999
1.5170654296875
1.5331787109375
1.5251220703125
1.5509033203125
1.5114257812499998
1.51787109375
1.51787109375
1.4558349609374999
1.5001464843749999
1.5017578125
1.493701171875
1.493701171875
2.0552490234375
1.7410400390624998
1.4953124999999998
1.5299560546875
1.456640625
1.34384765625
1.1158447265625
1.1271240234375
1.2463623046874999
1.393798828125
1.4461669921875
1.506591796875
1.4679199218749999
1.5122314453124999
1.5106201171875
1.5509033203125
1.609716796875
1.5895751953125
1.558154296875
1.5460693359375
1.554931640625
0.7968017578125
1.2052734375
1.545263671875
1.5283447265624999
1.5887695312499999
1.7490966796874998
1.767626953125
2.410546875
1.7531249999999998
1.5436523437499998
1.493701171875
1.4711425781249998
1.5073974609374998
1.4638916015624999
1.46630859375
1.4574462890625
1.458251953125
1.461474609375
1.4977294921875
1.56943359375
1.5484863281249999
2.1277587890625
2.1865722656249997
1.474365234375
1.445361328125
1.3962158203125
1.21171875
1.1794921875
1.0562255859375
1.02158203125
1.2818115234374998
1.4759765624999999
1.5323730468749999
1.5009521484375
1.533984375
1.5734619140625
1.558154296875
1.561376953125
1.5799072265624998
1.5718505859374998
1.5218994140625
1.4977294921875
0.391552734375
0.6147216796875
1.722509765625
1.6137451171875
1.6645019531249998
1.8780029296874998
1.8796142578125
2.9092529296875
1.8441650390625
1.4332763671875
1.3631835937499999
1.3591552734374999
1.400244140625
1.4574462890625
1.4655029296875
1.477587890625
1.46630859375
1.4316650390624999
1.46953125
1.4558349609374999
1.4791992187499998
1.4840332031249999
2.9978759765625
1.2640869140625
1.3382080078124998
1.4429443359374998
1.2616699218749998
1.0465576171875
0.9998291015624999
0.816943359375
1.2818115234374998
1.4928955078125
1.5645996093749999
1.5815185546875
1.5662109375
1.609716796875
1.5533203125
1.5686279296874999
1.590380859375
1.5799072265624998
1.585546875
1.5718505859374998
1.5517089843749998
0.011279296874999999
1.920703125
1.7764892578125
1.6475830078125
1.7926025390625
1.8578613281249998
3.003515625
2.405712890625
1.3728515625
1.2665039062499999
1.3253173828125
1.3478759765625
1.4373046875
1.4187744140624998
1.4622802734375
1.4558349609374999
1.4042724609375
1.4751708984374998
1.4767822265625
1.4993408203124998
1.4655029296875
3.001904296875
1.46630859375
1.229443359375
1.3978271484375
1.2576416015624998
1.0981201171875
0.4874267578125
0.8225830078124999
1.1271240234375
1.5202880859374999
1.5944091796875
1.6121337890624998
1.5235107421874998
1.7176757812499999
1.5347900390625
1.59521484375
1.6669189453125
1.593603515625
1.5557373046874998
1.5678222656249998
1.5364013671874999
0.0056396484374999995
1.5275390624999998
1.8739746093749998
1.6620849609375
1.8151611328125
2.070556640625
2.3960449218749997
2.940673828125
1.5331787109375
1.2753662109375
1.2802001953125
1.3188720703124999
1.4397216796874999
1.3502929687499998
1.5122314453124999
1.4510009765624998
1.4252197265625
1.42119140625
1.4526123046875
1.4880615234374999
1.490478515625
3.0002929687499997
2.1986572265624997
1.16337890625
1.40185546875
1.348681640625
0.98291015625
0.9772705078124999
0.825
0.9216796875
1.3543212890624998
1.5807128906249999
1.62744140625
1.5686279296874999
1.6620849609375
1.61455078125
1.603271484375
1.6403320312499998
1.5726562499999999
1.5436523437499998
1.574267578125
1.55009765625
0.0104736328125
0.813720703125
2.0310791015625
1.6951171875
1.7297607421874999
2.0415527343749997
2.0415527343749997
3.0002929687499997
1.8361083984375
1.2995361328125
1.2624755859374999
1.2890625
1.3833251953124999
1.4429443359374998
1.4308593749999998
1.4373046875
1.4228027343749998
1.3857421875
1.4638916015624999
1.5017578125
1.480810546875
1.5509033203125
2.9978759765625
1.276171875
1.2560302734375
1.3881591796875
1.1295410156249999
0.920068359375
0.733154296875
0.7565185546875
1.1722412109375
1.558154296875
1.6129394531249999
1.6290527343749999
1.6427490234375
1.6645019531249998
1.5718505859374998
1.6024658203125
1.56298828125
1.5597656249999998
1.5605712890624999
1.525927734375
1.45341796875
0.009667968749999999
1.8022705078124999
1.77568359375
1.69833984375
1.8062988281249999
1.9706542968749998
3.001904296875
2.473388671875
1.4920898437499999
1.2205810546875
1.271337890625
1.351904296875
1.4139404296875
1.3921875
1.4316650390624999
1.4598632812499999
1.3962158203125
1.4703369140625
1.4896728515625
1.4622802734375
1.4606689453125
2.9994873046875
1.319677734375
1.2181640624999999
1.3801025390625
1.18271484375
1.0530029296874999
0.4036376953125
0.8241943359374999
1.173046875
1.561376953125
1.6612792968749999
1.635498046875
1.5637939453124998
1.6943115234375
1.6218017578125
1.5863525390625
1.703173828125
1.5645996093749999
1.5355957031249998
1.5436523437499998
1.53720703125
0.0120849609375
1.7700439453124999
1.977099609375
1.7410400390624998
1.7901855468749999
1.8892822265625
2.840771484375
2.7851806640624996
1.4550292968749998
1.2238037109375
1.24072265625
1.3083984375
1.4606689453125
1.348681640625
1.4679199218749999
1.4244140625
1.44052734375
1.4687255859375
1.49853515625
1.48564453125
1.46953125
2.2510253906249997
1.8973388671875
1.090869140625
1.3124267578125
1.2737548828124998
0.9015380859375
0.8765624999999999
0.6993164062499999
0.9627685546875
1.393798828125
1.577490234375
1.641943359375
1.5436523437499998
1.7128417968749998
1.7370117187499998
1.5992431640625
1.6218017578125
1.5404296874999999
1.5791015625
1.6169677734374999
1.5879638671874998
0.008056640625
0.9901611328125
2.022216796875
1.7740722656249999
1.7853515624999998
2.165625
2.083447265625
3.0010986328125
1.828857421875
1.2930908203125
1.2221923828124999
1.2930908203125
1.3962158203125
1.46953125
1.4550292968749998
1.4606689453125
1.44052734375
1.409912109375
1.5162597656249999
1.4711425781249998
1.4542236328125
1.9424560546874998
2.921337890625
1.21171875
1.2141357421874999
1.3833251953124999
1.04736328125
0.9732421874999999
0.6711181640624999
0.6840087890625
1.1770751953125
1.493701171875
1.63388671875
1.6298583984375
1.5911865234375
1.706396484375
1.667724609375
1.6451660156249999
1.5815185546875
1.5605712890624999
1.5879638671874998
1.58232421875
1.055419921875
0.013696289062499999
1.832080078125
1.87236328125
1.6725585937499998
1.8908935546874999
1.98837890625
3.0002929687499997
2.3436767578124997
1.509814453125
1.268115234375
1.2616699218749998
1.3559326171875
1.4518066406249999
1.3631835937499999
1.4236083984374999
1.4268310546874998
1.384130859375
1.4711425781249998
1.4735595703125
1.4373046875
1.4896728515625
3.0010986328125
1.7168701171874998
1.327734375
1.3905761718749998
1.3237060546875
0.8467529296874999
0.011279296874999999
0.44633789062499996
0.700927734375
1.409912109375
1.5275390624999998
1.6048828124999999
1.5791015625
1.732177734375
1.6185791015625
1.5992431640625
1.716064453125
1.6346923828125
1.6105224609375
1.5678222656249998
1.4993408203124998
0.014501953125
1.24716796875
1.9545410156249998
1.7184814453125
1.869140625
2.2518310546875
2.9994873046875
2.9197265624999997
1.8216064453124998
1.3027587890624999
1.2890625
1.2955078125
1.3849365234375
1.3978271484375
1.49853515625
1.4864501953125
1.416357421875
1.4501953125
1.4381103515625
1.48564453125
1.4880615234374999
2.9962646484374997
2.8359375
1.2584472656249999
1.4872558593749998
1.3728515625
0.8499755859375
0.45358886718749997
0.34482421874999997
0.46728515625
1.06669921875
1.3954101562499999
1.558154296875
1.5041748046874999
1.699951171875
1.6773925781249999
1.6379150390625
1.73056640625
1.6346923828125
1.6459716796875
1.6306640625
1.5758789062499998
0.013696289062499999
0.0459228515625
1.87236328125
1.5984375
1.7233154296875
2.3162841796875
2.4685546874999997
3.0010986328125
2.4194091796875
1.5492919921875
1.3929931640625
1.380908203125
1.4461669921875
1.4832275390624998
1.5122314453124999
1.50498046875
1.4074951171874999
1.4123291015625
1.50498046875
1.4630859374999998
1.4606689453125
1.4679199218749999
3.0002929687499997
1.442138671875
1.43408203125
1.4977294921875
0.95068359375
0.7194580078124999
0.182080078125
0.153076171875
0.7645751953125
1.1931884765625
1.4888671875
1.5718505859374998
1.60166015625
1.6943115234375
1.6306640625
1.703173828125
1.72412109375
1.5960205078124998
1.5927978515624999
1.5968261718749999
1.5533203125
0.009667968749999999
1.6886718749999998
1.7047851562499998
1.5863525390625
2.1197021484375
2.2067138671874997
2.9978759765625
2.4387451171875
1.7821289062499999
1.4735595703125
1.32451171875
1.3712402343749999
1.4751708984374998
1.4679199218749999
1.6000488281249998
1.43408203125
1.397021484375
1.4348876953124998
1.456640625
1.46630859375
1.5073974609374998
3.0043212890624997
1.78857421875
1.4244140625
1.513037109375
1.2818115234374998
0.9007324218749999
0.0104736328125
0.08701171875
0.3665771484375
1.010302734375
1.4187744140624998
1.542041015625
1.482421875
1.7184814453125
1.6459716796875
1.6250244140624999
1.7329833984374998
1.6556396484375
1.6121337890624998
1.6048828124999999
1.5404296874999999
0.0120849609375
1.313232421875
1.8554443359375
1.6830322265625
1.843359375
2.27841796875
3.0010986328125
2.9447021484375
1.964208984375
1.5573486328125
1.3704345703124998
1.3623779296874998
1.5138427734375
1.45341796875
1.5057861328125
1.4993408203124998
1.3527099609375
1.4501953125
1.47275390625
1.4832275390624998
1.5122314453124999
3.003515625
2.7247558593749996
1.3478759765625
1.5573486328125
1.4316650390624999
0.7984130859374999
0.009667968749999999
0.07814941406249999
0.14018554687499998
0.968408203125
1.2705322265624999
1.4896728515625
1.5315673828124998
1.7104248046875
1.6645019531249998
1.6620849609375
1.6725585937499998
1.6306640625
1.5968261718749999
1.6089111328124999
1.6483886718749998
0.008056640625
0.22316894531249998
1.851416015625
1.593603515625
1.7080078125
2.318701171875
2.62646484375
3.001904296875
2.44921875
1.6854492187499999
1.4703369140625
1.3317626953125
1.3446533203125
1.4348876953124998
1.545263671875
1.525927734375
1.3390136718749999
1.400244140625
1.4445556640625
1.4888671875
1.4872558593749998
1.5444580078124999
2.9994873046875
1.3631835937499999
1.41796875
1.5251220703125
0.7903564453124999
0.5067626953125
0.1651611328125
0.04189453125
0.7138183593749999
1.1794921875
1.4493896484375
1.5645996093749999
1.6298583984375
1.69189453125
1.690283203125
1.7466796875
1.7499023437499999
1.6935058593749999
1.5863525390625
1.5863525390625
1.4606689453125
0.011279296874999999
1.8151611328125
1.6959228515625
1.6346923828125
2.2582763671875
2.399267578125
3.0043212890624997
2.7465087890624997
1.7055908203124999
1.4284423828125
1.3502929687499998
1.3817138671875
1.4356933593749999
1.4429443359374998
1.53076171875
1.4638916015624999
1.4477783203124999
1.4598632812499999
1.52109375
1.4864501953125
1.4687255859375
3.0043212890624997
1.6781982421875
1.4219970703125
1.5033691406249998
1.1335693359374999
0.8290283203125
0.011279296874999999
0.013696289062499999
0.33354492187499996
1.02802734375
1.3446533203125
1.6056884765625
1.5525146484374999
1.82724609375
1.6363037109374998
1.6161621093749998
1.7990478515625
1.7507080078125
1.6878662109375
1.6701416015625
1.5541259765625
0.0104736328125
1.5355957031249998
1.9190917968749999
1.6645019531249998
1.9037841796875
2.325146484375
3.0010986328125
3.0002929687499997
1.972265625
1.51787109375
1.353515625
1.300341796875
1.464697265625
1.353515625
1.529150390625
1.4896728515625
1.3946044921874998
1.4066894531249998
1.4518066406249999
1.4389160156249998
1.4598632812499999
3.0010986328125
2.4177978515625
1.2777832031249998
1.5122314453124999
1.3092041015625
0.623583984375
0.15629882812499998
0.008056640625
0.104736328125
0.7798828124999999
1.300341796875
1.5025634765625
1.482421875
1.73056640625
1.6959228515625
1.735400390625
1.7257324218749999
1.6910888671875
1.6693359374999999
1.6201904296874998
1.590380859375
0.0120849609375
0.4447265625
1.9553466796874999
1.6798095703125
1.8538330078124998
2.389599609375
2.6055175781249997
3.0010986328125
2.3614013671875
1.6943115234375
1.3921875
1.2745605468749999
1.37607421875
1.4284423828125
1.5654052734375
1.5299560546875
1.4058837890625
1.351904296875
1.4268310546874998
1.506591796875
1.493701171875
2.00771484375
3.003515625
1.4719482421874999
1.4437499999999999
1.4598632812499999
0.920068359375
0.346435546875
0.011279296874999999
0.01611328125
0.52529296875
1.203662109375
1.46953125
1.5750732421875
1.5791015625
1.7901855468749999
1.6701416015625
1.6773925781249999
1.7692382812499998
1.7055908203124999
1.6725585937499998
1.6153564453125
0.6912597656249999
0.011279296874999999
1.7200927734375
1.674169921875
1.6749755859375
2.1712646484375
2.2469970703124997
3.0002929687499997
2.437939453125
1.799853515625
1.3946044921874998
1.287451171875
1.281005859375
1.4655029296875
1.4767822265625
1.5146484375
1.4187744140624998
1.4759765624999999
1.4840332031249999
1.461474609375
1.4590576171874998
1.477587890625
3.0010986328125
1.9529296875
1.480810546875
1.53720703125
1.3285400390625
0.760546875
0.014501953125
0.009667968749999999
0.15468749999999998
1.0803955078125
1.4187744140624998
1.574267578125
1.64677734375
1.7990478515625
1.6935058593749999
1.658056640625
1.8046875
1.6935058593749999
1.6395263671875
1.6024658203125
1.5364013671874999
0.0104736328125
1.055419921875
1.8973388671875
1.6806152343749998
1.9303710937499998
2.3130615234375
3.005126953125
3.001904296875
2.1084228515625
1.477587890625
1.3510986328124999
1.3148437499999999
1.4840332031249999
1.409912109375
1.496923828125
1.5299560546875
1.3075927734375
1.4010498046875
1.4300537109375
1.448583984375
1.458251953125
3.001904296875
2.1704589843749997
1.3075927734375
1.55009765625
1.2866455078124999
0.6912597656249999
0.0120849609375
0.013696289062499999
0.1353515625
0.7734375
1.164990234375
1.6169677734374999
1.5033691406249998
1.748291015625
1.7499023437499999
1.7934082031249998
1.7418457031249999
1.6886718749999998
1.6669189453125
1.6129394531249999
1.55009765625
0.0104736328125
0.8354736328125
1.893310546875
1.6346923828125
1.7442626953125
2.5394531249999996
2.6885009765624996
3.001904296875
2.2590820312499997
1.6177734375
1.4123291015625
1.3510986328124999
1.4155517578124999
1.46630859375
1.5355957031249998
1.50498046875
1.3623779296874998
1.3801025390625
1.44052734375
1.4558349609374999
1.42119140625
1.4147460937499998
2.9994873046875
1.37607421875
1.3825195312499998
1.432470703125
0.8677001953125
0.5220703125
0.019335937499999997
0.013696289062499999
0.5446289062499999
1.1053710937499999
1.5315673828124998
1.6250244140624999
1.6266357421875
1.7531249999999998
1.6830322265625
1.6459716796875
1.8264404296874999
1.6798095703125
1.670947265625
1.62744140625
1.5428466796875
0.0104736328125
1.751513671875
1.738623046875
1.6556396484375
2.08828125
2.3388427734375
3.001904296875
2.3912109375
1.7732666015624998
1.4228027343749998
1.3180664062499998
1.34384765625
1.522705078125
1.4630859374999998
1.506591796875
1.3768798828125
1.3430419921874999
1.4373046875
1.5017578125
1.4920898437499999
1.4703369140625
3.001904296875
1.77890625
1.4139404296875
1.5541259765625
1.2544189453124999
0.8040527343749999
0.014501953125
0.011279296874999999
0.2650634765625
1.0836181640625
1.43408203125
1.59521484375
1.5267333984375
1.7531249999999998
1.7088134765624998
1.6878662109375
1.79501953125
1.670947265625
1.6451660156249999
1.6072998046875
1.5734619140625
0.015307617187499999
1.239111328125
1.7934082031249998
1.65
2.0085205078125
2.4564697265624997
2.9986816406249996
3.005126953125
2.0874755859375
1.4501953125
1.329345703125
1.3148437499999999
1.464697265625
1.4147460937499998
1.49853515625
1.4920898437499999
1.3156494140625
1.4058837890625
1.4316650390624999
1.456640625
1.4735595703125
3.003515625
2.7964599609375
1.3124267578125
1.52109375
1.340625
0.8427246093749999
0.011279296874999999
0.0072509765625
0.014501953125
0.8749511718749999
1.3180664062499998
1.522705078125
1.442138671875
1.7458740234374999
1.7450683593749998
1.6910888671875
1.7724609375
1.7410400390624998
1.6620849609375
1.6008544921874999
1.5702392578125
0.013696289062499999
0.088623046875
1.9593749999999999
1.67900390625
1.7877685546875
2.4016845703125
2.7513427734375
3.003515625
2.376708984375
1.5355957031249998
1.32451171875
1.2302490234374999
1.405078125
1.3478759765625
1.482421875
1.4864501953125
1.3672119140624999
1.3865478515624998
1.456640625
1.4630859374999998
1.442138671875
1.5299560546875
3.0002929687499997
1.4139404296875
1.4381103515625
1.448583984375
0.7138183593749999
0.35126953125
0.014501953125
0.013696289062499999
0.5873291015625
1.1690185546875
1.4840332031249999
1.6000488281249998
1.6959228515625
1.7724609375
1.71123046875
1.6975341796874999
1.8369140625
1.7571533203124998
1.6491943359374999
1.6346923828125
1.48564453125
0.0104736328125
1.9343994140624998
1.7692382812499998
1.7168701171874998
2.26875
2.5587890625
3.0010986328125
2.408935546875
1.7370117187499998
1.38896484375
1.26328125
1.2930908203125
1.4542236328125
1.4244140625
1.4872558593749998
1.3470703124999999
1.3744628906249998
1.4888671875
1.4091064453125
1.4252197265625
1.3792968749999999
3.001904296875
1.6250244140624999
1.3527099609375
1.4655029296875
1.0965087890625
0.7879394531249999
0.012890625
0.013696289062499999
0.3262939453125
0.9555175781249999
1.4252197265625
1.609716796875
1.5670166015625
1.8957275390625
1.7781005859374999
1.8014648437499998
1.7781005859374999
1.67578125
1.6451660156249999
1.619384765625
1.60166015625
0.0104736328125
1.5146484375
1.9617919921875
1.7611816406249998
1.9891845703125
2.4774169921875
3.0002929687499997
3.0010986328125
2.060888671875
1.5323730468749999
1.264892578125
1.2834228515625
1.4493896484375
1.3188720703124999
1.490478515625
1.482421875
1.2753662109375
1.3446533203125
1.4429443359374998
1.4155517578124999
1.3865478515624998
3.0010986328125
2.5966552734375
1.3212890625
1.4872558593749998
1.2930908203125
0.5067626953125
0.0104736328125
0.011279296874999999
0.012890625
0.7146240234375
1.2544189453124999
1.5444580078124999
1.55009765625
1.9408447265625
1.7877685546875
1.735400390625
1.8506103515624999
1.7176757812499999
1.662890625
1.6910888671875
1.585546875
0.0056396484374999995
0.4004150390625
1.9553466796874999
1.7120361328125
2.002880859375
2.6780273437499997
3.0002929687499997
2.9986816406249996
2.3203125
1.625830078125
1.248779296875
1.222998046875
1.2415283203124998
1.2447509765625
1.426025390625
1.4477783203124999
1.3204833984375
1.3825195312499998
1.41796875
1.4542236328125
1.4115234374999999
2.03994140625
3.0059326171875
1.32451171875
1.3913818359374999
1.458251953125
0.837890625
0.23928222656249998
0.0088623046875
0.0120849609375
0.605859375
1.132763671875
1.5267333984375
1.6209960937499999
1.7974365234374998
1.8280517578125
1.7579589843749999
1.7934082031249998
1.8393310546875
1.732177734375
1.6508056640625
1.6725585937499998
0.8338623046875
0.0104736328125
1.6862548828125
1.7507080078125
1.7088134765624998
2.0455810546874997
2.79404296875
3.001904296875
2.72958984375
1.6725585937499998
1.3309570312499999
1.2254150390625
1.27939453125
1.4244140625
1.4026611328124998
1.4711425781249998
1.329345703125
1.3656005859375
1.416357421875
1.458251953125
1.4550292968749998
1.4526123046875
3.0010986328125
1.55009765625
1.3986328124999998
1.4550292968749998
0.9224853515625
0.5220703125
0.011279296874999999
0.013696289062499999
0.34562988281249996
0.8749511718749999
1.3301513671874998
1.5847412109374999
1.6508056640625
1.8892822265625
1.7990478515625
1.8989501953124999
1.8828369140624999
1.7345947265625
1.6322753906249998
1.6209960937499999
1.5533203125
0.0120849609375
1.6403320312499998
2.0423583984375
1.7813232421874998
2.0262451171875
2.50400390625
3.0002929687499997
3.003515625
1.9505126953124998
1.45341796875
1.219775390625
1.1625732421875
1.4719482421874999
1.3704345703124998
1.464697265625
1.4332763671875
1.2826171874999999
1.42119140625
1.4606689453125
1.4655029296875
1.4332763671875
3.0010986328125
2.13662109375
1.1915771484375
1.4896728515625
1.1794921875
0.5204589843749999
0.009667968749999999
0.0088623046875
0.02578125
0.7887451171875
1.2141357421874999
1.635498046875
1.5404296874999999
1.76279296875
1.7861572265624999
1.7579589843749999
1.9279541015625
1.8626953124999999
1.7555419921875
1.7233154296875
1.6379150390625
0.0120849609375
0.7959960937499999
1.8860595703124998
1.8135498046874998
2.05283203125
2.6756103515625
2.8874999999999997
3.001904296875
2.1487060546875
1.558154296875
1.2987304687499999
1.20849609375
1.3067871093749999
1.380908203125
1.4888671875
1.3583496093749998
1.368017578125
1.4598632812499999
1.4848388671875
1.4542236328125
1.4429443359374998
3.003515625
2.9978759765625
1.368017578125
1.4364990234375
1.3631835937499999
0.7395996093749999
0.44553222656249997
0.0120849609375
0.012890625
0.407666015625
1.148876953125
1.4840332031249999
1.606494140625
1.6967285156249998
1.9166748046875
1.835302734375
1.7797119140625
1.9013671875
1.7289550781249998
1.638720703125
1.609716796875
0.011279296874999999
0.0072509765625
1.8393310546875
1.9134521484375
1.8304687499999999
2.334814453125
2.657080078125
3.001904296875
2.6224365234375
1.7345947265625
1.3390136718749999
1.187548828125
1.2544189453124999
1.4123291015625
1.4477783203124999
1.5146484375
1.416357421875
1.2705322265624999
1.3422363281249998
1.4638916015624999
1.4300537109375
1.4526123046875
3.0010986328125
1.7184814453125
1.3422363281249998
1.461474609375
1.2310546875
0.48017578125
0.008056640625
0.008056640625
0.175634765625
0.9692138671874999
1.38896484375
1.674169921875
1.7136474609374999
1.8892822265625
1.8135498046874998
1.8361083984375
1.8240234375
1.740234375
1.7072021484375
1.6822265625
1.6451660156249999
0.008056640625
1.32451171875
1.8498046874999998
1.6943115234375
1.993212890625
2.6039062499999996
3.001904296875
3.0027099609374996
2.0343017578125
1.3849365234375
1.2415283203124998
1.2584472656249999
1.3954101562499999
1.5017578125
1.5509033203125
1.509814453125
1.3075927734375
1.3728515625
1.45341796875
1.4058837890625
1.4630859374999998
3.0010986328125
2.8721923828125
1.203662109375
1.445361328125
1.3140380859374998
0.7726318359375
0.0072509765625
0.008056640625
0.167578125
0.8999267578125
1.2898681640624998
1.6105224609375
1.5782958984375
1.8256347656249998
1.72734375
1.7418457031249999
1.8699462890624998
1.748291015625
1.6830322265625
1.6185791015625
1.5702392578125
0.013696289062499999
0.1377685546875
2.0133544921874997
1.7442626953125
1.8143554687499999
2.4846679687499997
2.8230468749999997
3.0043212890624997
2.26552734375
1.49853515625
1.284228515625
1.268115234375
1.40830078125
1.3817138671875
1.4800048828124999
1.40185546875
1.4171630859375
1.442138671875
1.4735595703125
1.4800048828124999
1.445361328125
1.45341796875
2.9656494140625
1.368017578125
1.3527099609375
1.3527099609375
0.7395996093749999
0.55107421875
0.0120849609375
0.058813476562499994
0.7613525390625
1.2399169921875
1.55009765625
1.53076171875
1.6411376953124999
1.8602783203125
1.6524169921874998
1.658056640625
1.7555419921875
1.674169921875
1.654833984375
1.6282470703124998
1.5138427734375
0.10151367187499999
1.9489013671875
1.8095214843749998
1.687060546875
2.176904296875
2.389599609375
3.0010986328125
2.1785156249999997
1.5702392578125
1.3744628906249998
1.3317626953125
1.3551269531249999
1.5460693359375
1.5146484375
1.577490234375
1.5380126953125
1.6298583984375
1.7716552734375
1.6878662109375
1.5839355468749998
1.561376953125
3.0010986328125
1.5436523437499998
1.3341796874999998
1.44052734375
1.1593505859375
0.865283203125
0.0966796875
0.2135009765625
0.6670898437499999
1.1802978515625
1.48564453125
1.5782958984375
1.480810546875
1.6733642578124999
1.641943359375
1.7289550781249998
1.667724609375
1.6395263671875
1.6185791015625
1.62744140625
1.5597656249999998
0.0120849609375
1.542041015625
1.9843505859375
1.706396484375
1.869140625
2.1777099609375
3.0027099609374996
2.8359375
1.770849609375
1.3736572265625
1.2495849609374998
1.313232421875
1.4526123046875
1.4574462890625
1.5082031249999999
1.4832275390624998
1.3704345703124998
1.4477783203124999
1.458251953125
1.458251953125
1.474365234375
2.9986816406249996
2.2421630859375
1.2616699218749998
1.4655029296875
1.2737548828124998
0.942626953125
0.2102783203125
0.3988037109375
0.5341552734375
1.2898681640624998
1.48564453125
1.5678222656249998
1.5001464843749999
1.7047851562499998
1.59521484375
1.571044921875
1.72734375
1.699951171875
1.619384765625
1.577490234375
1.5670166015625
0.012890625
0.6888427734375
1.8908935546874999
1.6371093749999999
1.77568359375
2.212353515625
2.7851806640624996
2.9986816406249996
1.9948242187499998
1.4115234374999999
1.32451171875
1.3744628906249998
1.4501953125
1.40185546875
1.4888671875
1.5218994140625
1.4147460937499998
1.4606689453125
1.4888671875
1.4638916015624999
1.4308593749999998
1.6878662109375
3.003515625
1.284228515625
1.2914794921875
1.3704345703124998
0.8016357421875
0.71220703125
0.362548828125
0.6791748046874999
1.2495849609374998
1.538818359375
1.635498046875
1.6379150390625
1.7047851562499998
1.6967285156249998
1.6121337890624998
1.714453125
1.6604736328124998
1.593603515625
1.609716796875
1.5621826171875
1.2592529296875
0.013696289062499999
1.9859619140625
1.7660156249999999
1.69833984375
2.0794189453125
2.1406494140625
3.001904296875
2.4355224609375
1.3728515625
1.20849609375
1.19560546875
1.2898681640624998
1.397021484375
1.3801025390625
1.3543212890624998
1.2020507812499999
1.15693359375
1.2834228515625
1.36962890625
1.442138671875
1.480810546875
3.0010986328125
1.3873535156249999
1.3043701171875
1.4542236328125
1.1835205078125
1.0787841796875
0.35771484374999996
0.69609375
1.126318359375
1.4832275390624998
1.5839355468749998
1.6379150390625
1.5605712890624999
1.7168701171874998
1.6081054687499998
1.6379150390625
1.63388671875
1.5428466796875
1.5323730468749999
1.5194824218749998
1.5033691406249998
0.0120849609375
1.714453125
1.9263427734374998
1.6459716796875
1.7829345703125
1.9754882812499999
2.8528564453125
2.3203125
1.5082031249999999
1.248779296875
1.232666015625
1.3229003906249999
1.429248046875
1.400244140625
1.4751708984374998
1.3994384765624999
1.4034667968749999
1.477587890625
1.4791992187499998
1.47275390625
1.458251953125
3.001904296875
1.899755859375
1.1859374999999999
1.3978271484375
1.316455078125
0.9740478515625
0.407666015625
0.7476562499999999
0.8958984375
1.3768798828125
1.585546875
1.6177734375
1.5758789062499998
1.7289550781249998
1.6411376953124999
1.6306640625
1.66611328125
1.6177734375
1.5927978515624999
1.585546875
1.5791015625
0.011279296874999999
1.0650878906249999
1.9384277343749998
1.6951171875
1.8240234375
2.1728759765625
2.1793212890625
2.9769287109375
1.8393310546875
1.400244140625
1.3156494140625
1.33740234375
1.4228027343749998
1.4606689453125
1.477587890625
1.4759765624999999
1.3688232421875
1.4638916015624999
1.4864501953125
1.5106201171875
1.5090087890625
2.13662109375
2.8302978515625
1.3148437499999999
1.3833251953124999
1.3946044921874998
1.0948974609375
0.8846191406249999
0.64453125
0.7283203125
1.3043701171875
1.477587890625
1.5879638671874998
1.603271484375
1.6830322265625
1.67578125
1.63388671875
1.6427490234375
1.6024658203125
1.587158203125
1.5718505859374998
1.5863525390625
0.8999267578125
0.10634765624999999
1.8312744140625
1.7023681640625
1.6669189453125
1.8763916015625
2.1382324218749997
3.001904296875
2.4065185546875
1.5750732421875
1.2979248046874998
1.2858398437499998
1.33740234375
1.4195800781249999
1.4107177734374998
1.461474609375
1.4316650390624999
1.4236083984374999
1.5106201171875
1.5025634765625
1.4840332031249999
1.46953125
2.9978759765625
1.313232421875
1.3188720703124999
1.4187744140624998
1.1255126953124999
0.9990234375
0.3182373046875
0.68642578125
1.1432373046875
1.4751708984374998
1.56298828125
1.5944091796875
1.5396240234374998
1.6701416015625
1.606494140625
1.554931640625
1.6475830078125
1.5887695312499999
1.5525146484374999
1.56943359375
1.5533203125
0.012890625
1.7507080078125
1.8304687499999999
1.6169677734374999
1.7821289062499999
1.9271484374999999
3.0002929687499997
2.779541015625
1.5678222656249998
1.3333740234375
1.2802001953125
1.3462646484374998
1.4767822265625
1.4397216796874999
1.4719482421874999
1.3873535156249999
1.4203857421875
1.4493896484375
1.4719482421874999
1.480810546875
1.45341796875
2.9970703125
1.7370117187499998
1.2028564453125
1.409912109375
1.297119140625
1.0062744140625
0.7387939453125
0.7339599609374999
0.9152343749999999
1.3881591796875
1.5380126953125
1.6048828124999999
1.5073974609374998
1.6669189453125
1.60166015625
1.56943359375
1.6693359374999999
1.6209960937499999
1.577490234375
1.5839355468749998
1.5525146484374999
0.014501953125
1.2431396484375
1.8780029296874998
1.6612792968749999
1.796630859375
2.128564453125
2.176904296875
3.0494384765625
1.799853515625
1.3913818359374999
1.2995361328125
1.3527099609375
1.432470703125
1.43408203125
1.4687255859375
1.4574462890625
1.3543212890624998
1.4066894531249998
1.4655029296875
1.4751708984374998
1.474365234375
2.6619140624999997
2.578125
1.2673095703125
1.4123291015625
1.3664062499999998
1.0127197265624999
0.9595458984374999
0.6872314453124999
0.7984130859374999
1.2109130859375
1.4993408203124998
1.574267578125
1.5541259765625
1.590380859375
1.6411376953124999
1.611328125
1.6314697265625
1.5911865234375
1.585546875
1.5734619140625
1.5621826171875
0.322265625
0.29970703125
1.8344970703124999
1.6806152343749998
1.6967285156249998
1.9537353515625
1.948095703125
3.003515625
2.225244140625
1.5057861328125
1.3092041015625
1.3237060546875
1.3688232421875
1.4477783203124999
1.464697265625
1.4864501953125
1.442138671875
1.4187744140624998
1.474365234375
1.4880615234374999
1.4703369140625
1.47275390625
3.001904296875
1.513037109375
1.300341796875
1.4622802734375
1.27939453125
0.9708251953125
0.40283203125
0.7315429687499999
1.1738525390624999
1.4501953125
1.5476806640624998
1.6048828124999999
1.5911865234375
1.65966796875
1.6081054687499998
1.561376953125
1.67578125
1.5573486328125
1.5484863281249999
1.5678222656249998
1.4928955078125
0.011279296874999999
1.538818359375
1.7934082031249998
1.6588623046875
1.767626953125
1.92392578125
3.0002929687499997
2.434716796875
1.6330810546874999
1.3011474609375
1.2979248046874998
1.345458984375
1.45341796875
1.4518066406249999
1.4751708984374998
1.416357421875
1.4413330078125
1.4622802734375
1.4896728515625
1.464697265625
1.4638916015624999
3.0002929687499997
1.606494140625
1.2584472656249999
1.4445556640625
1.327734375
1.0513916015625
0.5808837890624999
0.6912597656249999
1.019970703125
1.4066894531249998
1.52109375
1.5758789062499998
1.5009521484375
1.667724609375
1.6129394531249999
1.587158203125
1.6749755859375
1.62744140625
1.5726562499999999
1.5492919921875
1.5355957031249998
0.011279296874999999
1.4187744140624998
1.8578613281249998
1.6218017578125
1.699951171875
2.0665283203125
2.1970458984375
2.9986816406249996
1.7426513671875
1.4091064453125
1.33740234375
1.3672119140624999
1.4437499999999999
1.4058837890625
1.4679199218749999
1.464697265625
1.368017578125
1.4493896484375
1.4630859374999998
1.445361328125
1.482421875
1.638720703125
2.3195068359374997
1.2689208984375
1.3559326171875
1.3309570312499999
0.958740234375
0.93779296875
0.7017333984374999
0.8193603515625
1.2439453125
1.46953125
1.5807128906249999
1.56298828125
1.6290527343749999
1.5976318359375
1.6177734375
1.5944091796875
1.574267578125
1.5565429687499999
1.56298828125
1.5678222656249998
0.0088623046875
0.591357421875
1.8868652343749999
1.735400390625
1.7096191406249999
2.0117431640625
2.0036865234375
3.005126953125
2.0504150390625
1.4445556640625
1.31162109375
1.3382080078124998
1.384130859375
1.4348876953124998
1.4791992187499998
1.46953125
1.4622802734375
1.413134765625
1.461474609375
1.448583984375
1.4840332031249999
1.4848388671875
3.0002929687499997
1.458251953125
1.35673828125
1.445361328125
1.1931884765625
1.0288330078124999
0.45439453124999996
0.7097900390624999
1.0691162109374999
1.5033691406249998
1.577490234375
1.606494140625
1.52109375
1.6371093749999999
1.5758789062499998
1.5589599609375
1.6411376953124999
1.577490234375
1.53720703125
1.545263671875
1.5492919921875
0.011279296874999999
1.6588623046875
1.8280517578125
1.6379150390625
1.80791015625
1.9424560546874998
3.001904296875
2.3275634765624997
1.5968261718749999
1.3148437499999999
1.319677734375
1.3720458984375
1.474365234375
1.4252197265625
1.4767822265625
1.4252197265625
1.4526123046875
1.4638916015624999
1.4872558593749998
1.4679199218749999
1.4437499999999999
3.0010986328125
1.9215087890625
1.319677734375
1.4228027343749998
1.3502929687499998
1.103759765625
0.43425292968749996
0.7404052734375
0.8685058593749999
1.41796875
1.5251220703125
1.6008544921874999
1.56298828125
1.6951171875
1.5879638671874998
1.561376953125
1.6298583984375
1.593603515625
1.5831298828125
1.606494140625
1.5331787109375
0.0120849609375
1.007080078125
1.8659179687499998
1.6306640625
1.72412109375
1.993212890625
2.2421630859375
2.9986816406249996
1.9384277343749998
1.384130859375
1.3148437499999999
1.3317626953125
1.46953125
1.4026611328124998
1.4953124999999998
1.458251953125
1.3559326171875
1.40830078125
1.4550292968749998
1.4759765624999999
1.4759765624999999
2.0697509765624997
2.054443359375
1.2568359375
1.3801025390625
1.313232421875
0.974853515625
0.8346679687499999
0.6896484374999999
0.8991210937499999
1.297119140625
1.4920898437499999
1.5782958984375
1.51787109375
1.64677734375
1.6379150390625
1.5976318359375
1.635498046875
1.606494140625
1.558154296875
1.5404296874999999
1.5331787109375
0.9047607421874999
0.8685058593749999
1.8788085937499999
1.6572509765624999
1.7184814453125
2.080224609375
2.0294677734374997
2.9986816406249996
1.9263427734374998
1.4147460937499998
1.3148437499999999
1.3470703124999999
1.3946044921874998
1.4348876953124998
1.4389160156249998
1.4590576171874998
1.3946044921874998
1.429248046875
1.482421875
1.4655029296875
1.4872558593749998
1.7176757812499999
2.92294921875
1.3470703124999999
1.3204833984375
1.4107177734374998
1.1319580078125
1.0119140625
0.507568359375
0.7758544921874999
1.1545166015625
1.5170654296875
1.5863525390625
1.6008544921874999
1.55009765625
1.6346923828125
1.5815185546875
1.558154296875
1.62744140625
1.5766845703124999
1.5726562499999999
1.533984375
1.2431396484375
0.0314208984375
1.7257324218749999
1.7982421874999999
1.64677734375
1.8489990234375
1.9070068359374999
3.001904296875
2.2115478515625
1.5315673828124998
1.3301513671874998
1.2947021484374999
1.335791015625
1.461474609375
1.4316650390624999
1.4687255859375
1.426025390625
1.4590576171874998
1.46630859375
1.48564453125
1.4606689453125
1.50498046875
3.001904296875
1.6959228515625
1.3502929687499998
1.4526123046875
1.3100097656249998
1.0739501953125
0.410888671875
0.7621582031249999
0.9531005859374999
1.4195800781249999
1.525927734375
1.603271484375
1.5678222656249998
1.6669189453125
1.5758789062499998
1.561376953125
1.62744140625
1.590380859375
1.5718505859374998
1.5645996093749999
1.5138427734375
0.0104736328125
1.3285400390625
1.803076171875
1.6218017578125
1.7829345703125
2.1068115234375
2.434716796875
2.9342285156249996
1.8087158203125
1.3349853515624999
1.29228515625
1.3390136718749999
1.4187744140624998
1.426025390625
1.4880615234374999
1.4606689453125
1.3801025390625
1.4413330078125
1.4638916015624999
1.4655029296875
1.458251953125
2.6514404296875
2.4943359375
1.1770751953125
1.442138671875
1.361572265625
1.0127197265624999
0.67998046875
0.7710205078125
0.94423828125
1.3712402343749999
1.5146484375
1.5718505859374998
1.509814453125
1.6572509765624999
1.622607421875
1.558154296875
1.635498046875
1.603271484375
1.5807128906249999
1.5807128906249999
1.5275390624999998
0.24089355468749998
0.4310302734375
1.8900878906249998
1.6806152343749998
1.6572509765624999
2.07861328125
2.0455810546874997
3.001904296875
2.0697509765624997
1.3881591796875
1.3019531249999998
1.3011474609375
1.4244140625
1.4139404296875
1.45341796875
1.4606689453125
1.4042724609375
1.4316650390624999
1.4711425781249998
1.4622802734375
1.4687255859375
1.4759765624999999
2.6739990234374997
1.276171875
1.3559326171875
1.361572265625
1.071533203125
1.007080078125
0.3633544921875
0.8177490234375
1.219775390625
1.51787109375
1.593603515625
1.5662109375
1.6161621093749998
1.6330810546874999
1.6040771484374998
1.5726562499999999
1.651611328125
1.5573486328125
1.5517089843749998
1.558154296875
1.5267333984375
0.291650390625
1.812744140625
1.716064453125
1.6298583984375
1.9062011718749998
1.931982421875
3.0010986328125
2.054443359375
1.4622802734375
1.348681640625
1.345458984375
1.380908203125
1.4638916015624999
1.3712402343749999
1.4800048828124999
1.4445556640625
1.3664062499999998
1.4800048828124999
1.4703369140625
1.4735595703125
1.493701171875
3.0010986328125
1.5444580078124999
1.3333740234375
1.448583984375
1.316455078125
1.1279296875
0.5937744140625
0.7395996093749999
1.0352783203125
1.4477783203124999
1.5726562499999999
1.5968261718749999
1.4638916015624999
1.6475830078125
1.6081054687499998
1.6483886718749998
1.59521484375
1.5533203125
1.5645996093749999
1.5355957031249998
1.5243164062499999
0.008056640625
1.52109375
1.8788085937499999
1.687060546875
1.7619873046874999
2.0552490234375
2.843994140625
2.7046142578124996
1.670947265625
1.3341796874999998
1.3124267578125
1.3825195312499998
1.4397216796874999
1.448583984375
1.4638916015624999
1.4638916015624999
1.3817138671875
1.4437499999999999
1.4526123046875
1.4711425781249998
1.4590576171874998
3.0010986328125
2.180126953125
1.2334716796875
1.416357421875
1.3575439453125
1.0820068359375
0.6010253906249999
0.7637695312499999
0.8757568359375
1.3833251953124999
1.5073974609374998
1.5879638671874998
1.5154541015624998
1.65966796875
1.6048828124999999
1.5807128906249999
1.6540283203125
1.6089111328124999
1.55009765625
1.5492919921875
1.525927734375
0.009667968749999999
0.7621582031249999
1.8812255859375
1.67578125
1.7007568359374998
2.054443359375
2.1487060546875
2.9970703125
1.9013671875
1.3494873046875
1.3140380859374998
1.3092041015625
1.4493896484375
1.38896484375
1.456640625
1.4187744140624998
1.4429443359374998
1.4558349609374999
1.4671142578124998
1.46630859375
1.4719482421874999
1.5509033203125
2.3759033203124997
1.2060791015624999
1.335791015625
1.3478759765625
1.0086914062499999
0.97646484375
0.4487548828125
0.8507812499999999
1.2818115234374998
1.5146484375
1.577490234375
1.571044921875
1.6435546875
1.65966796875
1.5968261718749999
1.6048828124999999
1.6185791015625
1.56943359375
1.542041015625
1.5355957031249998
1.464697265625
0.562353515625
1.828857421875
1.754736328125
1.6701416015625
1.9714599609374999
2.0117431640625
3.005126953125
1.9746826171874998
1.4348876953124998
1.319677734375
1.3172607421875
1.3873535156249999
1.4542236328125
1.4413330078125
1.46953125
1.4590576171874998
1.3921875
1.4638916015624999
1.4477783203124999
1.4711425781249998
1.4953124999999998
3.0010986328125
1.426025390625
1.3043701171875
1.397021484375
1.20849609375
1.1239013671875
0.62841796875
0.781494140625
1.119873046875
1.413134765625
1.529150390625
1.5750732421875
1.5122314453124999
1.6290527343749999
1.58232421875
1.62744140625
1.6636962890625
1.590380859375
1.5960205078124998
1.5678222656249998
1.5082031249999999
0.0104736328125
1.6806152343749998
1.87236328125
1.6459716796875
1.7845458984375
1.93681640625
2.2760009765625
2.5587890625
1.6089111328124999
1.3341796874999998
1.3108154296874999
1.3478759765625
1.4558349609374999
1.3994384765624999
1.4759765624999999
1.4598632812499999
1.384130859375
1.4381103515625
1.48564453125
1.4711425781249998
1.4630859374999998
3.0010986328125
1.9150634765624999
1.2044677734375
1.4413330078125
1.3204833984375
0.994189453125
0.46728515625
0.7951904296875
0.9240966796875
1.329345703125
1.53720703125
1.6169677734374999
1.542041015625
1.67578125
1.5782958984375
1.593603515625
1.65966796875
1.58232421875
1.5734619140625
1.5533203125
1.53720703125
0.0072509765625
1.029638671875
1.9625976562499998
1.65966796875
1.7337890624999999
2.031884765625
2.4210205078125
2.9189208984375
1.7732666015624998
1.3583496093749998
1.2979248046874998
1.319677734375
1.413134765625
1.3978271484375
1.4953124999999998
1.4276367187499999
1.4493896484375
1.4655029296875
1.4848388671875
1.4791992187499998
1.4735595703125
1.832080078125
2.81982421875
1.1794921875
1.3623779296874998
1.3921875
0.9611572265624999
0.9933837890624999
0.5647705078124999
0.8032470703125
1.332568359375
1.538818359375
1.5766845703124999
1.5315673828124998
1.6524169921874998
1.63388671875
1.5863525390625
1.6491943359374999
1.6105224609375
1.5879638671874998
1.558154296875
1.5283447265624999
1.0723388671875
0.12890625
1.944873046875
1.6822265625
1.7080078125
2.01416015625
2.015771484375
2.9986816406249996
2.228466796875
1.3833251953124999
1.3083984375
1.3156494140625
1.4034667968749999
1.4477783203124999
1.474365234375
1.4598632812499999
1.461474609375
1.413134765625
1.4606689453125
1.4848388671875
1.4510009765624998
1.4606689453125
2.92939453125
1.3446533203125
1.3019531249999998
1.3986328124999998
1.1577392578124999
1.058642578125
0.6010253906249999
0.8241943359374999
1.1996337890625
1.4703369140625
1.5766845703124999
1.56298828125
1.561376953125
1.658056640625
1.5750732421875
1.5944091796875
1.5782958984375
1.5670166015625
1.538818359375
1.5621826171875
1.538818359375
0.033032226562499996
1.7297607421874999
1.8763916015625
1.69189453125
1.8336914062499998
1.8796142578125
2.6441894531249996
2.2985595703125
1.5041748046874999
1.3180664062499998
1.2745605468749999
1.3607666015625
1.46630859375
1.432470703125
1.4767822265625
1.4518066406249999
1.3688232421875
1.4622802734375
1.4961181640624999
1.4945068359375
1.4501953125
3.0059326171875
1.7176757812499999
1.1722412109375
1.40830078125
1.351904296875
1.0207763671874999
0.4390869140625
0.8370849609375
0.9885498046875
1.4115234374999999
1.5726562499999999
1.6040771484374998
1.5170654296875
1.6685302734374998
1.59521484375
1.603271484375
1.6645019531249998
1.5791015625
1.5364013671874999
1.546875
1.5122314453124999
0.011279296874999999
1.3285400390625
1.9634033203124999
1.641943359375
1.786962890625
2.1164794921875
2.8125732421875
2.63935546875
1.6564453124999998
1.3261230468749998
1.3140380859374998
1.3599609375
1.4147460937499998
1.4139404296875
1.493701171875
1.50498046875
1.44052734375
1.4671142578124998
1.4574462890625
1.4316650390624999
1.4147460937499998
2.2187988281249997
2.5692626953124997
1.132763671875
1.3639892578125
1.3954101562499999
1.10859375
0.9555175781249999
0.7790771484375
0.8435302734375
1.3865478515624998
1.5057861328125
1.587158203125
1.5476806640624998
1.6636962890625
1.6153564453125
1.5750732421875
1.6209960937499999
1.60166015625
1.5509033203125
1.5621826171875
1.546875
0.6187499999999999
0.31662597656249997
1.9658203125
1.6894775390624999
1.7015624999999999
1.8844482421875
2.0326904296875
3.0010986328125
2.0906982421875
1.3494873046875
1.29228515625
1.319677734375
1.3905761718749998
1.4711425781249998
1.4501953125
1.46953125
1.4373046875
1.429248046875
1.4469726562499998
1.48564453125
1.4791992187499998
1.4912841796874998
2.9978759765625
1.21171875
1.2777832031249998
1.4550292968749998
1.1126220703125
1.0143310546875
0.6453369140624999
0.855615234375
1.2286376953125
1.4767822265625
1.5565429687499999
1.6169677734374999
1.5686279296874999
1.6379150390625
1.5799072265624998
1.6266357421875
1.6024658203125
1.53720703125
1.577490234375
1.5557373046874998
1.5492919921875
0.15146484375
1.828857421875
1.832080078125
1.6636962890625
1.85302734375
1.87236328125
2.8552734374999997
2.6232421875
1.4574462890625
1.2850341796875
1.276171875
1.3583496093749998
1.480810546875
1.43408203125
1.4896728515625
1.456640625
1.4679199218749999
1.4961181640624999
1.464697265625
1.4598632812499999
1.464697265625
2.9986816406249996
1.5895751953125
1.1939941406249999
1.38896484375
1.2979248046874998
1.0739501953125
0.78955078125
0.8451416015625
1.0513916015625
1.4461669921875
1.561376953125
1.625830078125
1.4961181640624999
1.6427490234375
1.5718505859374998
1.5444580078124999
1.6371093749999999
1.60166015625
1.5412353515625
1.5355957031249998
1.5404296874999999
0.014501953125
1.429248046875
1.9247314453125
1.6822265625
1.7458740234374999
2.0504150390625
2.167236328125
2.5241455078125
1.6169677734374999
1.3172607421875
1.3124267578125
1.3656005859375
1.4542236328125
1.4123291015625
1.482421875
1.4711425781249998
1.3962158203125
1.4574462890625
1.4872558593749998
1.4558349609374999
1.4719482421874999
2.7030029296875
2.370263671875
1.1617675781249999
1.409912109375
1.3502929687499998
1.023193359375
0.791162109375
0.837890625
0.8886474609374999
1.432470703125
1.56298828125
1.5919921874999998
1.5541259765625
1.654833984375
1.61455078125
1.5589599609375
1.5879638671874998
1.5484863281249999
1.529150390625
1.5347900390625
1.56298828125
0.1861083984375
0.565576171875
1.9698486328125
1.6645019531249998
1.7176757812499999
1.94970703125
2.0165771484375
3.003515625
2.0568603515625
1.4058837890625
1.2858398437499998
1.3301513671874998
1.3849365234375
1.464697265625
1.4542236328125
1.4469726562499998
1.4026611328124998
1.4477783203124999
1.4872558593749998
1.456640625
1.4751708984374998
1.4832275390624998
3.0002929687499997
1.190771484375
1.2914794921875
1.4445556640625
1.06025390625
1.010302734375
0.6582275390625
0.8080810546874999
1.26328125
1.5017578125
1.56943359375
1.61455078125
1.571044921875
1.6459716796875
1.5944091796875
1.6129394531249999
1.6040771484374998
1.5243164062499999
1.525927734375
1.5283447265624999
1.5186767578125
0.011279296874999999
1.9142578124999998
1.76279296875
1.6725585937499998
1.899755859375
1.9102294921874998
3.001904296875
2.3404541015625
1.4034667968749999
1.281005859375
1.2898681640624998
1.3817138671875
1.4638916015624999
1.4703369140625
1.4864501953125
1.4445556640625
1.4501953125
1.461474609375
1.461474609375
1.480810546875
1.4719482421874999
3.001904296875
1.4920898437499999
1.2012451171875
1.3897705078125
1.3011474609375
1.1335693359374999
0.6574218749999999
0.8523925781249999
1.0578369140625
1.4630859374999998
1.4622802734375
1.5895751953125
1.4993408203124998
1.7039794921875
1.56943359375
1.5911865234375
1.66611328125
1.5782958984375
1.60166015625
1.5605712890624999
1.5186767578125
0.008056640625
1.587158203125
1.912646484375
1.6459716796875
1.764404296875
1.9948242187499998
2.338037109375
2.431494140625
1.5444580078124999
1.2866455078124999
1.2769775390625
1.3478759765625
1.458251953125
1.3881591796875
1.5106201171875
1.464697265625
1.3728515625
1.4638916015624999
1.4719482421874999
1.4751708984374998
1.464697265625
2.9994873046875
2.152734375
1.1416259765624999
1.4107177734374998
1.340625
1.01513671875
0.5687988281249999
0.8419189453125
0.9289306640624999
1.3398193359375
1.5396240234374998
1.619384765625
1.5927978515624999
1.6483886718749998
1.585546875
1.5782958984375
1.5911865234375
1.5573486328125
1.5637939453124998
1.5492919921875
1.533984375
0.0120849609375
0.7790771484375
1.9787109374999998
1.6773925781249999
1.7128417968749998
1.9795166015624999
2.0681396484375
3.0002929687499997
1.9376220703125
1.3720458984375
1.27294921875
1.3365966796875
1.3986328124999998
1.426025390625
1.4671142578124998
1.4816162109375
1.4445556640625
1.432470703125
1.461474609375
1.4493896484375
1.4719482421874999
1.5009521484375
2.9970703125
1.135986328125
1.3027587890624999
1.42119140625
1.21494140625
1.0046630859374999
0.7073730468749999
0.825
1.3220947265624998
1.5428466796875
1.590380859375
1.6040771484374998
1.5782958984375
1.6282470703124998
1.585546875
1.6282470703124998
1.603271484375
1.545263671875
1.5645996093749999
1.5355957031249998
1.4912841796874998
0.0088623046875
1.9601806640625
1.7426513671875
1.64677734375
1.75634765625
1.9231201171874999
3.0002929687499997
2.1632080078125
1.351904296875
1.2777832031249998
1.3237060546875
1.3801025390625
1.46953125
1.4550292968749998
1.4759765624999999
1.4356933593749999
1.4477783203124999
1.4816162109375
1.4671142578124998
1.4767822265625
1.482421875
3.0010986328125
1.400244140625
1.2318603515625
1.409912109375
1.255224609375
1.1093994140624999
0.588134765625
0.865283203125
1.1448486328125
1.5033691406249998
1.590380859375
1.5960205078124998
1.5323730468749999
1.6910888671875
1.5726562499999999
1.558154296875
1.65966796875
1.577490234375
1.5573486328125
1.5541259765625
1.5444580078124999
0.008056640625
1.6951171875
1.8973388671875
1.6540283203125
1.7829345703125
1.9521240234375
2.3879882812499997
2.8311035156249997
1.522705078125
1.2890625
1.2882568359375
1.3664062499999998
1.4703369140625
1.405078125
1.490478515625
1.4550292968749998
1.3631835937499999
1.45341796875
1.4872558593749998
1.482421875
1.5082031249999999
3.0067382812499996
1.972265625
1.1271240234375
1.413134765625
1.332568359375
0.9861328125
0.8918701171875
0.8660888671875
0.966796875
1.3817138671875
1.5686279296874999
1.5750732421875
1.5057861328125
1.6000488281249998
1.5984375
1.6508056640625
1.6153564453125
1.5484863281249999
1.545263671875
1.5621826171875
1.546875
0.0088623046875
0.958740234375
2.0173828124999997
1.667724609375
1.7313720703125
2.0165771484375
1.9843505859375
2.9978759765625
1.87236328125
1.3510986328124999
1.281005859375
1.316455078125
1.3962158203125
1.442138671875
1.4864501953125
1.4759765624999999
1.4518066406249999
1.4501953125
1.4703369140625
1.4840332031249999
1.4477783203124999
1.6427490234375
2.8810546875
1.2705322265624999
1.3140380859374998
1.4058837890625
1.1690185546875
0.945849609375
0.6993164062499999
0.8314453125
1.224609375
1.5509033203125
1.6129394531249999
1.5984375
1.5927978515624999
1.6266357421875
1.585546875
1.5605712890624999
1.6153564453125
1.590380859375
1.5637939453124998
1.53720703125
1.30517578125
0.0717041015625
1.828857421875
1.722509765625
1.6459716796875
1.7926025390625
1.989990234375
3.005126953125
2.044775390625
1.4493896484375
1.2802001953125
1.2906738281249999
1.3559326171875
1.4389160156249998
1.432470703125
1.477587890625
1.445361328125
1.4518066406249999
1.4719482421874999
1.4783935546875
1.496923828125
1.4896728515625
3.001904296875
1.3390136718749999
1.2673095703125
1.4042724609375
1.2616699218749998
1.07958984375
0.44150390624999997
0.8467529296874999
1.1158447265625
1.4928955078125
1.5492919921875
1.5976318359375
1.5807128906249999
1.670947265625
1.60166015625
1.5847412109374999
1.6645019531249998
1.5847412109374999
1.5347900390625
1.5331787109375
1.4928955078125
0.009667968749999999
1.7587646484375
1.9408447265625
1.6636962890625
1.7974365234374998
1.9392333984374999
2.2711669921874997
2.8874999999999997
1.533984375
1.3092041015625
1.2858398437499998
1.34384765625
1.4590576171874998
1.432470703125
1.4703369140625
1.4397216796874999
1.36962890625
1.4493896484375
1.4928955078125
1.4735595703125
1.4558349609374999
3.0027099609374996
1.8143554687499999
1.1351806640625
1.3551269531249999
1.32451171875
1.0336669921875
0.816943359375
0.8104980468749999
1.039306640625
1.3873535156249999
1.5509033203125
1.5992431640625
1.522705078125
1.6540283203125
1.5799072265624998
1.6161621093749998
1.5992431640625
1.5645996093749999
1.577490234375
1.546875
1.5218994140625
0.013696289062499999
1.1367919921875
1.960986328125
1.6854492187499999
1.74345703125
2.060888671875
2.0044921875
2.99384765625
1.8151611328125
1.3172607421875
1.2584472656249999
1.3237060546875
1.3994384765624999
1.4115234374999999
1.4961181640624999
1.464697265625
1.4066894531249998
1.4542236328125
1.482421875
1.4767822265625
1.442138671875
1.9037841796875
2.7207275390624996
1.2302490234374999
1.33740234375
1.3986328124999998
1.1053710937499999
0.9676025390624999
0.7275146484374999
0.8515869140625
1.248779296875
1.571044921875
1.5976318359375
1.5807128906249999
1.6290527343749999
1.6024658203125
1.5807128906249999
1.5645996093749999
1.622607421875
1.5718505859374998
1.6040771484374998
1.5235107421874998
0.9716308593749999
0.207861328125
1.8489990234375
1.7442626953125
1.7015624999999999
1.848193359375
1.8715576171875
3.003515625
1.9948242187499998
1.43408203125
1.2963134765625
1.3317626953125
1.3656005859375
1.4276367187499999
1.4630859374999998
1.4630859374999998
1.4139404296875
1.4501953125
1.4872558593749998
1.4912841796874998
1.4679199218749999
1.4550292968749998
3.0010986328125
1.2318603515625
1.3229003906249999
1.3921875
1.2955078125
1.123095703125
0.47050781249999996
0.8507812499999999
1.22138671875
1.4816162109375
1.5887695312499999
1.6242187499999998
1.5758789062499998
1.6459716796875
1.5839355468749998
1.6056884765625
1.606494140625
1.55009765625
1.558154296875
1.561376953125
1.5315673828124998
