1.5017578125
1.4953124999999998
1.4928955078125
1.496923828125
1.5057861328125
1.50498046875
1.490478515625
1.5114257812499998
1.9658203125
1.5299560546875
1.5041748046874999
1.5267333984375
1.4381103515625
1.3857421875
1.3148437499999999
1.3172607421875
1.4091064453125
1.4832275390624998
1.49853515625
1.5033691406249998
1.5001464843749999
1.5412353515625
1.5186767578125
1.5017578125
1.5347900390625
1.5436523437499998
1.538818359375
1.5146484375
1.5154541015624998
1.084423828125
1.5186767578125
1.558154296875
1.529150390625
1.56943359375
1.6314697265625
1.9843505859375
1.6314697265625
1.5364013671874999
1.4945068359375
1.4791992187499998
1.4872558593749998
1.5146484375
1.5106201171875
1.5082031249999999
1.4977294921875
1.49853515625
1.4888671875
1.4961181640624999
1.5001464843749999
1.496923828125
1.9940185546875
1.6169677734374999
1.482421875
1.5057861328125
1.4542236328125
1.3881591796875
1.332568359375
1.3180664062499998
1.3631835937499999
1.4735595703125
1.5057861328125
1.5122314453124999
1.4711425781249998
1.533984375
1.5283447265624999
1.53076171875
1.53076171875
1.5380126953125
1.5428466796875
1.53720703125
1.5017578125
1.0006347656249999
1.4203857421875
1.5863525390625
1.5275390624999998
1.5396240234374998
1.6153564453125
1.9529296875
1.77568359375
1.5364013671874999
1.480810546875
1.477587890625
1.5073974609374998
1.4864501953125
1.496923828125
1.5146484375
1.49853515625
1.5009521484375
1.5057861328125
1.4848388671875
1.5025634765625
1.493701171875
1.7772949218749998
1.7901855468749999
1.4703369140625
1.5235107421874998
1.4735595703125
1.4058837890625
1.2536132812499998
1.3470703124999999
1.3688232421875
1.4574462890625
1.5009521484375
1.5009521484375
1.4928955078125
1.5146484375
1.5323730468749999
1.5218994140625
1.5476806640624998
1.5355957031249998
1.5106201171875
1.538818359375
1.490478515625
1.184326171875
1.3631835937499999
1.5911865234375
1.5364013671874999
1.5251220703125
1.62744140625
1.6669189453125
1.9303710937499998
1.6000488281249998
1.5041748046874999
1.506591796875
1.4711425781249998
1.496923828125
1.4993408203124998
1.477587890625
1.4961181640624999
1.5106201171875
1.480810546875
1.5138427734375
1.4993408203124998
1.4912841796874998
1.6991455078125
1.8183837890624999
1.49853515625
1.48564453125
1.5041748046874999
1.4147460937499998
1.3921875
1.3462646484374998
1.3301513671874998
1.3929931640625
1.4912841796874998
1.5146484375
1.4945068359375
1.5082031249999999
1.5299560546875
1.5283447265624999
1.5283447265624999
1.5428466796875
1.529150390625
1.5114257812499998
1.5186767578125
1.2745605468749999
1.1593505859375
1.542041015625
1.5347900390625
1.52109375
1.59521484375
1.6040771484374998
1.941650390625
1.6475830078125
1.51787109375
1.4920898437499999
1.4920898437499999
1.4920898437499999
1.5114257812499998
1.5017578125
1.5154541015624998
1.5114257812499998
1.4719482421874999
1.509814453125
1.5082031249999999
1.4711425781249998
1.490478515625
1.9835449218749999
1.558154296875
1.490478515625
1.5154541015624998
1.45341796875
1.400244140625
1.3494873046875
1.3229003906249999
1.400244140625
1.4864501953125
1.5202880859374999
1.5170654296875
1.5154541015624998
1.5436523437499998
1.49853515625
1.5436523437499998
1.5299560546875
1.5186767578125
1.52109375
1.53720703125
1.4912841796874998
0.9821044921875
1.5412353515625
1.5670166015625
1.5283447265624999
1.5605712890624999
1.6153564453125
1.85625
1.8095214843749998
1.53076171875
1.4888671875
1.480810546875
1.4783935546875
1.5275390624999998
1.5001464843749999
1.5275390624999998
1.5033691406249998
1.4767822265625
1.4840332031249999
1.5162597656249999
1.5122314453124999
1.5122314453124999
1.98193359375
1.5960205078124998
1.50498046875
1.490478515625
1.4477783203124999
1.400244140625
1.2898681640624998
1.32451171875
1.3849365234375
1.4630859374999998
1.5082031249999999
1.5057861328125
1.4832275390624998
1.529150390625
1.522705078125
1.5082031249999999
1.5283447265624999
1.5428466796875
1.5243164062499999
1.5122314453124999
1.5057861328125
1.02158203125
1.4606689453125
1.5654052734375
1.5315673828124998
1.5557373046874998
1.638720703125
1.7579589843749999
1.7507080078125
1.5573486328125
1.4953124999999998
1.4791992187499998
1.4864501953125
1.509814453125
1.4864501953125
1.49853515625
1.4953124999999998
1.506591796875
1.5017578125
1.4928955078125
1.4928955078125
1.5041748046874999
1.844970703125
1.7200927734375
1.4896728515625
1.5017578125
1.46630859375
1.397021484375
1.3188720703124999
1.327734375
1.327734375
1.4679199218749999
1.5017578125
1.4977294921875
1.5082031249999999
1.53720703125
1.5218994140625
1.506591796875
1.5517089843749998
1.5138427734375
1.5597656249999998
1.529150390625
1.5186767578125
1.094091796875
1.2665039062499999
1.5726562499999999
1.513037109375
1.5347900390625
1.6177734375
1.6822265625
1.912646484375
1.6282470703124998
1.4767822265625
1.4630859374999998
1.490478515625
1.4961181640624999
1.5114257812499998
1.5146484375
1.5162597656249999
1.477587890625
1.4912841796874998
1.4920898437499999
1.50498046875
1.5041748046874999
1.5380126953125
1.751513671875
1.48564453125
1.47275390625
1.496923828125
1.3986328124999998
1.3986328124999998
1.3422363281249998
1.3333740234375
1.4236083984374999
1.4864501953125
1.5009521484375
1.5146484375
1.5154541015624998
1.5347900390625
1.5275390624999998
1.5476806640624998
1.5186767578125
1.52109375
1.5347900390625
1.529150390625
1.4735595703125
1.2205810546875
1.554931640625
1.5589599609375
1.554931640625
1.603271484375
1.622607421875
1.880419921875
1.6733642578124999
1.5170654296875
1.4912841796874998
1.490478515625
1.48564453125
1.5218994140625
1.480810546875
1.4961181640624999
1.5025634765625
1.4759765624999999
1.506591796875
1.4920898437499999
1.5355957031249998
1.4920898437499999
1.9376220703125
1.5412353515625
1.4920898437499999
1.4993408203124998
1.442138671875
1.4058837890625
1.3027587890624999
1.3341796874999998
1.3792968749999999
1.477587890625
1.5057861328125
1.5082031249999999
1.5146484375
1.5275390624999998
1.5404296874999999
1.542041015625
1.5267333984375
1.5170654296875
1.5299560546875
1.533984375
1.4920898437499999
1.039306640625
1.4953124999999998
1.5283447265624999
1.5267333984375
1.5573486328125
1.609716796875
1.9537353515625
1.7096191406249999
1.5686279296874999
1.493701171875
1.4896728515625
1.5033691406249998
1.5090087890625
1.5025634765625
1.4864501953125
1.4751708984374998
1.4888671875
1.506591796875
1.4953124999999998
1.5154541015624998
1.5057861328125
1.9352050781249999
1.5428466796875
1.4993408203124998
1.513037109375
1.4791992187499998
1.416357421875
1.2745605468749999
1.32451171875
1.3728515625
1.4719482421874999
1.5033691406249998
1.525927734375
1.509814453125
1.53720703125
1.5114257812499998
1.496923828125
1.5484863281249999
1.5428466796875
1.5218994140625
1.5082031249999999
1.5122314453124999
1.03125
1.456640625
1.5670166015625
1.522705078125
1.5404296874999999
1.6000488281249998
1.6975341796874999
1.9070068359374999
1.5533203125
1.509814453125
1.4920898437499999
1.4912841796874998
1.5186767578125
1.4864501953125
1.5033691406249998
1.4880615234374999
1.4800048828124999
1.4832275390624998
1.5122314453124999
1.49853515625
1.4977294921875
1.9327880859375
1.66611328125
1.45341796875
1.5033691406249998
1.4719482421874999
1.393798828125
1.3575439453125
1.34384765625
1.3430419921874999
1.4630859374999998
1.4848388671875
1.5122314453124999
1.4880615234374999
1.538818359375
1.5396240234374998
1.53076171875
1.5323730468749999
1.5283447265624999
1.5082031249999999
1.5162597656249999
1.5186767578125
1.0803955078125
1.3204833984375
1.5782958984375
1.522705078125
1.529150390625
1.6161621093749998
1.622607421875
1.9110351562499999
1.6242187499999998
1.5186767578125
1.5106201171875
1.482421875
1.4945068359375
1.4920898437499999
1.4961181640624999
1.48564453125
1.48564453125
1.5057861328125
1.5186767578125
1.496923828125
1.5114257812499998
1.5919921874999998
1.8667236328124999
1.4767822265625
1.49853515625
1.4953124999999998
1.448583984375
1.38896484375
1.2898681640624998
1.3494873046875
1.4429443359374998
1.477587890625
1.5025634765625
1.48564453125
1.5057861328125
1.5106201171875
1.5436523437499998
1.5380126953125
1.5525146484374999
1.5202880859374999
1.529150390625
1.5235107421874998
1.3881591796875
1.103759765625
1.545263671875
1.5355957031249998
1.538818359375
1.611328125
1.6209960937499999
1.931982421875
1.6830322265625
1.5275390624999998
1.5009521484375
1.4800048828124999
1.4840332031249999
1.5073974609374998
1.509814453125
1.4928955078125
1.4977294921875
1.4816162109375
1.4759765624999999
1.4928955078125
1.4953124999999998
1.5154541015624998
1.8981445312499998
1.5243164062499999
1.4872558593749998
1.50498046875
1.4550292968749998
1.3929931640625
1.26005859375
1.3067871093749999
1.3994384765624999
1.4783935546875
1.5162597656249999
1.48564453125
1.496923828125
1.545263671875
1.5476806640624998
1.5347900390625
1.53076171875
1.5154541015624998
1.5146484375
1.5202880859374999
1.5025634765625
1.0973144531249999
1.4920898437499999
1.5597656249999998
1.53076171875
1.5758789062499998
1.611328125
1.8876708984375
1.7466796875
1.5428466796875
1.4977294921875
1.4800048828124999
1.506591796875
1.4961181640624999
1.5025634765625
1.5170654296875
1.506591796875
1.4848388671875
1.4832275390624998
1.5082031249999999
1.5033691406249998
1.50498046875
1.9674316406249999
1.5984375
1.490478515625
1.5025634765625
1.4687255859375
1.4107177734374998
1.2826171874999999
1.3341796874999998
1.3768798828125
1.4816162109375
1.496923828125
1.525927734375
1.4945068359375
1.53720703125
1.546875
1.5106201171875
1.5355957031249998
1.525927734375
1.5170654296875
1.52109375
1.5138427734375
1.0191650390625
1.4115234374999999
1.5509033203125
1.5525146484374999
1.5364013671874999
1.6048828124999999
1.8216064453124998
1.8361083984375
1.571044921875
1.5001464843749999
1.4800048828124999
1.4977294921875
1.5138427734375
1.4977294921875
1.5025634765625
1.480810546875
1.4920898437499999
1.5170654296875
1.4888671875
1.49853515625
1.50498046875
1.767626953125
1.6491943359374999
1.4920898437499999
1.4920898437499999
1.4783935546875
1.40185546875
1.3446533203125
1.3172607421875
1.3478759765625
1.456640625
1.5001464843749999
1.50498046875
1.4953124999999998
1.5517089843749998
1.538818359375
1.5041748046874999
1.538818359375
1.5194824218749998
1.5404296874999999
1.5355957031249998
1.5186767578125
1.187548828125
1.3954101562499999
1.5702392578125
1.5235107421874998
1.5645996093749999
1.6185791015625
1.662890625
1.9215087890625
1.6081054687499998
1.5082031249999999
1.4719482421874999
1.4848388671875
1.4872558593749998
1.5041748046874999
1.506591796875
1.5194824218749998
1.506591796875
1.5017578125
1.4888671875
1.4920898437499999
1.5033691406249998
1.72734375
1.803076171875
1.4928955078125
1.493701171875
1.4977294921875
1.42119140625
1.3857421875
1.3341796874999998
1.3301513671874998
1.4381103515625
1.4719482421874999
1.5082031249999999
1.5170654296875
1.5186767578125
1.5436523437499998
1.533984375
1.542041015625
1.5114257812499998
1.509814453125
1.5025634765625
1.4953124999999998
1.26005859375
1.1923828125
1.55009765625
1.5509033203125
1.533984375
1.58232421875
1.6250244140624999
1.899755859375
1.7136474609374999
1.5283447265624999
1.493701171875
1.49853515625
1.4961181640624999
1.4993408203124998
1.5041748046874999
1.5170654296875
1.480810546875
1.4928955078125
1.49853515625
1.5025634765625
1.5106201171875
1.4896728515625
1.9754882812499999
1.4928955078125
1.5009521484375
1.4880615234374999
1.4332763671875
1.40185546875
1.30517578125
1.3237060546875
1.4026611328124998
1.48564453125
1.5025634765625
1.4945068359375
1.5009521484375
1.538818359375
1.5202880859374999
1.525927734375
1.5396240234374998
1.5331787109375
1.5041748046874999
1.50498046875
1.513037109375
1.0239990234375
1.5404296874999999
1.5267333984375
1.529150390625
1.5799072265624998
1.6322753906249998
1.8868652343749999
1.7764892578125
1.5243164062499999
1.4880615234374999
1.49853515625
1.5057861328125
1.506591796875
1.4912841796874998
1.5090087890625
1.4953124999999998
1.5057861328125
1.493701171875
1.4848388671875
1.49853515625
1.4888671875
1.9811279296875
1.5702392578125
1.4864501953125
1.5154541015624998
1.4590576171874998
1.3994384765624999
1.3220947265624998
1.3261230468749998
1.3857421875
1.4598632812499999
1.5001464843749999
1.5082031249999999
1.533984375
1.53076171875
1.5025634765625
1.5235107421874998
1.5645996093749999
1.538818359375
1.5243164062499999
1.509814453125
1.509814453125
1.0207763671874999
1.4598632812499999
1.56943359375
1.5001464843749999
1.5662109375
1.6089111328124999
1.6854492187499999
1.80791015625
1.5686279296874999
1.522705078125
1.4687255859375
1.4751708984374998
1.5170654296875
1.5009521484375
1.4928955078125
1.493701171875
1.5017578125
1.4872558593749998
1.5082031249999999
1.48564453125
1.5073974609374998
1.8788085937499999
1.7152587890625
1.4671142578124998
1.509814453125
1.4872558593749998
1.3913818359374999
1.2995361328125
1.3261230468749998
1.345458984375
1.4510009765624998
1.5082031249999999
1.5146484375
1.4977294921875
1.533984375
1.5436523437499998
1.53720703125
1.53076171875
1.5355957031249998
1.5251220703125
1.606494140625
1.496923828125
1.1013427734374999
1.2673095703125
1.5243164062499999
1.493701171875
1.5057861328125
1.5782958984375
1.6298583984375
1.944873046875
1.7055908203124999
1.49853515625
1.5090087890625
1.474365234375
1.5122314453124999
1.496923828125
1.493701171875
1.5218994140625
1.5090087890625
1.5057861328125
1.4800048828124999
1.5025634765625
1.5009521484375
1.546875
1.735400390625
1.4928955078125
1.5033691406249998
1.4993408203124998
1.4203857421875
1.3817138671875
1.3148437499999999
1.335791015625
1.4389160156249998
1.50498046875
1.5001464843749999
1.4888671875
1.5001464843749999
1.525927734375
1.5323730468749999
1.5170654296875
1.5364013671874999
1.525927734375
1.50498046875
1.5380126953125
1.4574462890625
1.271337890625
1.571044921875
1.529150390625
1.5517089843749998
1.6024658203125
1.6201904296874998
1.9537353515625
1.6395263671875
1.5323730468749999
1.4896728515625
1.4840332031249999
1.480810546875
1.4783935546875
1.4800048828124999
1.5057861328125
1.5090087890625
1.5162597656249999
1.4953124999999998
1.5138427734375
1.5057861328125
1.5138427734375
1.912646484375
1.533984375
1.5025634765625
1.496923828125
1.4469726562499998
1.4155517578124999
1.2858398437499998
1.3309570312499999
1.38896484375
1.4832275390624998
1.4928955078125
1.509814453125
1.5122314453124999
1.525927734375
1.5283447265624999
1.5243164062499999
1.542041015625
1.5154541015624998
1.5355957031249998
1.4526123046875
1.4872558593749998
1.0594482421875
1.506591796875
1.542041015625
1.5251220703125
1.5404296874999999
1.6177734375
1.88525390625
1.7660156249999999
1.558154296875
1.5025634765625
1.4872558593749998
1.49853515625
1.52109375
1.5090087890625
1.49853515625
1.4832275390624998
1.4928955078125
1.4848388671875
1.50498046875
1.482421875
1.5001464843749999
1.9762939453125
1.53720703125
1.5073974609374998
1.5033691406249998
1.464697265625
1.4034667968749999
1.284228515625
1.3261230468749998
1.3873535156249999
1.46953125
1.4832275390624998
1.4518066406249999
1.4953124999999998
1.53076171875
1.5218994140625
1.5154541015624998
1.5331787109375
1.5017578125
1.5194824218749998
1.5154541015624998
1.5444580078124999
1.061865234375
1.4920898437499999
1.5565429687499999
1.522705078125
1.53076171875
1.6129394531249999
1.6862548828125
1.8739746093749998
1.5807128906249999
1.5017578125
1.480810546875
1.4864501953125
1.5017578125
1.5041748046874999
1.5033691406249998
1.525927734375
1.4783935546875
1.50498046875
1.5001464843749999
1.50498046875
1.4880615234374999
1.9352050781249999
1.667724609375
1.4816162109375
1.5025634765625
1.46953125
1.3897705078125
1.3720458984375
1.3253173828125
1.348681640625
1.4284423828125
1.4928955078125
1.5162597656249999
1.5082031249999999
1.546875
1.5122314453124999
1.509814453125
1.5436523437499998
1.5436523437499998
1.5444580078124999
1.5267333984375
1.5323730468749999
1.019970703125
1.3575439453125
1.561376953125
1.5396240234374998
1.5517089843749998
1.6218017578125
1.625830078125
1.8457763671874998
1.5726562499999999
1.4800048828124999
1.4679199218749999
1.4759765624999999
1.4445556640625
1.4920898437499999
1.5251220703125
1.5235107421874998
1.474365234375
1.5114257812499998
1.4993408203124998
1.4888671875
1.49853515625
1.67900390625
1.8651123046875
1.4977294921875
1.509814453125
1.4912841796874998
1.4187744140624998
1.3801025390625
1.316455078125
1.313232421875
1.4373046875
1.4993408203124998
1.4953124999999998
1.5235107421874998
1.5315673828124998
1.5106201171875
1.5186767578125
1.5678222656249998
1.529150390625
1.509814453125
1.5138427734375
1.5218994140625
1.3430419921874999
1.1061767578125
1.4848388671875
1.5404296874999999
1.533984375
1.5911865234375
1.622607421875
1.9134521484375
1.735400390625
1.5235107421874998
1.49853515625
1.5082031249999999
1.5275390624999998
1.50498046875
1.5106201171875
1.48564453125
1.480810546875
1.5106201171875
1.5073974609374998
1.5041748046874999
1.4993408203124998
1.4928955078125
2.0101318359375
1.51787109375
1.5033691406249998
1.4848388671875
1.4316650390624999
1.3962158203125
1.2777832031249998
1.3341796874999998
1.4034667968749999
1.4791992187499998
1.5009521484375
1.5243164062499999
1.4993408203124998
1.5299560546875
1.5218994140625
1.5412353515625
1.53076171875
1.5122314453124999
1.5082031249999999
1.5138427734375
1.525927734375
1.0731445312499999
1.5170654296875
1.5460693359375
1.525927734375
1.5718505859374998
1.6056884765625
1.8224121093749999
1.7539306640624999
1.5750732421875
1.4945068359375
1.4816162109375
1.49853515625
1.493701171875
1.4888671875
1.482421875
1.5082031249999999
1.482421875
1.4832275390624998
1.4993408203124998
1.5347900390625
1.4912841796874998
2.002880859375
1.6363037109374998
1.482421875
1.4945068359375
1.4638916015624999
1.3905761718749998
1.2366943359375
1.3237060546875
1.3551269531249999
1.461474609375
1.49853515625
1.5082031249999999
1.47275390625
1.5299560546875
1.5202880859374999
1.5162597656249999
1.5758789062499998
1.5243164062499999
1.5114257812499998
1.5251220703125
1.5138427734375
0.978076171875
1.4034667968749999
1.5492919921875
1.493701171875
1.5718505859374998
1.64677734375
1.893310546875
1.8659179687499998
1.6089111328124999
1.5041748046874999
1.4719482421874999
1.4872558593749998
1.4993408203124998
1.49853515625
1.5082031249999999
1.49853515625
1.4832275390624998
1.4928955078125
1.509814453125
1.493701171875
1.5162597656249999
1.8602783203125
1.7958251953125
1.4928955078125
1.4945068359375
1.4783935546875
1.3833251953124999
1.3204833984375
1.3269287109374999
1.351904296875
1.4501953125
1.4880615234374999
1.4751708984374998
1.474365234375
1.5146484375
1.4848388671875
1.52109375
1.5404296874999999
1.5251220703125
1.5517089843749998
1.522705078125
1.5299560546875
1.1384033203125
1.2109130859375
1.5605712890624999
1.5073974609374998
1.513037109375
1.6491943359374999
1.6967285156249998
1.9956298828124999
1.63388671875
1.5251220703125
1.4888671875
1.5251220703125
1.5041748046874999
1.4977294921875
1.4896728515625
1.509814453125
1.4630859374999998
1.5009521484375
1.4993408203124998
1.5138427734375
1.49853515625
1.5041748046874999
1.84013671875
1.4945068359375
1.482421875
1.4791992187499998
1.3833251953124999
1.3857421875
1.2995361328125
1.3124267578125
1.4115234374999999
1.5146484375
1.480810546875
1.5170654296875
1.546875
1.5436523437499998
1.490478515625
1.545263671875
1.5645996093749999
1.5412353515625
1.538818359375
1.5315673828124998
1.1279296875
1.1287353515625
1.5484863281249999
1.5484863281249999
1.56943359375
1.6242187499999998
1.6669189453125
2.0439697265625
1.7450683593749998
1.5517089843749998
1.5073974609374998
1.5009521484375
1.5154541015624998
1.5154541015624998
1.5283447265624999
1.5283447265624999
1.51787109375
1.46953125
1.52109375
1.5041748046874999
1.4840332031249999
1.4864501953125
2.0326904296875
1.6040771484374998
1.4816162109375
1.5001464843749999
1.4501953125
1.3140380859374998
1.15048828125
1.1819091796874999
1.3269287109374999
1.429248046875
1.4759765624999999
1.4606689453125
1.4679199218749999
1.474365234375
1.4920898437499999
1.46953125
1.4912841796874998
1.5025634765625
1.5017578125
1.5275390624999998
1.5299560546875
0.9466552734375
1.4461669921875
1.5057861328125
1.5355957031249998
1.5807128906249999
1.6612792968749999
2.0117431640625
1.8989501953124999
1.5428466796875
1.493701171875
1.5009521484375
1.493701171875
1.5025634765625
1.4638916015624999
1.4945068359375
1.4848388671875
1.4679199218749999
1.490478515625
1.5162597656249999
1.4896728515625
1.474365234375
2.0729736328125
1.6572509765624999
1.5396240234374998
1.5299560546875
1.4703369140625
1.368017578125
1.1923828125
1.2318603515625
1.2914794921875
1.4123291015625
1.46630859375
1.5162597656249999
1.490478515625
1.52109375
1.5154541015624998
1.5251220703125
1.545263671875
1.5476806640624998
1.5436523437499998
1.538818359375
1.561376953125
0.837890625
1.3954101562499999
1.5557373046874998
1.542041015625
1.5863525390625
1.722509765625
1.7474853515625
1.9827392578124998
1.6749755859375
1.5355957031249998
1.4864501953125
1.5082031249999999
1.5347900390625
1.5073974609374998
1.5436523437499998
1.529150390625
1.506591796875
1.5033691406249998
1.5436523437499998
1.538818359375
1.506591796875
2.080224609375
1.828857421875
1.5251220703125
1.5162597656249999
1.4888671875
1.3664062499999998
1.152099609375
1.2608642578125
1.255224609375
1.4203857421875
1.4767822265625
1.5009521484375
1.509814453125
1.5533203125
1.5299560546875
1.50498046875
1.5484863281249999
1.5218994140625
1.5009521484375
1.5275390624999998
1.5041748046874999
0.8177490234375
1.1053710937499999
1.5170654296875
1.5122314453124999
1.5364013671874999
1.62744140625
1.7313720703125
2.0173828124999997
1.6943115234375
1.525927734375
1.4115234374999999
1.413134765625
1.4308593749999998
1.4244140625
1.4687255859375
1.458251953125
1.5041748046874999
1.4888671875
1.493701171875
1.4888671875
1.5001464843749999
1.6403320312499998
2.0737792968749997
1.5347900390625
1.4896728515625
1.4638916015624999
1.3672119140624999
1.3140380859374998
1.1802978515625
1.1915771484375
1.3510986328124999
1.4526123046875
1.4928955078125
1.496923828125
1.49853515625
1.5170654296875
1.5412353515625
1.56298828125
1.5396240234374998
1.56298828125
1.5460693359375
1.533984375
1.3349853515624999
0.85400390625
1.5654052734375
1.4920898437499999
1.554931640625
1.674169921875
1.690283203125
2.1333984375
1.7990478515625
1.58232421875
1.5041748046874999
1.461474609375
1.5041748046874999
1.5090087890625
1.5025634765625
1.5114257812499998
1.4953124999999998
1.4518066406249999
1.4880615234374999
1.52109375
1.5396240234374998
1.48564453125
2.1470947265625
1.6185791015625
1.5347900390625
1.4598632812499999
1.4066894531249998
1.345458984375
1.1794921875
1.184326171875
1.3019531249999998
1.429248046875
1.4364990234375
1.4767822265625
1.490478515625
1.5444580078124999
1.5315673828124998
1.5380126953125
1.5331787109375
1.5138427734375
1.5041748046874999
1.5275390624999998
1.4058837890625
0.7822998046874999
1.3704345703124998
1.5218994140625
1.525927734375
1.6072998046875
1.65966796875
2.1543457031249997
2.0012695312499997
1.6878662109375
1.545263671875
1.46630859375
1.4526123046875
1.4759765624999999
1.5283447265624999
1.525927734375
1.496923828125
1.4735595703125
1.4961181640624999
1.474365234375
1.416357421875
1.5057861328125
2.3082275390625
1.7990478515625
1.509814453125
1.5347900390625
1.4598632812499999
1.3092041015625
1.0594482421875
1.1577392578124999
1.1835205078125
1.4219970703125
1.477587890625
1.4655029296875
1.4791992187499998
1.5517089843749998
1.5162597656249999
1.546875
1.538818359375
1.5355957031249998
1.5476806640624998
1.545263671875
1.5122314453124999
0.6590332031249999
1.15693359375
1.5347900390625
1.5243164062499999
1.6137451171875
1.6798095703125
2.0890869140625
2.1382324218749997
1.8175781249999998
1.577490234375
1.47275390625
1.48564453125
1.4872558593749998
1.4920898437499999
1.5275390624999998
1.4840332031249999
1.4630859374999998
1.4703369140625
1.4800048828124999
1.480810546875
1.4791992187499998
1.98193359375
1.8578613281249998
1.5396240234374998
1.513037109375
1.4671142578124998
1.3317626953125
1.2318603515625
1.134375
1.1964111328125
1.364794921875
1.3849365234375
1.4348876953124998
1.4896728515625
1.53076171875
1.5839355468749998
1.5275390624999998
1.5702392578125
1.5412353515625
1.5645996093749999
1.4864501953125
1.4848388671875
0.9329589843749999
1.171435546875
1.53720703125
1.5138427734375
1.5879638671874998
1.7265380859375
1.7499023437499999
2.2832519531249997
1.8506103515624999
1.6081054687499998
1.5283447265624999
1.4550292968749998
1.4953124999999998
1.4896728515625
1.5202880859374999
1.5186767578125
1.4888671875
1.45341796875
1.4759765624999999
1.5299560546875
1.474365234375
1.9182861328124998
2.0778076171874997
1.5815185546875
1.542041015625
1.477587890625
1.3639892578125
1.2608642578125
1.0820068359375
1.1255126953124999
1.2906738281249999
1.4284423828125
1.4872558593749998
1.45341796875
1.5138427734375
1.5355957031249998
1.5404296874999999
1.5525146484374999
1.5597656249999998
1.522705078125
1.49853515625
1.52109375
1.0409179687499999
0.8765624999999999
1.464697265625
1.5645996093749999
1.53720703125
1.6862548828125
1.72412109375
2.3009765625
1.9625976562499998
1.587158203125
1.5041748046874999
1.5009521484375
1.4920898437499999
1.482421875
1.5033691406249998
1.50498046875
1.4767822265625
1.493701171875
1.5057861328125
1.4993408203124998
1.5033691406249998
1.4558349609374999
2.3307861328125
1.5968261718749999
1.513037109375
1.5041748046874999
1.3962158203125
1.26328125
1.0119140625
1.119873046875
1.268115234375
1.4066894531249998
1.45341796875
1.5243164062499999
1.52109375
1.5589599609375
1.5412353515625
1.5243164062499999
1.5525146484374999
1.5194824218749998
1.5476806640624998
1.52109375
1.5162597656249999
0.6066650390625
1.448583984375
1.5380126953125
1.561376953125
1.5637939453124998
1.6717529296875
2.2566650390625
2.051220703125
1.65
1.496923828125
1.474365234375
1.4848388671875
1.5162597656249999
1.4832275390624998
1.5194824218749998
1.493701171875
1.4912841796874998
1.5194824218749998
1.490478515625
1.477587890625
1.48564453125
2.3154785156249997
1.7442626953125
1.53720703125
1.509814453125
1.4284423828125
1.340625
1.1110107421875
1.106982421875
1.184326171875
1.3341796874999998
1.405078125
1.5033691406249998
1.4445556640625
1.571044921875
1.5396240234374998
1.542041015625
1.56298828125
1.558154296875
1.51787109375
1.53720703125
1.5517089843749998
0.630029296875
1.2423339843749999
1.5073974609374998
1.5251220703125
1.5807128906249999
1.6878662109375
1.7901855468749999
2.1591796875
1.7458740234374999
1.5170654296875
1.522705078125
1.5122314453124999
1.593603515625
1.5090087890625
1.5138427734375
1.49853515625
1.4348876953124998
1.4928955078125
1.4687255859375
1.4920898437499999
1.4920898437499999
2.2179931640625
1.960986328125
1.5533203125
1.5073974609374998
1.413134765625
1.3043701171875
1.061865234375
1.1061767578125
1.14404296875
1.2898681640624998
1.4373046875
1.4493896484375
1.4711425781249998
1.5702392578125
1.5364013671874999
1.5428466796875
1.574267578125
1.51787109375
1.5235107421874998
1.542041015625
1.482421875
0.6727294921875
0.9643798828125
1.506591796875
1.5275390624999998
1.619384765625
1.687060546875
1.85625
2.3404541015625
1.93359375
1.5750732421875
1.4735595703125
1.4630859374999998
1.4759765624999999
1.490478515625
1.4920898437499999
1.4791992187499998
1.4848388671875
1.4719482421874999
1.5017578125
1.5025634765625
1.4550292968749998
1.6008544921874999
2.2373291015625
1.5750732421875
1.5251220703125
1.5001464843749999
1.2979248046874998
1.2439453125
1.0006347656249999
1.1093994140624999
1.3398193359375
1.45341796875
1.4397216796874999
1.4703369140625
1.4864501953125
1.545263671875
1.5831298828125
1.585546875
1.5670166015625
1.55009765625
1.5041748046874999
1.4928955078125
1.3817138671875
0.8749511718749999
1.456640625
1.525927734375
1.5404296874999999
1.7007568359374998
1.7861572265624999
2.410546875
1.948095703125
1.65966796875
1.513037109375
1.4606689453125
1.4679199218749999
1.493701171875
1.4848388671875
1.5001464843749999
1.461474609375
1.4364990234375
1.4638916015624999
1.4912841796874998
1.45341796875
1.4735595703125
2.3501220703125
1.7458740234374999
1.56298828125
1.44052734375
1.3825195312499998
1.2745605468749999
1.0530029296874999
0.9176513671875
1.0707275390625
1.3382080078124998
1.4461669921875
1.461474609375
1.4840332031249999
1.6000488281249998
1.5597656249999998
1.5831298828125
1.5436523437499998
1.5557373046874998
1.5654052734375
1.5589599609375
1.4348876953124998
0.4962890625
1.2608642578125
1.5355957031249998
1.5976318359375
1.585546875
1.7378173828124999
1.9916015624999999
2.28486328125
1.8393310546875
1.5960205078124998
1.5090087890625
1.4389160156249998
1.5218994140625
1.4759765624999999
1.4953124999999998
1.525927734375
1.40830078125
1.4526123046875
1.4397216796874999
1.480810546875
1.4848388671875
2.592626953125
2.051220703125
1.5944091796875
1.5194824218749998
1.40830078125
1.2785888671874999
0.9152343749999999
0.9974121093749999
1.0159423828125
1.303564453125
1.3720458984375
1.4373046875
1.4945068359375
1.5807128906249999
1.5637939453124998
1.5355957031249998
1.5541259765625
1.5686279296874999
1.5428466796875
1.52109375
1.5484863281249999
0.3504638671875
0.8805908203124999
1.4236083984374999
1.4783935546875
1.6508056640625
1.8062988281249999
2.2365234375
2.5265625
2.0471923828125
1.6008544921874999
1.4953124999999998
1.4397216796874999
1.46953125
1.4510009765624998
1.51787109375
1.4671142578124998
1.4373046875
1.4477783203124999
1.50498046875
1.4638916015624999
1.4493896484375
2.03671875
2.13662109375
1.7080078125
1.6371093749999999
1.474365234375
1.235888671875
1.1214843749999999
0.8934814453125
0.9063720703125
1.1456542968749999
1.3873535156249999
1.4679199218749999
1.490478515625
1.5654052734375
1.5758789062499998
1.5750732421875
1.5686279296874999
1.5396240234374998
1.6024658203125
1.5533203125
1.538818359375
0.7436279296874999
0.7718261718749999
1.409912109375
1.464697265625
1.5927978515624999
1.8344970703124999
1.8820312499999998
2.6296874999999997
1.9424560546874998
1.5911865234375
1.46953125
1.4332763671875
1.461474609375
1.5154541015624998
1.490478515625
1.42119140625
1.3623779296874998
1.380908203125
1.4542236328125
1.49853515625
1.5267333984375
1.4590576171874998
2.5418701171875
1.8441650390625
1.6008544921874999
1.46630859375
1.3100097656249998
1.071533203125
0.8121093749999999
0.768603515625
1.0167480468749999
1.2334716796875
1.4147460937499998
1.4759765624999999
1.5782958984375
1.670947265625
1.593603515625
1.5565429687499999
1.5436523437499998
1.5154541015624998
1.4864501953125
1.554931640625
0.966796875
0.24492187499999998
1.12470703125
1.400244140625
1.5557373046874998
1.8151611328125
1.9053955078125
2.9068359375
2.5958496093749996
2.0810302734375
1.6798095703125
1.4236083984374999
1.4026611328124998
1.40185546875
1.4477783203124999
1.4469726562499998
1.4848388671875
1.3688232421875
1.4461669921875
1.4348876953124998
1.49853515625
1.5114257812499998
2.9559814453124997
2.2365234375
1.6725585937499998
1.603271484375
1.3881591796875
1.0288330078124999
0.678369140625
0.5841064453125
0.7395996093749999
1.1384033203125
1.3019531249999998
1.4550292968749998
1.3865478515624998
1.4880615234374999
1.5001464843749999
1.50498046875
1.6040771484374998
1.5944091796875
1.5565429687499999
1.5750732421875
1.4671142578124998
0.0120849609375
0.62841796875
1.2399169921875
1.4228027343749998
1.6781982421875
1.9472900390624999
3.0010986328125
2.95517578125
2.512060546875
1.8312744140625
1.6040771484374998
1.477587890625
1.4767822265625
1.4332763671875
1.445361328125
1.445361328125
1.4091064453125
1.456640625
1.4945068359375
1.46630859375
1.4711425781249998
2.7465087890624997
2.415380859375
1.8949218749999999
1.7571533203124998
1.4147460937499998
1.1778808593749999
0.74443359375
0.5115966796875
0.5599365234375
0.9329589843749999
1.1408203125
1.37607421875
1.380908203125
1.5758789062499998
1.5799072265624998
1.5396240234374998
1.6395263671875
1.6894775390624999
1.6322753906249998
1.529150390625
1.49853515625
0.12890625
0.5986083984375
1.135986328125
1.276171875
1.5863525390625
1.91748046875
2.1720703125
3.0027099609374996
2.49755859375
2.028662109375
1.7982421874999999
1.5001464843749999
1.53720703125
1.4510009765624998
1.4300537109375
1.4671142578124998
1.3881591796875
1.3865478515624998
1.4228027343749998
1.47275390625
1.5436523437499998
2.7110595703125
2.727978515625
1.96904296875
1.783740234375
1.5565429687499999
1.1690185546875
0.9418212890625
0.456005859375
0.44633789062499996
0.7001220703125
1.0006347656249999
1.2060791015624999
1.4550292968749998
1.522705078125
1.538818359375
1.5919921874999998
1.6475830078125
1.603271484375
1.603271484375
1.6081054687499998
1.6532226562499999
0.18449707031249998
0.0708984375
0.994189453125
1.1698242187499999
1.506591796875
1.7990478515625
2.0334960937499997
3.0010986328125
2.7658447265625
2.2663330078125
1.740234375
1.5235107421874998
1.4783935546875
1.5331787109375
1.5082031249999999
1.4993408203124998
1.4912841796874998
1.4574462890625
1.47275390625
1.480810546875
1.4389160156249998
1.545263671875
3.0002929687499997
2.384765625
1.8739746093749998
1.7168701171874998
1.3656005859375
0.8564208984374999
0.3359619140625
0.20463867187499998
0.581689453125
0.8838134765625
1.1617675781249999
1.3059814453124998
1.4622802734375
1.5815185546875
1.5670166015625
1.5484863281249999
1.6395263671875
1.6290527343749999
1.587158203125
1.6475830078125
1.496923828125
0.011279296874999999
0.71865234375
1.1698242187499999
1.4139404296875
1.5484863281249999
2.0745849609375
3.0010986328125
2.9664550781249996
2.2115478515625
1.9215087890625
1.5476806640624998
1.432470703125
1.525927734375
1.4832275390624998
1.5436523437499998
1.4316650390624999
1.4703369140625
1.513037109375
1.4880615234374999
1.4880615234374999
1.5404296874999999
3.0010986328125
2.3904052734375
2.0584716796875
1.722509765625
1.4091064453125
1.061865234375
0.42861328125
0.246533203125
0.40283203125
0.6727294921875
1.00224609375
1.32451171875
1.458251953125
1.5960205078124998
1.5428466796875
1.6137451171875
1.6693359374999999
1.480810546875
1.6363037109374998
1.5525146484374999
1.5839355468749998
0.012890625
0.5687988281249999
1.0352783203125
1.1770751953125
1.5863525390625
1.9835449218749999
2.4677490234375
3.0027099609374996
2.566845703125
2.1712646484375
1.812744140625
1.625830078125
1.5460693359375
1.5484863281249999
1.5299560546875
1.442138671875
1.3285400390625
1.432470703125
1.41796875
1.432470703125
1.4840332031249999
3.0002929687499997
2.76181640625
2.131787109375
1.880419921875
1.590380859375
1.1657958984374999
0.6211669921874999
0.2183349609375
0.21511230468749998
0.5373779296875
1.02158203125
1.271337890625
1.3390136718749999
1.456640625
1.4888671875
1.5678222656249998
1.6121337890624998
1.6161621093749998
1.6177734375
1.6137451171875
1.5927978515624999
0.011279296874999999
0.16435546874999998
0.945849609375
1.1545166015625
1.4703369140625
1.9392333984374999
2.1744873046874997
3.0010986328125
2.7642333984375
2.2534423828125
1.76279296875
1.6403320312499998
1.5815185546875
1.4711425781249998
1.5017578125
1.545263671875
1.4630859374999998
1.4228027343749998
1.4356933593749999
1.4630859374999998
1.4332763671875
2.1342041015624997
3.0027099609374996
2.384765625
1.9698486328125
1.751513671875
1.2938964843749998
0.791162109375
0.3158203125
0.165966796875
0.35288085937499997
0.9571289062499999
1.174658203125
1.2455566406249998
1.3768798828125
1.5057861328125
1.5380126953125
1.6169677734374999
1.7893798828124998
1.5750732421875
1.59521484375
1.6266357421875
0.758935546875
0.0120849609375
0.6493652343749999
1.0449462890624999
1.3229003906249999
1.7176757812499999
2.0939208984374997
3.0027099609374996
2.9994873046875
2.5096435546875
1.977099609375
1.7136474609374999
1.5637939453124998
1.5009521484375
1.49853515625
1.5082031249999999
1.5106201171875
1.4622802734375
1.4252197265625
1.4679199218749999
1.432470703125
1.46953125
3.0010986328125
2.44599609375
2.0947265625
1.85302734375
1.3349853515624999
0.9756591796874999
0.19094238281249998
0.013696289062499999
0.1506591796875
0.6131103515624999
0.9474609374999999
1.2439453125
1.4711425781249998
1.4655029296875
1.622607421875
1.6991455078125
1.6959228515625
1.722509765625
1.6773925781249999
1.574267578125
1.5138427734375
0.013696289062499999
0.610693359375
0.90234375
1.00224609375
1.2584472656249999
1.893310546875
2.8786376953125
3.003515625
2.7078369140625
2.32998046875
1.9956298828124999
1.6177734375
1.6234130859375
1.45341796875
1.5162597656249999
1.5267333984375
1.3446533203125
1.3390136718749999
1.4920898437499999
1.5186767578125
1.4791992187499998
2.9978759765625
2.9173095703125
2.5628173828125
2.3340087890625
1.9907958984374998
1.4550292968749998
0.4149169921875
0.0104736328125
0.009667968749999999
0.1780517578125
0.41572265625
0.784716796875
0.9329589843749999
1.17626953125
1.3494873046875
1.432470703125
1.4671142578124998
1.5895751953125
1.6524169921874998
1.654833984375
1.6943115234375
0.009667968749999999
0.009667968749999999
0.47453613281249996
0.5607421874999999
1.02158203125
1.6765869140624998
2.2623046875
3.0002929687499997
3.0027099609374996
2.808544921875
2.534619140625
2.1567626953125
1.9843505859375
1.76279296875
1.770849609375
1.6822265625
1.545263671875
1.3801025390625
1.445361328125
1.4445556640625
1.3897705078125
2.9986816406249996
3.003515625
2.8302978515625
2.8383544921875
2.4919189453125
1.8506103515624999
0.8693115234375
0.011279296874999999
0.012890625
0.009667968749999999
0.062841796875
0.2038330078125
0.36093749999999997
0.5446289062499999
0.9224853515625
1.0836181640625
1.2616699218749998
1.4759765624999999
1.6177734375
1.667724609375
1.767626953125
0.011279296874999999
0.0104736328125
0.193359375
0.009667968749999999
0.24089355468749998
0.8830078124999999
1.5839355468749998
3.0010986328125
3.003515625
2.9986816406249996
2.9068359375
2.7642333984375
2.6619140624999997
2.5201171875
2.1624023437499997
2.0745849609375
1.8844482421875
1.6443603515624998
1.5186767578125
1.4493896484375
1.4026611328124998
1.4147460937499998
3.003515625
3.005126953125
3.0059326171875
2.9237548828124997
2.4814453125
1.561376953125
0.375439453125
0.014501953125
0.011279296874999999
0.009667968749999999
0.040283203125
0.1313232421875
0.2505615234375
0.5824951171875
0.7259033203124999
0.8258056640625
1.1996337890625
1.32451171875
1.426025390625
1.4977294921875
1.51787109375
0.009667968749999999
0.014501953125
0.0088623046875
0.012890625
0.37382812499999996
1.087646484375
3.003515625
3.0010986328125
3.001904296875
3.001904296875
2.892333984375
2.7811523437499996
2.550732421875
2.4065185546875
2.358984375
2.2236328125
1.84013671875
1.7289550781249998
1.699951171875
1.546875
1.5436523437499998
3.0002929687499997
3.001904296875
3.0010986328125
3.003515625
2.6949462890625
1.7055908203124999
0.16274414062499998
0.011279296874999999
0.0104736328125
0.0104736328125
0.0120849609375
0.22478027343749998
0.21591796875
0.5534912109375
0.7081787109375
0.9579345703125
1.3994384765624999
1.5194824218749998
1.635498046875
1.7136474609374999
1.72734375
0.0120849609375
0.0120849609375
0.08701171875
0.11762695312499999
0.5220703125
1.2568359375
2.85849609375
2.9994873046875
2.9986816406249996
3.003515625
2.8931396484375
2.6965576171874996
2.4387451171875
2.3726806640625
2.1221191406249997
1.90458984375
1.7829345703125
1.7450683593749998
1.6483886718749998
1.5347900390625
1.416357421875
2.6514404296875
3.001904296875
2.9156982421874997
2.9334228515625
2.4604980468749997
1.719287109375
0.9692138671874999
0.0104736328125
0.0088623046875
0.0120849609375
0.2384765625
0.5615478515625
0.75732421875
1.139208984375
1.400244140625
1.561376953125
1.6669189453125
1.6951171875
1.6685302734374998
1.703173828125
1.6153564453125
0.33354492187499996
0.011279296874999999
0.5736328125
0.9232910156249999
1.2052734375
1.9134521484375
2.3420654296875
3.0002929687499997
3.003515625
2.7271728515625
2.4121582031249997
2.0197998046875
1.7531249999999998
1.5960205078124998
1.5444580078124999
1.4244140625
1.3390136718749999
1.327734375
1.393798828125
1.400244140625
1.4316650390624999
2.0979492187499997
3.0027099609374996
2.3879882812499997
2.0109375
1.6951171875
1.2262207031249999
0.9321533203125
0.41411132812499996
0.133740234375
0.3988037109375
0.8064697265624999
1.1617675781249999
1.1770751953125
1.2890625
1.56298828125
1.5597656249999998
1.7217041015624999
1.7611816406249998
1.764404296875
1.6725585937499998
1.6781982421875
1.0272216796875
0.0088623046875
0.8290283203125
1.21171875
1.513037109375
1.8062988281249999
2.0036865234375
3.0010986328125
2.7996826171875
2.2856689453125
1.8989501953124999
1.577490234375
1.4236083984374999
1.4638916015624999
1.5090087890625
1.5347900390625
1.4759765624999999
1.4107177734374998
1.474365234375
1.42119140625
1.4381103515625
1.3768798828125
2.8109619140624997
2.14951171875
1.6242187499999998
1.4590576171874998
1.345458984375
1.045751953125
0.710595703125
0.710595703125
0.8209716796875
0.878173828125
0.8934814453125
1.04736328125
1.1577392578124999
1.35673828125
1.3897705078125
1.4622802734375
1.5436523437499998
1.5122314453124999
1.546875
1.4606689453125
1.4816162109375
0.3472412109375
1.1214843749999999
1.52109375
1.5645996093749999
1.611328125
1.7539306640624999
2.3267578125
2.3009765625
1.80791015625
1.5138427734375
1.4751708984374998
1.4872558593749998
1.4783935546875
1.493701171875
1.5243164062499999
1.4928955078125
1.5057861328125
1.4638916015624999
1.480810546875
1.4953124999999998
1.4880615234374999
2.2026855468749997
1.8715576171875
1.5758789062499998
1.5396240234374998
1.4606689453125
1.332568359375
1.1641845703125
1.15048828125
1.184326171875
1.413134765625
1.4928955078125
1.496923828125
1.4832275390624998
1.55009765625
1.6008544921874999
1.5791015625
1.6218017578125
1.577490234375
1.593603515625
1.558154296875
1.5492919921875
0.845947265625
1.21171875
1.5645996093749999
1.5533203125
1.6218017578125
1.75634765625
1.9231201171874999
2.3227294921875
2.0810302734375
1.9867675781249998
1.5541259765625
1.168212890625
1.1214843749999999
1.2044677734375
1.2262207031249999
1.26328125
1.2721435546875
1.276171875
1.3954101562499999
1.4042724609375
1.429248046875
1.944873046875
1.9787109374999998
1.4993408203124998
1.5025634765625
1.46630859375
1.36962890625
1.4107177734374998
1.33740234375
1.368017578125
1.4461669921875
1.5082031249999999
1.506591796875
1.5460693359375
1.5782958984375
1.6056884765625
1.5670166015625
1.5517089843749998
1.554931640625
1.587158203125
1.5565429687499999
1.5541259765625
1.0239990234375
1.03125
1.5114257812499998
1.5750732421875
1.603271484375
1.667724609375
1.6749755859375
2.18818359375
1.8175781249999998
1.5637939453124998
1.4953124999999998
1.482421875
1.5017578125
1.4759765624999999
1.5267333984375
1.5041748046874999
1.4526123046875
1.4719482421874999
1.4880615234374999
1.506591796875
1.5637939453124998
1.5194824218749998
2.1857666015625
1.6298583984375
1.4920898437499999
1.506591796875
1.4590576171874998
1.361572265625
1.135986328125
1.2181640624999999
1.2624755859374999
1.4590576171874998
1.482421875
1.542041015625
1.5041748046874999
1.5509033203125
1.5017578125
1.335791015625
1.40830078125
1.40185546875
1.3728515625
1.3140380859374998
1.332568359375
0.7057617187499999
1.26328125
1.4437499999999999
1.4767822265625
1.5791015625
1.6669189453125
2.112451171875
1.8538330078124998
1.5154541015624998
1.4413330078125
1.429248046875
1.393798828125
1.40185546875
1.413134765625
1.4550292968749998
1.4518066406249999
1.4630859374999998
1.4961181640624999
1.5017578125
1.546875
1.5589599609375
2.1487060546875
1.6653076171874999
1.5428466796875
1.56298828125
1.5041748046874999
1.45341796875
1.297119140625
1.3784912109374998
1.4630859374999998
1.53076171875
1.546875
1.574267578125
1.5766845703124999
1.619384765625
1.5944091796875
1.577490234375
1.5847412109374999
1.5436523437499998
1.5678222656249998
1.5726562499999999
1.525927734375
0.9224853515625
1.4751708984374998
1.638720703125
1.609716796875
1.6330810546874999
1.69833984375
1.770849609375
1.915869140625
1.65966796875
1.5082031249999999
1.4993408203124998
1.4800048828124999
1.53076171875
1.482421875
1.4953124999999998
1.5122314453124999
1.5114257812499998
1.4953124999999998
1.4574462890625
1.5194824218749998
1.5154541015624998
2.0294677734374997
1.7466796875
1.4800048828124999
1.52109375
1.4598632812499999
1.3744628906249998
1.2318603515625
1.2898681640624998
1.3237060546875
1.4598632812499999
1.52109375
1.52109375
1.496923828125
1.50498046875
1.529150390625
1.5186767578125
1.5605712890624999
1.5090087890625
1.525927734375
1.5243164062499999
1.5267333984375
0.95390625
1.2503906249999999
1.5968261718749999
1.5243164062499999
1.5887695312499999
1.651611328125
1.7531249999999998
1.998046875
1.6475830078125
1.4961181640624999
1.493701171875
1.480810546875
1.4920898437499999
1.4711425781249998
1.4791992187499998
1.4961181640624999
1.5017578125
1.4953124999999998
1.4961181640624999
1.5194824218749998
1.4977294921875
1.6564453124999998
1.9384277343749998
1.4840332031249999
1.4961181640624999
1.461474609375
1.3333740234375
1.3148437499999999
1.3180664062499998
1.3100097656249998
1.4348876953124998
1.482421875
1.5017578125
1.4719482421874999
1.4711425781249998
1.5492919921875
1.5186767578125
1.5597656249999998
1.52109375
1.5162597656249999
1.53720703125
1.5275390624999998
1.3188720703124999
1.0610595703124999
1.5645996093749999
1.5412353515625
1.538818359375
1.6427490234375
1.6645019531249998
2.0471923828125
1.7152587890625
1.5283447265624999
1.4461669921875
1.4630859374999998
1.5009521484375
1.5436523437499998
1.4864501953125
1.5082031249999999
1.4679199218749999
1.496923828125
1.51787109375
1.5170654296875
1.482421875
1.4880615234374999
1.9513183593749999
1.533984375
1.493701171875
1.4928955078125
1.4155517578124999
1.3873535156249999
1.224609375
1.2785888671874999
1.38896484375
1.4800048828124999
1.4961181640624999
1.4945068359375
1.533984375
1.5654052734375
1.509814453125
1.5162597656249999
1.51787109375
1.5194824218749998
1.4961181640624999
1.5146484375
1.522705078125
1.013525390625
1.51787109375
1.5782958984375
1.571044921875
1.5831298828125
1.5895751953125
1.7619873046874999
1.8095214843749998
1.5960205078124998
1.47275390625
1.506591796875
1.490478515625
1.513037109375
1.47275390625
1.4961181640624999
1.4912841796874998
1.4711425781249998
1.4953124999999998
1.5001464843749999
1.5267333984375
1.4767822265625
2.0407470703125
1.6177734375
1.4800048828124999
1.5009521484375
1.461474609375
1.4074951171874999
1.2495849609374998
1.268115234375
1.3398193359375
1.4816162109375
1.493701171875
1.5283447265624999
1.5170654296875
1.5275390624999998
1.51787109375
1.5186767578125
1.5670166015625
1.5355957031249998
1.5218994140625
1.5355957031249998
1.5114257812499998
0.9047607421874999
1.3825195312499998
1.5718505859374998
1.5283447265624999
1.574267578125
1.6451660156249999
1.85947265625
1.88525390625
1.6008544921874999
1.4945068359375
1.4711425781249998
1.4920898437499999
1.4888671875
1.4735595703125
1.490478515625
1.4953124999999998
1.4872558593749998
1.496923828125
1.5017578125
1.5186767578125
1.509814453125
1.8546386718749999
1.635498046875
1.4711425781249998
1.4961181640624999
1.4888671875
1.3954101562499999
1.3446533203125
1.27939453125
1.3269287109374999
1.4526123046875
1.4848388671875
1.49853515625
1.4928955078125
1.53076171875
1.533984375
1.5275390624999998
1.558154296875
1.546875
1.5331787109375
1.529150390625
1.509814453125
1.13115234375
1.3825195312499998
1.5734619140625
1.529150390625
1.5597656249999998
1.6137451171875
1.662890625
1.9891845703125
1.6040771484374998
1.5251220703125
1.4953124999999998
1.4800048828124999
1.5090087890625
1.5218994140625
1.506591796875
1.5106201171875
1.4880615234374999
1.4832275390624998
1.5009521484375
1.4864501953125
1.4711425781249998
1.783740234375
1.8006591796875
1.4872558593749998
1.4896728515625
1.480810546875
1.3792968749999999
1.4034667968749999
1.3180664062499998
1.3341796874999998
1.4091064453125
1.490478515625
1.5235107421874998
1.48564453125
1.506591796875
1.5251220703125
1.5589599609375
1.53076171875
1.5218994140625
1.513037109375
1.50498046875
1.5114257812499998
1.171435546875
1.16337890625
1.5525146484374999
1.5299560546875
1.558154296875
1.622607421875
1.6298583984375
1.9706542968749998
1.7080078125
1.5412353515625
1.496923828125
1.4719482421874999
1.48564453125
1.4961181640624999
1.5122314453124999
1.4832275390624998
1.4912841796874998
1.4791992187499998
1.5194824218749998
1.51787109375
1.490478515625
1.4912841796874998
1.996435546875
1.5525146484374999
1.5001464843749999
1.5025634765625
1.4510009765624998
1.3502929687499998
1.2955078125
1.3043701171875
1.413134765625
1.4759765624999999
1.4977294921875
1.50498046875
1.5355957031249998
1.538818359375
1.5323730468749999
1.4848388671875
1.5347900390625
1.5323730468749999
1.5122314453124999
1.53720703125
1.5194824218749998
0.9974121093749999
1.48564453125
1.5509033203125
1.53720703125
1.53720703125
1.6129394531249999
1.9779052734375
1.7797119140625
1.5766845703124999
1.4767822265625
1.4920898437499999
1.4840332031249999
1.5033691406249998
1.5090087890625
1.4961181640624999
1.4638916015624999
1.5082031249999999
1.4751708984374998
1.48564453125
1.4953124999999998
1.5186767578125
1.9787109374999998
1.5645996093749999
1.4751708984374998
1.5194824218749998
1.458251953125
1.3994384765624999
1.284228515625
1.2938964843749998
1.364794921875
1.4574462890625
1.509814453125
1.52109375
1.4993408203124998
1.5702392578125
1.5380126953125
1.5041748046874999
1.5138427734375
1.5404296874999999
1.5154541015624998
1.5275390624999998
1.513037109375
0.9716308593749999
1.4373046875
1.561376953125
1.5267333984375
1.5654052734375
1.63388671875
1.722509765625
1.828857421875
1.6177734375
1.5041748046874999
1.5057861328125
1.477587890625
1.49853515625
1.47275390625
1.4993408203124998
1.5114257812499998
1.4840332031249999
1.4816162109375
1.4872558593749998
1.5106201171875
1.4880615234374999
1.9585693359374998
1.7329833984374998
1.482421875
1.513037109375
1.458251953125
1.384130859375
1.2802001953125
1.2769775390625
1.3341796874999998
1.4219970703125
1.493701171875
1.522705078125
1.4953124999999998
1.538818359375
1.51787109375
1.5267333984375
1.5251220703125
1.5267333984375
1.513037109375
1.5267333984375
1.529150390625
1.018359375
1.2947021484374999
1.577490234375
1.5396240234374998
1.5396240234374998
1.6322753906249998
1.6822265625
1.9674316406249999
1.6572509765624999
1.5202880859374999
1.48564453125
1.4800048828124999
1.493701171875
1.4791992187499998
1.4840332031249999
1.4928955078125
1.4832275390624998
1.4896728515625
1.4816162109375
1.5170654296875
1.4840332031249999
1.5758789062499998
1.9053955078125
1.461474609375
1.4671142578124998
1.4791992187499998
1.3994384765624999
1.3881591796875
1.271337890625
1.3478759765625
1.4445556640625
1.4687255859375
1.4928955078125
1.4953124999999998
1.522705078125
1.5476806640624998
1.5315673828124998
1.5355957031249998
1.5525146484374999
1.529150390625
1.5090087890625
1.5170654296875
1.4091064453125
1.0513916015625
1.5702392578125
1.5355957031249998
1.522705078125
1.6185791015625
1.638720703125
1.98837890625
1.699951171875
1.513037109375
1.4800048828124999
1.4679199218749999
1.50498046875
1.509814453125
1.4848388671875
1.496923828125
1.458251953125
1.5009521484375
1.5001464843749999
1.5235107421874998
1.4953124999999998
1.4848388671875
1.9343994140624998
1.5251220703125
1.4791992187499998
1.5082031249999999
1.4638916015624999
1.38896484375
1.24716796875
1.3156494140625
1.4203857421875
1.4751708984374998
1.5138427734375
1.5251220703125
1.4961181640624999
1.6000488281249998
1.509814453125
1.525927734375
1.558154296875
1.506591796875
1.5033691406249998
1.52109375
1.5533203125
1.0489746093749999
1.5009521484375
1.5605712890624999
1.5541259765625
1.561376953125
1.6306640625
1.7926025390625
1.7635986328125
1.5428466796875
1.4719482421874999
1.4912841796874998
1.5194824218749998
1.5315673828124998
1.4920898437499999
1.493701171875
1.506591796875
1.4526123046875
1.4679199218749999
1.4832275390624998
1.5170654296875
1.513037109375
2.006103515625
1.6290527343749999
1.4977294921875
1.5235107421874998
1.4783935546875
1.384130859375
1.2866455078124999
1.3067871093749999
1.3543212890624998
1.477587890625
1.5009521484375
1.51787109375
1.4945068359375
1.538818359375
1.5235107421874998
1.5444580078124999
1.5235107421874998
1.5001464843749999
1.533984375
1.5347900390625
1.4896728515625
0.9861328125
1.3559326171875
1.5718505859374998
1.5202880859374999
1.5492919921875
1.6363037109374998
1.7418457031249999
1.9021728515624998
1.6379150390625
1.496923828125
1.47275390625
1.4888671875
1.490478515625
1.4872558593749998
1.4872558593749998
1.496923828125
1.5082031249999999
1.4800048828124999
1.496923828125
1.52109375
1.5025634765625
1.7490966796874998
1.6371093749999999
1.4397216796874999
1.4832275390624998
1.46953125
1.4115234374999999
1.3470703124999999
1.319677734375
1.368017578125
1.4518066406249999
1.480810546875
1.509814453125
1.5017578125
1.5396240234374998
1.5162597656249999
1.538818359375
1.5347900390625
1.522705078125
1.5541259765625
1.5517089843749998
1.5315673828124998
1.2342773437499999
1.3317626953125
1.5492919921875
1.558154296875
1.5492919921875
1.635498046875
1.6290527343749999
1.9569580078125
1.5944091796875
1.4912841796874998
1.477587890625
1.48564453125
1.4993408203124998
1.5090087890625
1.5146484375
1.4711425781249998
1.5057861328125
1.5033691406249998
1.5090087890625
1.5001464843749999
1.4872558593749998
1.6951171875
1.82724609375
1.4767822265625
1.4767822265625
1.4840332031249999
1.4058837890625
1.3905761718749998
1.3188720703124999
1.3261230468749998
1.4252197265625
1.5073974609374998
1.5243164062499999
1.5154541015624998
1.51787109375
1.529150390625
1.5396240234374998
1.554931640625
1.51787109375
1.5243164062499999
1.51787109375
1.48564453125
1.2802001953125
1.1375976562499999
1.558154296875
1.5782958984375
1.5323730468749999
1.60166015625
1.6008544921874999
1.9303710937499998
1.7394287109375
1.554931640625
1.4655029296875
1.4759765624999999
1.480810546875
1.4800048828124999
1.5090087890625
1.5001464843749999
1.5138427734375
1.4832275390624998
1.4816162109375
1.5138427734375
1.4953124999999998
1.4655029296875
1.996435546875
1.58232421875
1.4993408203124998
1.5202880859374999
1.464697265625
1.3833251953124999
1.2777832031249998
1.30517578125
1.4115234374999999
1.5001464843749999
1.50498046875
1.5138427734375
1.5073974609374998
1.5315673828124998
1.5315673828124998
1.53720703125
1.525927734375
1.558154296875
1.5347900390625
1.5460693359375
1.5323730468749999
0.9821044921875
1.4389160156249998
1.5645996093749999
1.5146484375
1.5573486328125
1.603271484375
1.9311767578124999
1.7772949218749998
1.513037109375
1.4679199218749999
1.4719482421874999
1.4953124999999998
1.5082031249999999
1.5162597656249999
1.509814453125
1.4880615234374999
1.474365234375
1.496923828125
1.5090087890625
1.4920898437499999
1.4953124999999998
1.9086181640625
1.590380859375
1.4791992187499998
1.4864501953125
1.4945068359375
1.4115234374999999
1.276171875
1.316455078125
1.3688232421875
1.4711425781249998
1.4953124999999998
1.5299560546875
1.522705078125
1.5428466796875
1.5218994140625
1.51787109375
1.5404296874999999
1.5017578125
1.4928955078125
1.5243164062499999
1.5154541015624998
0.9643798828125
1.461474609375
1.5992431640625
1.5605712890624999
1.5597656249999998
1.63388671875
1.7217041015624999
1.79501953125
1.5517089843749998
1.493701171875
1.45341796875
1.4767822265625
1.5041748046874999
1.4687255859375
1.5243164062499999
1.4896728515625
1.4888671875
1.5073974609374998
1.5033691406249998
1.506591796875
1.5082031249999999
1.8941162109374998
1.748291015625
1.4518066406249999
1.4711425781249998
1.4638916015624999
1.3792968749999999
1.2753662109375
1.3478759765625
1.3382080078124998
1.4638916015624999
1.5331787109375
1.5347900390625
1.5017578125
1.529150390625
1.5299560546875
1.5412353515625
1.5428466796875
1.5283447265624999
1.5194824218749998
1.5114257812499998
1.5138427734375
1.0650878906249999
1.2536132812499998
1.593603515625
1.5331787109375
1.5645996093749999
1.622607421875
1.65966796875
1.9513183593749999
1.641943359375
1.4961181640624999
1.474365234375
1.47275390625
1.493701171875
1.4953124999999998
1.5186767578125
1.5138427734375
1.506591796875
1.4759765624999999
1.5146484375
1.493701171875
1.5001464843749999
1.5355957031249998
1.9118408203125
1.47275390625
1.496923828125
1.4767822265625
1.40830078125
1.361572265625
1.3470703124999999
1.3470703124999999
1.445361328125
1.4977294921875
1.5186767578125
1.522705078125
1.5275390624999998
1.5396240234374998
1.5218994140625
1.5275390624999998
1.5090087890625
1.4864501953125
1.53720703125
1.5267333984375
1.5114257812499998
1.2511962890625
1.56943359375
1.5299560546875
1.5162597656249999
1.603271484375
1.5960205078124998
1.98515625
1.6008544921874999
1.4961181640624999
1.49853515625
1.513037109375
1.5162597656249999
1.5122314453124999
1.48564453125
1.4800048828124999
1.4469726562499998
1.4945068359375
1.4953124999999998
1.5122314453124999
1.4977294921875
1.5331787109375
1.9472900390624999
1.5404296874999999
1.4703369140625
1.4872558593749998
1.4389160156249998
1.4219970703125
1.2850341796875
1.3478759765625
1.3825195312499998
1.48564453125
1.5243164062499999
1.5162597656249999
1.5243164062499999
1.529150390625
1.5073974609374998
1.5347900390625
1.5509033203125
1.5283447265624999
1.50498046875
1.5218994140625
1.47275390625
1.0304443359375
1.4928955078125
1.577490234375
1.5404296874999999
1.593603515625
1.622607421875
1.931982421875
1.7539306640624999
1.5331787109375
1.49853515625
1.480810546875
1.4848388671875
1.4800048828124999
1.4993408203124998
1.5057861328125
1.5009521484375
1.493701171875
1.496923828125
1.5412353515625
1.5057861328125
1.47275390625
1.941650390625
1.6427490234375
1.4953124999999998
1.49853515625
1.474365234375
1.4026611328124998
1.264892578125
1.3341796874999998
1.3865478515624998
1.4719482421874999
1.5251220703125
1.5057861328125
1.477587890625
1.5323730468749999
1.5347900390625
1.5428466796875
1.525927734375
1.53720703125
1.529150390625
1.53076171875
1.5009521484375
1.0288330078124999
1.3559326171875
1.5565429687499999
1.5380126953125
1.5573486328125
1.6072998046875
1.7023681640625
1.8900878906249998
1.611328125
1.46953125
1.4961181640624999
1.482421875
1.4872558593749998
1.48564453125
1.5146484375
1.5090087890625
1.4912841796874998
1.4872558593749998
1.506591796875
1.5122314453124999
1.4977294921875
1.6781982421875
1.6572509765624999
1.4800048828124999
1.4880615234374999
1.4735595703125
1.4074951171874999
1.3575439453125
1.327734375
1.3494873046875
1.474365234375
1.5106201171875
1.4920898437499999
1.496923828125
1.5364013671874999
1.525927734375
1.4791992187499998
1.5251220703125
1.5573486328125
1.5525146484374999
1.5114257812499998
1.5170654296875
1.2914794921875
1.3704345703124998
1.5976318359375
1.51787109375
1.5557373046874998
1.6201904296874998
1.6483886718749998
1.9142578124999998
1.587158203125
1.4888671875
1.4816162109375
1.5057861328125
1.5090087890625
1.4993408203124998
1.5033691406249998
1.5267333984375
1.48564453125
1.493701171875
1.5017578125
1.49853515625
1.51787109375
1.603271484375
1.8465820312499999
1.5114257812499998
1.4945068359375
1.4912841796874998
1.4413330078125
1.3921875
1.3075927734375
1.3510986328124999
1.458251953125
1.5041748046874999
1.4920898437499999
1.4912841796874998
1.5323730468749999
1.5380126953125
1.5106201171875
1.513037109375
1.5170654296875
1.5057861328125
1.51787109375
1.525927734375
1.3510986328124999
1.15693359375
1.5267333984375
1.5299560546875
1.533984375
1.5984375
1.6451660156249999
1.9086181640625
1.6733642578124999
1.52109375
1.4783935546875
1.4912841796874998
1.4993408203124998
1.496923828125
1.5082031249999999
1.5202880859374999
1.4816162109375
1.4816162109375
1.5033691406249998
1.509814453125
1.5202880859374999
1.5073974609374998
1.96904296875
1.490478515625
1.4840332031249999
1.4920898437499999
1.4397216796874999
1.384130859375
1.30517578125
1.3591552734374999
1.4461669921875
1.474365234375
1.5162597656249999
1.5275390624999998
1.5073974609374998
1.5162597656249999
1.5162597656249999
1.53076171875
1.51787109375
1.5017578125
1.5114257812499998
1.522705078125
1.5355957031249998
1.02802734375
1.5533203125
1.5621826171875
1.5315673828124998
1.5734619140625
1.5984375
1.7474853515625
1.8240234375
1.522705078125
1.46953125
1.4719482421874999
1.4888671875
1.506591796875
1.5057861328125
1.509814453125
1.5041748046874999
1.4816162109375
1.5082031249999999
1.4961181640624999
1.4848388671875
1.5073974609374998
1.973876953125
1.5799072265624998
1.4671142578124998
1.4832275390624998
1.4671142578124998
1.3962158203125
1.31162109375
1.3704345703124998
1.377685546875
1.4655029296875
1.4896728515625
1.4872558593749998
1.496923828125
1.5782958984375
1.5726562499999999
1.5283447265624999
1.5573486328125
1.506591796875
1.4912841796874998
1.5017578125
1.5315673828124998
1.0320556640625
1.44052734375
1.577490234375
1.5364013671874999
1.5686279296874999
1.6209960937499999
1.6822265625
1.751513671875
1.5758789062499998
1.5009521484375
1.4751708984374998
1.5025634765625
1.5057861328125
1.4751708984374998
1.4977294921875
1.5009521484375
1.482421875
1.493701171875
1.5009521484375
1.4993408203124998
1.513037109375
1.7926025390625
1.74345703125
1.4679199218749999
1.4800048828124999
1.4630859374999998
1.413134765625
1.35673828125
1.329345703125
1.3599609375
1.4888671875
1.5041748046874999
1.5146484375
1.5017578125
1.5315673828124998
1.5090087890625
1.538818359375
1.5404296874999999
1.554931640625
1.51787109375
1.5017578125
1.5186767578125
1.1609619140625
1.2374999999999998
1.6024658203125
1.5082031249999999
1.545263671875
1.5911865234375
1.658056640625
1.8828369140624999
1.65966796875
1.4864501953125
1.474365234375
1.477587890625
1.5114257812499998
1.496923828125
1.4993408203124998
1.5009521484375
1.4759765624999999
1.5073974609374998
1.5146484375
1.522705078125
1.506591796875
1.5025634765625
1.7611816406249998
1.5033691406249998
1.4953124999999998
1.4912841796874998
1.405078125
1.3978271484375
1.32451171875
1.3607666015625
1.44052734375
1.4735595703125
1.5017578125
1.5041748046874999
1.5380126953125
1.5565429687499999
1.5082031249999999
1.5355957031249998
1.5082031249999999
1.5170654296875
1.5476806640624998
1.5323730468749999
1.5106201171875
1.216552734375
1.5605712890624999
1.5428466796875
1.561376953125
1.5799072265624998
1.5992431640625
1.8796142578125
1.6411376953124999
1.496923828125
1.474365234375
1.50498046875
1.4783935546875
1.5001464843749999
1.4791992187499998
1.5106201171875
1.5009521484375
1.4928955078125
1.5057861328125
1.513037109375
1.5082031249999999
1.509814453125
1.93359375
1.5678222656249998
1.482421875
1.4630859374999998
1.4373046875
1.4356933593749999
1.27939453125
1.327734375
1.393798828125
1.5106201171875
1.4961181640624999
1.5017578125
1.5122314453124999
1.5573486328125
1.545263671875
1.50498046875
1.5436523437499998
1.4993408203124998
1.5202880859374999
1.5114257812499998
1.5299560546875
1.0642822265625
1.4953124999999998
1.5492919921875
1.5299560546875
1.561376953125
1.6161621093749998
1.8457763671874998
1.71123046875
1.5476806640624998
1.5090087890625
1.4735595703125
1.496923828125
1.5057861328125
1.48564453125
1.5073974609374998
1.5186767578125
1.49853515625
1.4848388671875
1.5122314453124999
1.4953124999999998
1.4832275390624998
1.8973388671875
1.6556396484375
1.4848388671875
1.4993408203124998
1.458251953125
1.4268310546874998
1.2979248046874998
1.3478759765625
1.4244140625
1.4864501953125
1.5082031249999999
1.5243164062499999
1.5138427734375
1.56298828125
1.5146484375
1.5154541015624998
1.5243164062499999
1.5251220703125
1.5138427734375
1.5082031249999999
1.5001464843749999
1.071533203125
1.335791015625
1.5782958984375
1.5299560546875
1.5670166015625
1.5863525390625
1.635498046875
1.883642578125
1.5791015625
1.509814453125
1.506591796875
1.4896728515625
1.5122314453124999
1.4751708984374998
1.4953124999999998
1.5106201171875
1.5001464843749999
1.5082031249999999
1.5009521484375
1.4896728515625
1.509814453125
1.6056884765625
1.6798095703125
1.458251953125
1.4912841796874998
1.480810546875
1.40185546875
1.3921875
1.3583496093749998
1.3784912109374998
1.4445556640625
1.4703369140625
1.4945068359375
1.4993408203124998
1.5323730468749999
1.5162597656249999
1.5138427734375
1.546875
1.5492919921875
1.5460693359375
1.53720703125
1.5138427734375
1.1053710937499999
1.3172607421875
1.5621826171875
1.52109375
1.5557373046874998
1.5887695312499999
1.6161621093749998
1.8796142578125
1.6056884765625
1.509814453125
1.5025634765625
1.4945068359375
1.480810546875
1.46953125
1.493701171875
1.522705078125
1.4832275390624998
1.53076171875
1.529150390625
1.506591796875
1.4993408203124998
1.5605712890624999
1.8369140625
1.513037109375
1.5090087890625
1.4888671875
1.4300537109375
1.4115234374999999
1.3019531249999998
1.34384765625
1.4574462890625
1.4767822265625
1.5017578125
1.5146484375
1.52109375
1.5218994140625
1.5082031249999999
1.5412353515625
1.5436523437499998
1.5315673828124998
1.5154541015624998
1.522705078125
1.4244140625
1.1416259765624999
1.546875
1.5355957031249998
1.5299560546875
1.5766845703124999
1.6153564453125
1.8812255859375
1.6814208984374999
1.4953124999999998
1.4928955078125
1.47275390625
1.5025634765625
1.538818359375
1.4783935546875
1.5009521484375
1.4977294921875
1.4872558593749998
1.4840332031249999
1.477587890625
1.5001464843749999
1.4880615234374999
1.9376220703125
1.5275390624999998
1.5009521484375
1.493701171875
1.4703369140625
1.4526123046875
1.3204833984375
1.3623779296874998
1.4074951171874999
1.4622802734375
1.4840332031249999
1.4993408203124998
1.49853515625
1.5380126953125
1.5243164062499999
1.5355957031249998
1.5154541015624998
1.52109375
1.5243164062499999
1.5146484375
1.50498046875
1.110205078125
1.525927734375
1.546875
1.5251220703125
1.5718505859374998
1.593603515625
1.6943115234375
1.7499023437499999
1.5670166015625
1.482421875
1.480810546875
1.5082031249999999
1.5017578125
1.4872558593749998
1.5186767578125
1.5218994140625
1.4751708984374998
1.5154541015624998
1.50498046875
1.506591796875
1.4928955078125
1.915869140625
1.5839355468749998
1.4888671875
1.5138427734375
1.4888671875
1.4147460937499998
1.3011474609375
1.364794921875
1.3857421875
1.4832275390624998
1.4864501953125
1.5202880859374999
1.4840332031249999
1.5114257812499998
1.5323730468749999
1.5114257812499998
1.52109375
1.509814453125
1.52109375
1.5355957031249998
1.5331787109375
1.058642578125
1.3857421875
1.5726562499999999
1.4800048828124999
1.533984375
1.622607421875
1.7853515624999998
1.80791015625
1.5750732421875
1.5082031249999999
1.5041748046874999
1.4800048828124999
1.4961181640624999
1.496923828125
1.4993408203124998
1.480810546875
1.4920898437499999
1.5194824218749998
1.49853515625
1.5073974609374998
1.4896728515625
1.6862548828125
1.7571533203124998
1.4638916015624999
1.4912841796874998
1.4888671875
1.44052734375
1.393798828125
1.3309570312499999
1.393798828125
1.482421875
1.5017578125
1.5033691406249998
1.4783935546875
1.5057861328125
1.509814453125
1.5017578125
1.51787109375
1.545263671875
1.5428466796875
1.5090087890625
1.5146484375
1.2568359375
1.2415283203124998
1.571044921875
1.51787109375
1.5194824218749998
1.61455078125
1.65
1.8973388671875
1.6169677734374999
1.525927734375
1.4800048828124999
1.4840332031249999
1.5235107421874998
1.5138427734375
1.4800048828124999
1.5202880859374999
1.4711425781249998
1.4961181640624999
1.5017578125
1.4848388671875
1.5073974609374998
1.4953124999999998
1.77568359375
1.4953124999999998
1.49853515625
1.4872558593749998
1.4389160156249998
1.4058837890625
1.3744628906249998
1.380908203125
1.445361328125
1.4783935546875
1.4832275390624998
1.5122314453124999
1.5315673828124998
1.5186767578125
1.5025634765625
1.506591796875
1.509814453125
1.525927734375
1.5025634765625
1.509814453125
1.329345703125
1.1738525390624999
1.5380126953125
1.5557373046874998
1.585546875
1.6161621093749998
1.6137451171875
1.8618896484374998
1.670947265625
1.538818359375
1.5170654296875
1.482421875
1.4759765624999999
1.4961181640624999
1.4920898437499999
