1.5267333984375
1.506591796875
0.7001220703125
1.7055908203124999
1.558154296875
1.5355957031249998
1.6967285156249998
2.914892578125
2.3549560546875
1.5251220703125
1.4759765624999999
1.4638916015624999
1.4655029296875
1.48564453125
1.5275390624999998
1.5299560546875
1.5235107421874998
1.4993408203124998
1.45341796875
1.5057861328125
1.5017578125
1.4832275390624998
1.4945068359375
2.8464111328125
1.5734619140625
1.3954101562499999
1.5444580078124999
1.4300537109375
1.02802734375
1.0626708984375
0.8685058593749999
1.1158447265625
1.38896484375
1.4638916015624999
1.4945068359375
1.397021484375
1.4872558593749998
1.4953124999999998
1.5267333984375
1.5597656249999998
1.53076171875
1.545263671875
1.5404296874999999
1.5202880859374999
0.12568359375
1.493701171875
1.6105224609375
1.5218994140625
1.5919921874999998
2.7996826171875
2.1519287109375
1.5678222656249998
1.513037109375
1.4735595703125
1.4711425781249998
1.4767822265625
1.5460693359375
1.5267333984375
1.5484863281249999
1.480810546875
1.4912841796874998
1.5170654296875
1.5033691406249998
1.482421875
1.4751708984374998
2.5330078124999997
1.6572509765624999
1.3704345703124998
1.56943359375
1.4719482421874999
0.8773681640625
1.3510986328124999
0.913623046875
1.0642822265625
1.377685546875
1.4437499999999999
1.474365234375
1.3994384765624999
1.47275390625
1.5073974609374998
1.5057861328125
1.58232421875
1.5484863281249999
1.53720703125
1.51787109375
1.5186767578125
0.3053466796875
1.4058837890625
1.7023681640625
1.4888671875
1.6024658203125
2.4081298828124997
2.7191162109375
1.7611816406249998
1.51787109375
1.46953125
1.4832275390624998
1.4800048828124999
1.5106201171875
1.5637939453124998
1.5380126953125
1.5090087890625
1.4550292968749998
1.493701171875
1.5025634765625
1.5041748046874999
1.496923828125
2.358984375
2.2115478515625
1.3833251953124999
1.5194824218749998
1.4928955078125
1.0385009765625
1.4219970703125
0.8499755859375
0.9643798828125
1.2584472656249999
1.4203857421875
1.4783935546875
1.482421875
1.36962890625
1.4920898437499999
1.522705078125
1.5734619140625
1.5275390624999998
1.5202880859374999
1.5251220703125
1.5106201171875
0.5349609375
0.72509765625
1.7200927734375
1.5025634765625
1.5525146484374999
1.7394287109375
2.995458984375
1.972265625
1.5380126953125
1.482421875
1.4679199218749999
1.47275390625
1.490478515625
1.5364013671874999
1.5541259765625
1.5251220703125
1.474365234375
1.496923828125
1.506591796875
1.4864501953125
1.5041748046874999
1.4977294921875
2.8375488281249996
1.3583496093749998
1.4630859374999998
1.5428466796875
1.2568359375
1.2906738281249999
1.0223876953125
0.84755859375
1.2342773437499999
1.44052734375
1.46630859375
1.4783935546875
1.3672119140624999
1.4928955078125
1.4993408203124998
1.525927734375
1.59521484375
1.53720703125
1.5476806640624998
1.5444580078124999
1.5251220703125
0.136962890625
1.67578125
1.5807128906249999
1.5218994140625
1.7200927734375
2.9994873046875
2.102783203125
1.5436523437499998
1.5194824218749998
1.4783935546875
1.461474609375
1.4711425781249998
1.5428466796875
1.5251220703125
1.5315673828124998
1.4542236328125
1.482421875
1.5106201171875
1.4928955078125
1.4800048828124999
1.5041748046874999
2.8415771484374996
1.6089111328124999
1.4091064453125
1.5243164062499999
1.4332763671875
0.93779296875
1.281005859375
0.8668945312499999
1.0981201171875
1.3921875
1.4542236328125
1.4961181640624999
1.393798828125
1.4953124999999998
1.5041748046874999
1.5331787109375
1.593603515625
1.5186767578125
1.51787109375
1.55009765625
1.493701171875
0.0604248046875
1.4590576171874998
1.6886718749999998
1.5315673828124998
1.6532226562499999
2.070556640625
2.43310546875
1.65
1.5243164062499999
1.4832275390624998
1.4791992187499998
1.47275390625
1.5082031249999999
1.542041015625
1.5525146484374999
1.5033691406249998
1.448583984375
1.49853515625
1.5154541015624998
1.5194824218749998
1.464697265625
2.4580810546875
2.0898925781249997
1.351904296875
1.5186767578125
1.493701171875
0.958740234375
1.303564453125
0.8515869140625
1.0006347656249999
1.353515625
1.4356933593749999
1.4832275390624998
1.482421875
1.4574462890625
1.490478515625
1.5017578125
1.5847412109374999
1.5428466796875
1.5243164062499999
1.5509033203125
1.5090087890625
0.44633789062499996
0.829833984375
1.71123046875
1.52109375
1.5492919921875
2.1454833984375
2.866552734375
1.80791015625
1.5267333984375
1.46953125
1.46630859375
1.4800048828124999
1.4993408203124998
1.5436523437499998
1.5428466796875
1.5033691406249998
1.4655029296875
1.4961181640624999
1.5122314453124999
1.477587890625
1.4993408203124998
1.5025634765625
2.2421630859375
1.377685546875
1.4598632812499999
1.5106201171875
1.2802001953125
1.2818115234374998
1.06025390625
0.9466552734375
1.2479736328125
1.448583984375
1.47275390625
1.474365234375
1.3607666015625
1.5243164062499999
1.522705078125
1.5299560546875
1.593603515625
1.53076171875
1.522705078125
1.5323730468749999
1.5146484375
0.7001220703125
1.7184814453125
1.533984375
1.53076171875
1.7072021484375
2.99384765625
2.2389404296874997
1.545263671875
1.4864501953125
1.4767822265625
1.47275390625
1.493701171875
1.5492919921875
1.5436523437499998
1.529150390625
1.4767822265625
1.4791992187499998
1.5073974609374998
1.4888671875
1.4872558593749998
1.4928955078125
2.8166015625
1.5654052734375
1.4574462890625
1.5533203125
1.4284423828125
0.9063720703125
1.13115234375
0.8749511718749999
1.134375
1.413134765625
1.4518066406249999
1.5025634765625
1.36962890625
1.5194824218749998
1.5017578125
1.55009765625
1.5484863281249999
1.5186767578125
1.5194824218749998
1.53076171875
1.51787109375
0.059619140625
1.4791992187499998
1.611328125
1.5218994140625
1.6282470703124998
2.8464111328125
2.373486328125
1.6306640625
1.5073974609374998
1.482421875
1.4888671875
1.482421875
1.5364013671874999
1.5412353515625
1.5444580078124999
1.49853515625
1.4437499999999999
1.5033691406249998
1.493701171875
1.4703369140625
1.4953124999999998
2.5491210937499997
1.6403320312499998
1.380908203125
1.5218994140625
1.4477783203124999
0.9249023437499999
1.3317626953125
0.8701171875
1.1053710937499999
1.3736572265625
1.4622802734375
1.5033691406249998
1.40185546875
1.4671142578124998
1.493701171875
1.5460693359375
1.590380859375
1.5444580078124999
1.5235107421874998
1.5347900390625
1.5041748046874999
0.31904296875
1.3873535156249999
1.706396484375
1.5202880859374999
1.6266357421875
1.944873046875
2.91650390625
1.8868652343749999
1.5396240234374998
1.46953125
1.46630859375
1.4767822265625
1.50498046875
1.5267333984375
1.5460693359375
1.490478515625
1.4759765624999999
1.4961181640624999
1.5033691406249998
1.4767822265625
1.4961181640624999
2.3485107421875
2.1591796875
1.3728515625
1.5243164062499999
1.4920898437499999
1.1448486328125
1.3873535156249999
0.9337646484375
0.9514892578124999
1.2697265624999998
1.4542236328125
1.482421875
1.477587890625
1.3720458984375
1.4888671875
1.5267333984375
1.53076171875
1.56298828125
1.5347900390625
1.5299560546875
1.5218994140625
0.5406005859374999
0.8056640625
1.71123046875
1.5009521484375
1.5525146484374999
1.7507080078125
2.9978759765625
1.8071044921875
1.529150390625
1.493701171875
1.4840332031249999
1.4655029296875
1.480810546875
1.5654052734375
1.5492919921875
1.525927734375
1.5025634765625
1.4961181640624999
1.4977294921875
1.4848388671875
1.4800048828124999
1.4848388671875
2.7674560546875
1.393798828125
1.4687255859375
1.5444580078124999
1.426025390625
1.4010498046875
1.0658935546875
0.8846191406249999
1.2616699218749998
1.400244140625
1.4493896484375
1.4880615234374999
1.38896484375
1.50498046875
1.4920898437499999
1.5476806640624998
1.5654052734375
1.533984375
1.525927734375
1.533984375
1.5114257812499998
0.1152099609375
1.7410400390624998
1.6089111328124999
1.5082031249999999
1.7080078125
2.9124755859375
2.3050048828125
1.6048828124999999
1.49853515625
1.4703369140625
1.4832275390624998
1.490478515625
1.5299560546875
1.546875
1.53720703125
1.490478515625
1.445361328125
1.5009521484375
1.4848388671875
1.4888671875
1.490478515625
2.8423828125
1.61455078125
1.38896484375
1.53720703125
1.442138671875
0.9434326171874999
1.2705322265624999
0.87333984375
1.1053710937499999
1.3768798828125
1.4526123046875
1.4928955078125
1.40185546875
1.4783935546875
1.4953124999999998
1.5364013671874999
1.5992431640625
1.5355957031249998
1.4993408203124998
1.5283447265624999
1.5315673828124998
0.069287109375
1.4606689453125
1.6951171875
1.4945068359375
1.6089111328124999
2.3235351562499997
2.370263671875
1.6218017578125
1.5380126953125
1.482421875
1.4638916015624999
1.4759765624999999
1.5106201171875
1.522705078125
1.53720703125
1.4800048828124999
1.4872558593749998
1.5114257812499998
1.5009521484375
1.4888671875
1.496923828125
2.4451904296875
2.0947265625
1.3744628906249998
1.545263671875
1.4687255859375
0.9772705078124999
1.3712402343749999
0.9337646484375
0.9498779296875
1.3656005859375
1.4469726562499998
1.4864501953125
1.4155517578124999
1.4977294921875
1.4550292968749998
1.5017578125
1.5879638671874998
1.5154541015624998
1.55009765625
1.5460693359375
1.525927734375
0.3988037109375
0.84111328125
1.716064453125
1.5090087890625
1.5944091796875
2.1889892578125
2.811767578125
1.815966796875
1.5299560546875
1.48564453125
1.4912841796874998
1.477587890625
1.5090087890625
1.5678222656249998
1.5436523437499998
1.5009521484375
1.448583984375
1.4735595703125
1.506591796875
1.4928955078125
1.4961181640624999
1.5154541015624998
2.189794921875
1.393798828125
1.461474609375
1.5017578125
0.9885498046875
1.4542236328125
0.8693115234375
0.994189453125
1.264892578125
1.4058837890625
1.4880615234374999
1.4735595703125
1.3873535156249999
1.493701171875
1.522705078125
1.56298828125
1.5492919921875
1.5202880859374999
1.546875
1.5299560546875
0.6123046875
0.7371826171875
1.75634765625
1.5533203125
1.5541259765625
1.7023681640625
2.947119140625
1.925537109375
1.5380126953125
1.4888671875
1.4791992187499998
1.4711425781249998
1.480810546875
1.5444580078124999
1.558154296875
1.5380126953125
1.4888671875
1.4767822265625
1.5033691406249998
1.4848388671875
1.4872558593749998
1.490478515625
2.8012939453124996
1.5718505859374998
1.4832275390624998
1.533984375
1.4155517578124999
1.24072265625
1.0803955078125
0.8749511718749999
1.1287353515625
1.4308593749999998
1.4671142578124998
1.5041748046874999
1.3510986328124999
1.4920898437499999
1.4977294921875
1.5283447265624999
1.585546875
1.49853515625
1.5404296874999999
1.5355957031249998
1.4977294921875
0.1490478515625
1.5347900390625
1.6161621093749998
1.4945068359375
1.6153564453125
3.0002929687499997
2.1922119140625
1.5637939453124998
1.50498046875
1.461474609375
1.4622802734375
1.4783935546875
1.5380126953125
1.5243164062499999
1.5364013671874999
1.4638916015624999
1.4945068359375
1.5057861328125
1.4961181640624999
1.4791992187499998
1.4791992187499998
2.6441894531249996
1.619384765625
1.3865478515624998
1.5251220703125
1.4437499999999999
0.9063720703125
1.3285400390625
0.94423828125
1.087646484375
1.3607666015625
1.432470703125
1.4791992187499998
1.4058837890625
1.4993408203124998
1.4888671875
1.5283447265624999
1.5863525390625
1.5114257812499998
1.5637939453124998
1.525927734375
1.5154541015624998
0.053173828124999996
1.413134765625
1.683837890625
1.5275390624999998
1.6491943359374999
2.247802734375
2.7505371093749997
1.6443603515624998
1.529150390625
1.4759765624999999
1.4864501953125
1.474365234375
1.522705078125
1.55009765625
1.5412353515625
1.4977294921875
1.4510009765624998
1.49853515625
1.490478515625
1.4880615234374999
1.496923828125
2.450830078125
2.0923095703125
1.3446533203125
1.5283447265624999
1.49853515625
1.0868408203125
1.4356933593749999
0.8604492187499999
0.9982177734375
1.276171875
1.4276367187499999
1.4751708984374998
1.47275390625
1.4058837890625
1.4888671875
1.506591796875
1.545263671875
1.5267333984375
1.545263671875
1.5347900390625
1.5194824218749998
0.502734375
0.825
1.714453125
1.5186767578125
1.5589599609375
1.719287109375
2.979345703125
1.9521240234375
1.55009765625
1.5009521484375
1.47275390625
1.4711425781249998
1.482421875
1.5355957031249998
1.5484863281249999
1.5275390624999998
1.456640625
1.4920898437499999
1.5073974609374998
1.49853515625
1.496923828125
1.4961181640624999
2.7585937499999997
1.3962158203125
1.44052734375
1.52109375
1.2914794921875
1.181103515625
1.0916748046875
0.8870361328124999
1.2576416015624998
1.4445556640625
1.46953125
1.490478515625
1.3527099609375
1.490478515625
1.5162597656249999
1.5436523437499998
1.571044921875
1.542041015625
1.5428466796875
1.5154541015624998
1.490478515625
0.6670898437499999
1.7047851562499998
1.593603515625
1.5323730468749999
1.6967285156249998
3.0010986328125
2.0745849609375
1.53076171875
1.5025634765625
1.4735595703125
1.4711425781249998
1.4888671875
1.5557373046874998
1.5283447265624999
1.533984375
1.474365234375
1.4791992187499998
1.506591796875
1.4945068359375
1.490478515625
1.490478515625
2.8415771484374996
1.56943359375
1.4010498046875
1.5428466796875
1.44052734375
0.8991210937499999
1.147265625
0.8507812499999999
1.126318359375
1.3639892578125
1.4622802734375
1.4735595703125
1.38896484375
1.5057861328125
1.5033691406249998
1.5331787109375
1.5678222656249998
1.5194824218749998
1.525927734375
1.5444580078124999
1.5251220703125
0.0684814453125
1.4864501953125
1.6967285156249998
1.5106201171875
1.6314697265625
2.0020751953125
2.5201171875
1.67900390625
1.5283447265624999
1.456640625
1.4767822265625
1.493701171875
1.522705078125
1.5436523437499998
1.545263671875
1.5082031249999999
1.4671142578124998
1.4993408203124998
1.5146484375
1.477587890625
1.5082031249999999
2.5531494140624997
2.03671875
1.36962890625
1.5364013671874999
1.482421875
1.00224609375
1.2624755859374999
0.8548095703124999
1.0094970703125
1.364794921875
1.4308593749999998
1.4872558593749998
1.4800048828124999
1.4832275390624998
1.4800048828124999
1.4920898437499999
1.5927978515624999
1.53720703125
1.533984375
1.5243164062499999
1.4993408203124998
0.323876953125
0.978076171875
1.6927001953124998
1.4703369140625
1.53076171875
2.152734375
2.8456054687499996
1.812744140625
1.53720703125
1.4840332031249999
1.4759765624999999
1.4751708984374998
1.49853515625
1.533984375
1.5476806640624998
1.5194824218749998
1.4679199218749999
1.4896728515625
1.506591796875
1.546875
1.5267333984375
1.5033691406249998
2.1599853515625
1.351904296875
1.4518066406249999
1.461474609375
1.2753662109375
1.2576416015624998
1.0505859375
0.9402099609375
1.26005859375
1.445361328125
1.4840332031249999
1.477587890625
1.3543212890624998
1.5001464843749999
1.529150390625
1.5355957031249998
1.5686279296874999
1.5299560546875
1.5404296874999999
1.5218994140625
1.4630859374999998
0.7718261718749999
1.7208984374999998
1.5678222656249998
1.5525146484374999
1.8296630859374998
2.9922363281249997
1.9513183593749999
1.50498046875
1.4920898437499999
1.4832275390624998
1.4767822265625
1.4993408203124998
1.545263671875
1.5364013671874999
1.5347900390625
1.490478515625
1.4816162109375
1.493701171875
1.4888671875
1.477587890625
1.5138427734375
2.760205078125
1.5323730468749999
1.4671142578124998
1.554931640625
1.4171630859375
1.335791015625
1.1077880859375
0.8950927734374999
1.1319580078125
1.397021484375
1.4469726562499998
1.4953124999999998
1.3825195312499998
1.490478515625
1.496923828125
1.5807128906249999
1.533984375
1.5267333984375
1.53720703125
1.496923828125
1.5218994140625
0.127294921875
1.5919921874999998
1.6242187499999998
1.542041015625
1.5807128906249999
2.8141845703125
2.38154296875
1.6346923828125
1.5041748046874999
1.47275390625
1.4735595703125
1.482421875
1.558154296875
1.53720703125
1.5533203125
1.4880615234374999
1.4542236328125
1.4977294921875
1.4864501953125
1.4880615234374999
1.49853515625
2.65869140625
1.5960205078124998
1.3873535156249999
1.529150390625
1.445361328125
0.9071777343749999
1.316455078125
0.8693115234375
1.1134277343749999
1.3736572265625
1.4429443359374998
1.4920898437499999
1.3929931640625
1.4800048828124999
1.4816162109375
1.5154541015624998
1.5992431640625
1.542041015625
1.5331787109375
1.5621826171875
1.5364013671874999
0.054785156249999994
1.461474609375
1.7176757812499999
1.5017578125
1.6081054687499998
2.4967529296874997
2.6707763671875
1.585546875
1.5347900390625
1.4791992187499998
1.47275390625
1.46953125
1.5186767578125
1.5001464843749999
1.5509033203125
1.4880615234374999
1.4687255859375
1.509814453125
1.5106201171875
1.4945068359375
1.4880615234374999
2.441162109375
2.1164794921875
1.37607421875
1.5283447265624999
1.46630859375
1.2189697265625
1.3583496093749998
0.9289306640624999
0.9659912109375
1.2745605468749999
1.445361328125
1.4848388671875
1.4574462890625
1.448583984375
1.490478515625
1.5323730468749999
1.5782958984375
1.5380126953125
1.5364013671874999
1.558154296875
1.5267333984375
0.4189453125
0.8668945312499999
1.6975341796874999
1.5194824218749998
1.561376953125
1.748291015625
2.8319091796875
1.8151611328125
1.5347900390625
1.48564453125
1.474365234375
1.4711425781249998
1.513037109375
1.5678222656249998
1.5460693359375
1.5275390624999998
1.4477783203124999
1.480810546875
1.5073974609374998
1.496923828125
1.4848388671875
1.5090087890625
2.2131591796875
1.3865478515624998
1.43408203125
1.546875
1.10859375
1.4413330078125
1.044140625
0.9812988281249999
1.2463623046874999
1.40830078125
1.4598632812499999
1.4719482421874999
1.3954101562499999
1.513037109375
1.522705078125
1.5565429687499999
1.5315673828124998
1.53076171875
1.546875
1.5243164062499999
1.4816162109375
0.7234863281249999
1.7289550781249998
1.5734619140625
1.5404296874999999
1.7152587890625
2.9608154296875
2.2905029296875
1.5412353515625
1.4816162109375
1.45341796875
1.46953125
1.493701171875
1.5492919921875
1.5597656249999998
1.5283447265624999
1.4945068359375
1.4501953125
1.496923828125
1.493701171875
1.4912841796874998
1.496923828125
2.795654296875
1.5484863281249999
1.456640625
1.546875
1.4348876953124998
0.9152343749999999
1.0973144531249999
0.8822021484375
1.1295410156249999
1.4228027343749998
1.4638916015624999
1.496923828125
1.3881591796875
1.4953124999999998
1.5090087890625
1.5218994140625
1.585546875
1.5404296874999999
1.5251220703125
1.5186767578125
1.5194824218749998
0.143408203125
1.5009521484375
1.603271484375
1.5001464843749999
1.6137451171875
2.9970703125
2.0600830078125
1.538818359375
1.5436523437499998
1.477587890625
1.461474609375
1.4832275390624998
1.5484863281249999
1.522705078125
1.546875
1.47275390625
1.493701171875
1.513037109375
1.5017578125
1.4896728515625
1.4928955078125
2.5563720703125
1.6508056640625
1.3833251953124999
1.5267333984375
1.4518066406249999
0.952294921875
1.3591552734374999
0.8886474609374999
1.1021484375
1.3688232421875
1.4308593749999998
1.4848388671875
1.41796875
1.4848388671875
1.4864501953125
1.5162597656249999
1.5831298828125
1.545263671875
1.538818359375
1.5654052734375
1.5275390624999998
0.041088867187499996
1.3986328124999998
1.69189453125
1.5090087890625
1.6056884765625
1.9601806640625
2.8915283203124997
1.699951171875
1.538818359375
1.480810546875
1.4953124999999998
1.496923828125
1.52109375
1.5380126953125
1.5428466796875
1.5082031249999999
1.464697265625
1.4977294921875
1.4977294921875
1.4888671875
1.4993408203124998
2.354150390625
2.1632080078125
1.3817138671875
1.509814453125
1.477587890625
1.281005859375
1.3929931640625
0.8934814453125
0.9893554687499999
1.2584472656249999
1.4308593749999998
1.4655029296875
1.4687255859375
1.45341796875
1.4912841796874998
1.5106201171875
1.55009765625
1.5541259765625
1.5412353515625
1.5412353515625
1.4993408203124998
0.48662109374999996
0.791162109375
1.7120361328125
1.5122314453124999
1.5573486328125
1.740234375
2.9527587890625
1.9392333984374999
1.5323730468749999
1.4800048828124999
1.4816162109375
1.5017578125
1.4872558593749998
1.545263671875
1.5484863281249999
1.52109375
1.4655029296875
1.4783935546875
1.496923828125
1.46630859375
1.461474609375
1.4961181640624999
2.7803466796875
1.3962158203125
1.456640625
1.542041015625
1.1819091796874999
1.397021484375
1.039306640625
0.8531982421875
1.2447509765625
1.429248046875
1.4558349609374999
1.4800048828124999
1.351904296875
1.49853515625
1.5283447265624999
1.522705078125
1.5968261718749999
1.529150390625
1.5428466796875
1.51787109375
1.5186767578125
0.6614501953124999
1.7176757812499999
1.585546875
1.5154541015624998
1.7088134765624998
3.0002929687499997
2.164013671875
1.5186767578125
1.4872558593749998
1.4767822265625
1.4735595703125
1.4832275390624998
1.5476806640624998
1.5267333984375
1.5380126953125
1.4477783203124999
1.4800048828124999
1.5082031249999999
1.48564453125
1.4800048828124999
1.5162597656249999
2.8697753906249996
1.5895751953125
1.3897705078125
1.5323730468749999
1.46630859375
0.9112060546874999
1.1384033203125
0.84755859375
1.110205078125
1.3792968749999999
1.4622802734375
1.4880615234374999
1.3921875
1.506591796875
1.5009521484375
1.53720703125
1.5791015625
1.5323730468749999
1.5331787109375
1.5380126953125
1.4864501953125
0.0443115234375
1.4558349609374999
1.6403320312499998
1.5299560546875
1.6693359374999999
2.241357421875
2.3638183593749997
1.6250244140624999
1.5194824218749998
1.464697265625
1.4800048828124999
1.477587890625
1.5347900390625
1.53076171875
1.5476806640624998
1.5017578125
1.4477783203124999
1.5114257812499998
1.4928955078125
1.496923828125
1.4961181640624999
2.4613037109375
1.6927001953124998
1.37607421875
1.5283447265624999
1.46630859375
0.8918701171875
1.3543212890624998
0.8660888671875
1.09248046875
1.3341796874999998
1.4284423828125
1.4840332031249999
1.3994384765624999
1.4550292968749998
1.493701171875
1.529150390625
1.5686279296874999
1.5347900390625
1.522705078125
1.5355957031249998
1.538818359375
0.3585205078125
1.3792968749999999
1.7217041015624999
1.4977294921875
1.6161621093749998
2.21396484375
2.834326171875
1.8151611328125
1.5380126953125
1.4759765624999999
1.4679199218749999
1.477587890625
1.4953124999999998
1.52109375
1.5355957031249998
1.4928955078125
1.4356933593749999
1.46953125
1.4920898437499999
1.5041748046874999
1.5194824218749998
2.244580078125
2.23330078125
1.3913818359374999
1.5396240234374998
1.4920898437499999
1.284228515625
1.1980224609374999
0.9555175781249999
0.9450439453124999
1.2495849609374998
1.456640625
1.4687255859375
1.4848388671875
1.3712402343749999
1.4928955078125
1.50498046875
1.5090087890625
1.5565429687499999
1.5847412109374999
1.529150390625
1.5275390624999998
0.6517822265625
0.7194580078124999
1.7072021484375
1.5243164062499999
1.5436523437499998
1.7289550781249998
2.89716796875
1.8264404296874999
1.5243164062499999
1.490478515625
1.47275390625
1.4840332031249999
1.49853515625
1.5541259765625
1.5396240234374998
1.5202880859374999
1.4429443359374998
1.4816162109375
1.5082031249999999
1.4993408203124998
1.5114257812499998
1.5235107421874998
2.7948486328124997
1.405078125
1.456640625
1.5364013671874999
1.3027587890624999
1.2737548828124998
1.15693359375
0.8709228515624999
1.2181640624999999
1.4034667968749999
1.4501953125
1.477587890625
1.3954101562499999
1.5275390624999998
1.4872558593749998
1.5911865234375
1.5355957031249998
1.53076171875
1.5202880859374999
1.509814453125
1.5090087890625
0.12165527343749999
1.6588623046875
1.5960205078124998
1.5162597656249999
1.6830322265625
2.9358398437499997
2.30419921875
1.6129394531249999
1.4920898437499999
1.4671142578124998
1.4767822265625
1.506591796875
1.5404296874999999
1.533984375
1.5283447265624999
1.4872558593749998
1.4445556640625
1.490478515625
1.4912841796874998
1.4888671875
1.4888671875
2.8576904296874996
1.622607421875
1.3849365234375
1.5525146484374999
1.41796875
0.9176513671875
1.313232421875
0.897509765625
1.132763671875
1.36962890625
1.44052734375
1.4848388671875
1.400244140625
1.4880615234374999
1.513037109375
1.525927734375
1.60166015625
1.5186767578125
1.5315673828124998
1.525927734375
1.5114257812499998
0.049951171875
1.4308593749999998
1.6886718749999998
1.533984375
1.6048828124999999
2.2187988281249997
2.795654296875
1.625830078125
1.522705078125
1.4735595703125
1.4590576171874998
1.4711425781249998
1.5114257812499998
1.5138427734375
1.538818359375
1.4977294921875
1.480810546875
1.5122314453124999
1.5122314453124999
1.4993408203124998
1.5025634765625
2.3557617187499997
2.1052001953125
1.37607421875
1.5444580078124999
1.5082031249999999
1.2785888671874999
1.2286376953125
0.98291015625
0.9869384765625
1.35673828125
1.4373046875
1.4606689453125
1.4800048828124999
1.4510009765624998
1.49853515625
1.5243164062499999
1.5702392578125
1.5484863281249999
1.5597656249999998
1.56298828125
1.53076171875
0.5406005859374999
0.845947265625
1.6959228515625
1.4993408203124998
1.5090087890625
1.6781982421875
2.769873046875
1.7797119140625
1.5428466796875
1.48564453125
1.493701171875
1.4816162109375
1.4896728515625
1.56943359375
1.5533203125
1.5251220703125
1.4461669921875
1.4679199218749999
1.5170654296875
1.5122314453124999
1.4977294921875
1.4783935546875
2.7972656249999996
1.40830078125
1.429248046875
1.5041748046874999
1.2044677734375
1.3897705078125
1.036083984375
0.8967041015624999
1.2673095703125
1.4284423828125
1.4606689453125
1.48564453125
1.368017578125
1.5146484375
1.4961181640624999
1.5645996093749999
1.5267333984375
1.5436523437499998
1.5645996093749999
1.5347900390625
1.5082031249999999
0.198193359375
1.7466796875
1.585546875
1.5082031249999999
1.6153564453125
2.8157958984375
2.2880859375
1.5750732421875
1.4542236328125
1.4550292968749998
1.4759765624999999
1.5001464843749999
1.5460693359375
1.5162597656249999
1.5557373046874998
1.5138427734375
1.5001464843749999
1.5275390624999998
1.480810546875
1.4767822265625
1.4800048828124999
2.69736328125
1.5911865234375
1.432470703125
1.5670166015625
1.4332763671875
0.9643798828125
1.2012451171875
0.8564208984374999
1.1214843749999999
1.3704345703124998
1.405078125
1.480810546875
1.4356933593749999
1.533984375
1.5186767578125
1.5323730468749999
1.6008544921874999
1.52109375
1.5517089843749998
1.529150390625
1.5090087890625
0.19013671875
1.5082031249999999
1.69189453125
1.56298828125
1.5589599609375
2.1060058593749997
2.8061279296875
1.7934082031249998
1.533984375
1.4671142578124998
1.47275390625
1.4598632812499999
1.5025634765625
1.4896728515625
1.525927734375
1.4872558593749998
1.5001464843749999
1.5162597656249999
1.506591796875
1.48564453125
1.5009521484375
2.50400390625
2.03994140625
1.3365966796875
1.4356933593749999
1.4687255859375
1.2205810546875
1.3253173828125
0.9144287109375
0.9716308593749999
1.281005859375
1.4501953125
1.4928955078125
1.47275390625
1.4219970703125
1.5162597656249999
1.52109375
1.533984375
1.5557373046874998
1.4961181640624999
1.5331787109375
1.5251220703125
0.391552734375
0.926513671875
1.7394287109375
1.5460693359375
1.5734619140625
1.74345703125
2.98740234375
1.85947265625
1.5186767578125
1.46953125
1.5283447265624999
1.4655029296875
1.4920898437499999
1.5718505859374998
1.558154296875
1.5194824218749998
1.4840332031249999
1.4687255859375
1.4864501953125
1.4953124999999998
1.4872558593749998
1.5243164062499999
2.6699707031249997
1.482421875
1.4598632812499999
1.5444580078124999
1.3849365234375
1.3857421875
1.039306640625
0.929736328125
1.187548828125
1.4034667968749999
1.4630859374999998
1.5235107421874998
1.3728515625
1.490478515625
1.5057861328125
1.5484863281249999
1.5347900390625
1.5347900390625
1.5678222656249998
1.5315673828124998
1.4840332031249999
0.2199462890625
1.6072998046875
1.6137451171875
1.546875
1.6411376953124999
2.8915283203124997
2.2913085937499997
1.5968261718749999
1.4977294921875
1.4606689453125
1.4800048828124999
1.5194824218749998
1.5726562499999999
1.5331787109375
1.529150390625
1.461474609375
1.3728515625
1.4195800781249999
1.4445556640625
1.4638916015624999
1.474365234375
2.76181640625
1.5831298828125
1.4252197265625
1.545263671875
1.4501953125
0.9555175781249999
1.313232421875
0.8910644531249999
1.1432373046875
1.3978271484375
1.46630859375
1.490478515625
1.3978271484375
1.4872558593749998
1.513037109375
1.5138427734375
1.5766845703124999
1.5380126953125
1.53720703125
1.5428466796875
1.546875
0.11762695312499999
1.5299560546875
1.6685302734374998
1.5138427734375
1.6330810546874999
2.6288818359375
2.6111572265625
1.7047851562499998
1.5170654296875
1.4445556640625
1.4630859374999998
1.4751708984374998
1.5114257812499998
1.4864501953125
1.5114257812499998
1.4461669921875
1.4840332031249999
1.5202880859374999
1.4912841796874998
1.4872558593749998
1.496923828125
2.5458984375
2.0254394531249997
1.348681640625
1.477587890625
1.46630859375
1.224609375
1.3237060546875
0.8983154296875
1.02158203125
1.2938964843749998
1.445361328125
1.5009521484375
1.464697265625
1.4332763671875
1.496923828125
1.490478515625
1.5347900390625
1.5460693359375
1.522705078125
1.53720703125
1.522705078125
0.2900390625
0.9812988281249999
1.77890625
1.5670166015625
1.5509033203125
1.722509765625
2.9801513671874997
1.82724609375
1.5565429687499999
1.5057861328125
1.47275390625
1.5090087890625
1.5057861328125
1.5509033203125
1.5364013671874999
1.506591796875
1.4945068359375
1.4928955078125
1.46630859375
1.46630859375
1.4598632812499999
1.5283447265624999
2.6546630859375
1.4840332031249999
1.4622802734375
1.5315673828124998
1.3656005859375
1.4268310546874998
1.013525390625
0.9329589843749999
1.1770751953125
1.4115234374999999
1.4783935546875
1.4993408203124998
1.3954101562499999
1.5114257812499998
1.513037109375
1.571044921875
1.5364013671874999
1.5525146484374999
1.55009765625
1.5355957031249998
1.4437499999999999
0.22236328125
1.5919921874999998
1.5782958984375
1.5275390624999998
1.6040771484374998
2.9922363281249997
2.2953369140624997
1.603271484375
1.51787109375
1.4679199218749999
1.4550292968749998
1.4413330078125
1.5194824218749998
1.5041748046874999
1.5082031249999999
1.4671142578124998
1.4840332031249999
1.5428466796875
1.52109375
1.4759765624999999
1.51787109375
2.8109619140624997
1.5057861328125
1.4123291015625
1.5364013671874999
1.4526123046875
0.9716308593749999
1.2189697265625
0.8918701171875
1.15693359375
1.3905761718749998
1.45341796875
1.48564453125
1.4091064453125
1.5073974609374998
1.5138427734375
1.5323730468749999
1.5831298828125
1.5404296874999999
1.5275390624999998
1.49853515625
1.5114257812499998
0.04833984375
1.5436523437499998
1.706396484375
1.554931640625
1.5887695312499999
2.389599609375
2.7368408203124996
1.7080078125
1.5041748046874999
1.4348876953124998
1.464697265625
1.482421875
1.5202880859374999
1.490478515625
1.5380126953125
1.4679199218749999
1.47275390625
1.5146484375
1.525927734375
1.4896728515625
1.4888671875
1.8062988281249999
1.9472900390624999
1.3656005859375
1.496923828125
1.47275390625
1.1980224609374999
1.3100097656249998
0.9933837890624999
1.0159423828125
1.2826171874999999
1.400244140625
1.4703369140625
1.43408203125
1.4123291015625
1.4888671875
1.5597656249999998
1.609716796875
1.561376953125
1.5509033203125
1.5323730468749999
1.5275390624999998
1.1400146484375
1.0272216796875
1.7490966796874998
1.546875
1.5009521484375
1.7781005859374999
2.9978759765625
2.109228515625
1.545263671875
1.4526123046875
1.461474609375
1.4800048828124999
1.5114257812499998
1.5799072265624998
1.53720703125
1.4848388671875
1.4703369140625
1.4228027343749998
1.4783935546875
1.5033691406249998
1.5146484375
1.5509033203125
2.6296874999999997
1.45341796875
1.4413330078125
1.5106201171875
1.3921875
1.1271240234375
0.9740478515625
0.9249023437499999
1.1859374999999999
1.4187744140624998
1.4767822265625
1.4993408203124998
1.3881591796875
1.4896728515625
1.5057861328125
1.5404296874999999
1.5283447265624999
1.493701171875
1.5073974609374998
1.5218994140625
1.5218994140625
0.32871093749999997
1.72734375
1.6749755859375
1.5154541015624998
1.6137451171875
2.7650390624999996
2.5555664062499996
1.5275390624999998
1.4928955078125
1.464697265625
1.4590576171874998
1.4703369140625
1.5364013671874999
1.5396240234374998
1.5662109375
1.5025634765625
1.4687255859375
1.5122314453124999
1.5114257812499998
1.496923828125
1.496923828125
2.9068359375
1.7764892578125
1.4348876953124998
1.5428466796875
1.4445556640625
1.1964111328125
1.2584472656249999
0.8685058593749999
1.0256103515625
1.4115234374999999
1.461474609375
1.4840332031249999
1.4139404296875
1.5041748046874999
1.4800048828124999
1.538818359375
1.59521484375
1.5557373046874998
1.53720703125
1.5517089843749998
1.5001464843749999
0.011279296874999999
1.2205810546875
1.6645019531249998
1.5106201171875
1.5847412109374999
1.928759765625
2.6417724609374997
1.719287109375
1.5879638671874998
1.4687255859375
1.482421875
1.4719482421874999
1.5041748046874999
1.5299560546875
1.5517089843749998
1.5057861328125
1.45341796875
1.5114257812499998
1.49853515625
1.4961181640624999
1.5009521484375
1.9754882812499999
2.3501220703125
1.3212890625
1.4977294921875
1.5106201171875
0.9651855468749999
1.3639892578125
0.9063720703125
0.9087890624999999
1.3398193359375
1.448583984375
1.4896728515625
1.429248046875
1.4155517578124999
1.4840332031249999
1.4993408203124998
1.5887695312499999
1.5911865234375
1.554931640625
1.5702392578125
1.5428466796875
0.95390625
0.526904296875
1.7716552734375
1.5517089843749998
1.4920898437499999
1.6725585937499998
3.005126953125
2.1374267578125
1.5355957031249998
1.4542236328125
1.47275390625
1.46630859375
1.4912841796874998
1.5557373046874998
1.5380126953125
1.522705078125
1.4872558593749998
1.46953125
1.5218994140625
1.5138427734375
1.5170654296875
1.4961181640624999
2.5418701171875
1.4195800781249999
1.4389160156249998
1.5396240234374998
1.3446533203125
1.229443359375
1.1053710937499999
0.9232910156249999
1.2012451171875
1.4228027343749998
1.46953125
1.480810546875
1.37607421875
1.4977294921875
1.5154541015624998
1.525927734375
1.590380859375
1.5621826171875
1.5541259765625
1.513037109375
1.442138671875
0.31904296875
1.6645019531249998
1.611328125
1.5323730468749999
1.59521484375
2.7110595703125
2.6039062499999996
1.5839355468749998
1.5154541015624998
1.4767822265625
1.4703369140625
1.4800048828124999
1.533984375
1.5194824218749998
1.5476806640624998
1.4872558593749998
1.493701171875
1.5073974609374998
1.4791992187499998
1.480810546875
1.5162597656249999
2.9672607421875
1.7120361328125
1.3744628906249998
1.5380126953125
1.474365234375
0.87978515625
1.1617675781249999
0.84755859375
1.0239990234375
1.3446533203125
1.461474609375
1.482421875
1.4348876953124998
1.46953125
1.4767822265625
1.5243164062499999
1.6000488281249998
1.5541259765625
1.5202880859374999
1.5428466796875
1.533984375
0.0120849609375
1.345458984375
1.7152587890625
1.490478515625
1.6008544921874999
2.1076171875
2.9366455078125
1.6483886718749998
1.5251220703125
1.464697265625
1.474365234375
1.493701171875
1.5267333984375
1.58232421875
1.5428466796875
1.4945068359375
1.4373046875
1.5001464843749999
1.5017578125
1.48564453125
1.496923828125
2.1760986328125
2.3356201171874997
1.393798828125
1.4872558593749998
1.496923828125
1.2890625
1.3599609375
0.8765624999999999
0.9079833984375
1.2238037109375
1.42119140625
1.4848388671875
1.4832275390624998
1.48564453125
1.5267333984375
1.5138427734375
1.5533203125
1.509814453125
1.5218994140625
1.558154296875
1.5243164062499999
0.7661865234374999
0.6243896484375
1.72734375
1.5299560546875
1.5476806640624998
1.714453125
3.0002929687499997
2.0625
1.5146484375
1.4655029296875
1.4751708984374998
1.4800048828124999
1.4880615234374999
1.5637939453124998
1.5533203125
1.529150390625
1.4711425781249998
1.47275390625
1.5186767578125
1.482421875
1.490478515625
1.5025634765625
2.947119140625
1.377685546875
1.4389160156249998
1.522705078125
1.332568359375
1.171435546875
1.100537109375
0.871728515625
1.229443359375
1.43408203125
1.464697265625
1.4945068359375
1.3712402343749999
1.5033691406249998
1.5017578125
1.5533203125
1.6089111328124999
1.5565429687499999
1.5380126953125
1.4920898437499999
1.5186767578125
0.015307617187499999
1.6943115234375
1.5702392578125
1.4671142578124998
1.6604736328124998
2.9559814453124997
2.386376953125
1.5944091796875
1.5154541015624998
1.5025634765625
1.5146484375
1.5025634765625
1.5557373046874998
1.53076171875
1.5251220703125
1.4437499999999999
1.4622802734375
1.493701171875
1.4993408203124998
1.482421875
1.4896728515625
2.9962646484374997
1.6806152343749998
1.3607666015625
1.5573486328125
1.4711425781249998
1.0030517578125
1.3100097656249998
0.8467529296874999
1.0546142578125
1.3712402343749999
1.4437499999999999
1.4687255859375
1.4187744140624998
1.477587890625
1.4711425781249998
1.496923828125
1.5686279296874999
1.5251220703125
1.5380126953125
1.5686279296874999
1.5396240234374998
0.0104736328125
1.397021484375
1.71123046875
1.522705078125
1.6435546875
2.1680419921875
2.9124755859375
1.622607421875
1.4800048828124999
1.4316650390624999
1.4518066406249999
1.4920898437499999
1.5380126953125
1.5919921874999998
1.56943359375
1.513037109375
1.4477783203124999
1.5114257812499998
1.5090087890625
1.480810546875
1.4896728515625
2.302587890625
2.2502197265625
1.335791015625
1.506591796875
1.4961181640624999
1.2528076171875
1.3849365234375
0.8693115234375
0.9990234375
1.2544189453124999
1.3986328124999998
1.4356933593749999
1.4840332031249999
1.4477783203124999
1.461474609375
1.5154541015624998
1.5436523437499998
1.49853515625
1.4953124999999998
1.5573486328125
1.5557373046874998
0.5607421874999999
0.7387939453125
1.7611816406249998
1.5090087890625
1.5815185546875
1.7055908203124999
2.9285888671875
2.0391357421875
1.52109375
1.480810546875
1.48564453125
1.4735595703125
1.4928955078125
1.5396240234374998
1.545263671875
1.5267333984375
1.4953124999999998
1.4840332031249999
1.4993408203124998
1.49853515625
1.5001464843749999
1.4945068359375
2.92294921875
1.546875
1.477587890625
1.56298828125
1.4139404296875
1.3019531249999998
1.003857421875
0.8258056640625
1.1013427734374999
1.426025390625
1.45341796875
1.493701171875
1.3543212890624998
1.5082031249999999
1.490478515625
1.52109375
1.59521484375
1.5396240234374998
1.5460693359375
1.538818359375
1.5041748046874999
0.0515625
1.5895751953125
1.6411376953124999
1.5154541015624998
1.6266357421875
3.0010986328125
2.1938232421875
1.509814453125
1.5275390624999998
1.4896728515625
1.4655029296875
1.4751708984374998
1.546875
1.522705078125
1.542041015625
1.4638916015624999
1.4896728515625
1.5114257812499998
1.5009521484375
1.47275390625
1.48564453125
2.7183105468749997
1.6008544921874999
1.329345703125
1.546875
1.4767822265625
0.80888671875
1.3261230468749998
0.825
1.0650878906249999
1.37607421875
1.4437499999999999
1.4888671875
1.3913818359374999
1.4655029296875
1.47275390625
1.506591796875
1.5734619140625
1.5283447265624999
1.5267333984375
1.5396240234374998
1.5218994140625
0.1329345703125
1.4791992187499998
1.719287109375
1.5484863281249999
1.5637939453124998
2.183349609375
2.908447265625
1.8441650390625
1.490478515625
1.4469726562499998
1.4638916015624999
1.4622802734375
1.51787109375
1.5476806640624998
1.5766845703124999
1.5267333984375
1.4703369140625
1.5122314453124999
1.5597656249999998
1.4550292968749998
1.4550292968749998
2.47822265625
2.135009765625
1.29228515625
1.4155517578124999
1.4912841796874998
1.0328613281249999
1.4429443359374998
0.7782714843749999
0.9812988281249999
1.2721435546875
1.4348876953124998
1.51787109375
1.4783935546875
1.3736572265625
1.5017578125
1.538818359375
1.5831298828125
1.5396240234374998
1.5082031249999999
1.4961181640624999
1.4606689453125
0.378662109375
0.7959960937499999
1.7740722656249999
1.6234130859375
1.6282470703124998
1.7732666015624998
3.003515625
1.8522216796875
1.4687255859375
1.461474609375
1.477587890625
1.493701171875
1.5090087890625
1.5726562499999999
1.5621826171875
1.5154541015624998
1.4864501953125
1.46630859375
1.5057861328125
1.50498046875
1.4920898437499999
1.4945068359375
2.8560791015625
1.4961181640624999
1.4510009765624998
1.5154541015624998
1.4139404296875
0.887841796875
1.0272216796875
0.829833984375
1.1190673828125
1.4526123046875
1.46953125
1.5009521484375
1.3873535156249999
1.5146484375
1.5090087890625
1.5202880859374999
1.5895751953125
1.529150390625
1.5331787109375
1.5645996093749999
1.4791992187499998
0.0797607421875
1.5984375
1.5807128906249999
1.50498046875
1.6411376953124999
2.5797363281249996
2.3074218749999997
1.5750732421875
1.5315673828124998
1.456640625
1.44052734375
1.46630859375
1.5073974609374998
1.529150390625
1.5476806640624998
1.496923828125
1.4864501953125
1.513037109375
1.4977294921875
1.4735595703125
1.5412353515625
2.8391601562499997
1.909423828125
1.368017578125
1.5412353515625
1.4791992187499998
0.9007324218749999
1.27294921875
0.7959960937499999
1.0014404296875
1.36962890625
1.46630859375
1.4896728515625
1.4034667968749999
1.5315673828124998
1.47275390625
1.5235107421874998
1.5734619140625
1.51787109375
1.5243164062499999
1.5283447265624999
1.4783935546875
0.012890625
1.0828125
1.751513671875
1.5460693359375
1.6024658203125
1.77890625
3.0010986328125
2.0600830078125
1.545263671875
1.4928955078125
1.480810546875
1.4767822265625
1.4912841796874998
1.5331787109375
1.545263671875
1.50498046875
1.4622802734375
1.4840332031249999
1.5001464843749999
1.4687255859375
1.5146484375
1.6822265625
2.064111328125
1.3446533203125
1.458251953125
1.4373046875
0.9216796875
1.4679199218749999
0.9232910156249999
1.0006347656249999
1.2753662109375
1.4236083984374999
1.4888671875
1.4687255859375
1.3559326171875
1.5122314453124999
1.533984375
1.611328125
1.5541259765625
1.5589599609375
1.545263671875
1.5267333984375
1.2544189453124999
0.865283203125
1.7458740234374999
1.5275390624999998
1.5275390624999998
1.7378173828124999
3.0010986328125
2.1543457031249997
1.53076171875
1.4928955078125
1.4638916015624999
1.4945068359375
1.5041748046874999
1.5887695312499999
1.5436523437499998
1.5170654296875
1.46953125
1.4872558593749998
1.49853515625
1.480810546875
1.4961181640624999
1.5138427734375
2.7884033203125
1.4477783203124999
1.4469726562499998
1.52109375
1.3188720703124999
0.8427246093749999
1.0328613281249999
0.8660888671875
1.1529052734375
1.4091064453125
1.4679199218749999
1.490478515625
1.377685546875
1.53076171875
1.50498046875
1.506591796875
1.5895751953125
1.5509033203125
1.5589599609375
1.50498046875
1.477587890625
0.14421386718749998
1.7176757812499999
1.6806152343749998
1.4759765624999999
1.5968261718749999
2.9769287109375
2.4524414062499997
1.546875
1.5194824218749998
1.464697265625
1.4920898437499999
1.48564453125
1.558154296875
1.5251220703125
1.5791015625
1.5025634765625
1.4252197265625
1.496923828125
1.5090087890625
1.4872558593749998
1.482421875
2.924560546875
1.8361083984375
1.364794921875
1.5839355468749998
1.442138671875
0.9982177734375
1.2189697265625
0.791162109375
1.010302734375
1.3212890625
1.4364990234375
1.4832275390624998
1.4364990234375
1.53076171875
1.4888671875
1.5299560546875
1.5396240234374998
1.5194824218749998
1.5364013671874999
1.5654052734375
1.545263671875
0.011279296874999999
1.1802978515625
1.786962890625
1.5364013671874999
1.6306640625
1.8183837890624999
3.0010986328125
1.791796875
1.529150390625
1.4920898437499999
1.480810546875
1.477587890625
1.482421875
1.5041748046874999
1.5412353515625
1.5090087890625
1.458251953125
1.4920898437499999
1.4928955078125
1.477587890625
1.4961181640624999
1.835302734375
2.553955078125
1.3261230468749998
1.43408203125
1.561376953125
1.3575439453125
1.3019531249999998
0.926513671875
0.887841796875
1.26328125
1.4010498046875
1.4518066406249999
1.4735595703125
1.3664062499999998
1.5009521484375
1.5444580078124999
1.6242187499999998
1.56298828125
1.5243164062499999
1.5492919921875
1.5114257812499998
1.1174560546874999
0.4084716796875
1.740234375
1.5380126953125
1.5766845703124999
1.6282470703124998
3.0010986328125
2.031884765625
1.5154541015624998
1.5001464843749999
1.474365234375
1.4864501953125
1.4767822265625
1.561376953125
1.5428466796875
1.542041015625
1.4518066406249999
1.4920898437499999
1.513037109375
1.4880615234374999
1.513037109375
1.5186767578125
3.003515625
1.4203857421875
1.4501953125
1.5243164062499999
1.353515625
0.9144287109375
1.1641845703125
0.82177734375
1.1432373046875
1.4058837890625
1.4638916015624999
1.4977294921875
1.393798828125
1.4816162109375
1.4896728515625
1.5323730468749999
1.5702392578125
1.5057861328125
1.5533203125
1.5235107421874998
1.4550292968749998
0.011279296874999999
1.7265380859375
1.690283203125
1.509814453125
1.6169677734374999
2.9712890625
2.454052734375
1.6379150390625
1.5194824218749998
1.5009521484375
1.4920898437499999
1.4783935546875
1.5170654296875
1.51787109375
1.55009765625
1.496923828125
1.4574462890625
1.529150390625
1.509814453125
1.5017578125
1.496923828125
2.360595703125
1.7257324218749999
1.3083984375
1.49853515625
1.442138671875
0.749267578125
1.335791015625
0.77666015625
1.0497802734375
1.3269287109374999
1.4437499999999999
1.5106201171875
1.4252197265625
1.4638916015624999
1.4872558593749998
1.5702392578125
1.5654052734375
1.53076171875
1.546875
1.5347900390625
1.5009521484375
0.5486572265624999
1.2528076171875
1.7450683593749998
1.5404296874999999
1.6765869140624998
1.85302734375
3.003515625
1.989990234375
1.4928955078125
1.4429443359374998
1.480810546875
1.482421875
1.506591796875
1.5662109375
1.5533203125
1.5073974609374998
1.4622802734375
1.477587890625
1.5041748046874999
1.4864501953125
1.480810546875
1.998046875
2.4387451171875
1.3744628906249998
1.4477783203124999
1.5090087890625
1.3019531249999998
1.17626953125
0.8950927734374999
0.8886474609374999
1.2076904296875
1.4381103515625
1.46630859375
1.474365234375
1.3712402343749999
1.533984375
1.5565429687499999
1.5645996093749999
1.60166015625
1.5637939453124998
1.5589599609375
1.51787109375
0.84111328125
0.4962890625
1.7168701171874998
1.5718505859374998
1.4953124999999998
1.6330810546874999
3.0043212890624997
1.9400390625
1.561376953125
1.52109375
1.4655029296875
1.4373046875
1.456640625
1.5484863281249999
1.5517089843749998
1.5380126953125
1.45341796875
1.490478515625
1.5154541015624998
1.49853515625
1.4703369140625
1.525927734375
2.9978759765625
1.6072998046875
1.464697265625
1.5299560546875
1.445361328125
0.8435302734375
1.132763671875
0.8322509765624999
1.0481689453125
1.4042724609375
1.41796875
1.4598632812499999
1.3768798828125
1.5267333984375
1.47275390625
1.4953124999999998
1.6081054687499998
1.5758789062499998
1.546875
1.5380126953125
1.4896728515625
0.0088623046875
1.445361328125
1.65
1.5428466796875
1.6290527343749999
2.5483154296875
2.3203125
1.606494140625
1.4993408203124998
1.4783935546875
1.4800048828124999
1.4920898437499999
1.5009521484375
1.5202880859374999
1.5355957031249998
1.4961181640624999
1.45341796875
1.5082031249999999
1.5033691406249998
1.4928955078125
1.4872558593749998
2.5394531249999996
2.1503173828124997
1.332568359375
1.529150390625
1.4735595703125
0.7968017578125
1.33740234375
0.7790771484375
0.97646484375
1.34384765625
1.4413330078125
1.4912841796874998
1.3897705078125
1.4848388671875
1.4719482421874999
1.4791992187499998
1.5460693359375
1.525927734375
1.5090087890625
1.53076171875
1.5090087890625
0.3158203125
0.8266113281249999
1.7652099609374998
1.53720703125
1.554931640625
2.0109375
2.9970703125
1.88525390625
1.51787109375
1.4767822265625
1.4888671875
1.4679199218749999
1.506591796875
1.558154296875
1.5645996093749999
1.5243164062499999
1.4469726562499998
1.4622802734375
1.482421875
1.458251953125
1.4655029296875
1.474365234375
2.3525390625
1.37607421875
1.4703369140625
1.5243164062499999
1.2705322265624999
1.2576416015624998
0.990966796875
0.9007324218749999
1.2125244140625
1.3905761718749998
1.45341796875
1.4703369140625
1.3905761718749998
1.5218994140625
1.5323730468749999
1.5364013671874999
1.6209960937499999
1.5492919921875
1.5235107421874998
1.513037109375
1.5202880859374999
0.6380859375
1.754736328125
1.611328125
1.4961181640624999
1.7152587890625
3.0002929687499997
2.102783203125
1.5315673828124998
1.5194824218749998
1.48564453125
1.4832275390624998
1.490478515625
1.5670166015625
1.546875
1.5315673828124998
1.4413330078125
1.4526123046875
1.493701171875
1.5146484375
1.490478515625
1.5090087890625
2.9479248046874997
1.5114257812499998
1.384130859375
1.5138427734375
1.4244140625
0.80888671875
1.1134277343749999
0.8201660156249999
1.1061767578125
1.3599609375
1.4679199218749999
1.4920898437499999
1.3833251953124999
1.5057861328125
1.4928955078125
1.5194824218749998
1.5887695312499999
1.5404296874999999
1.5509033203125
1.5509033203125
1.5057861328125
0.014501953125
1.5557373046874998
1.7176757812499999
1.5057861328125
1.5944091796875
2.3098388671875
2.8399658203125
1.6137451171875
1.4993408203124998
1.464697265625
1.4816162109375
1.5186767578125
1.5621826171875
1.6024658203125
1.5194824218749998
1.5001464843749999
1.4550292968749998
1.49853515625
1.5194824218749998
1.5017578125
1.5001464843749999
2.7320068359375
2.0407470703125
1.3188720703124999
1.522705078125
1.46953125
0.9087890624999999
1.3043701171875
0.7782714843749999
1.0062744140625
1.2705322265624999
1.4300537109375
1.4767822265625
1.4590576171874998
1.4791992187499998
1.477587890625
1.5275390624999998
1.5847412109374999
1.5347900390625
1.5484863281249999
1.5476806640624998
1.5001464843749999
0.12810058593749998
0.9547119140625
1.8062988281249999
1.51787109375
1.56943359375
1.8095214843749998
2.8552734374999997
1.7595703125
1.4928955078125
1.464697265625
1.4558349609374999
1.464697265625
1.5041748046874999
1.5251220703125
1.545263671875
1.4961181640624999
1.4268310546874998
1.48564453125
1.49853515625
1.51787109375
1.5122314453124999
1.5347900390625
2.7964599609375
1.353515625
1.464697265625
1.5533203125
1.2173583984375
0.978076171875
1.036083984375
0.862060546875
1.2616699218749998
1.4655029296875
1.480810546875
1.456640625
1.3430419921874999
1.4840332031249999
1.496923828125
1.5355957031249998
1.6306640625
1.5702392578125
1.5436523437499998
1.533984375
1.4477783203124999
0.1699951171875
1.7764892578125
1.6056884765625
1.4896728515625
1.622607421875
3.003515625
2.2171875
1.5380126953125
1.4888671875
1.4864501953125
1.496923828125
1.5025634765625
1.5807128906249999
1.538818359375
1.5557373046874998
1.4518066406249999
1.4622802734375
1.480810546875
1.4735595703125
1.4687255859375
1.5146484375
2.977734375
1.4832275390624998
1.36962890625
1.5525146484374999
1.4493896484375
0.8193603515625
1.2882568359375
0.7379882812499999
1.11826171875
1.3728515625
1.4493896484375
1.4977294921875
1.3744628906249998
1.545263671875
1.493701171875
1.542041015625
1.5662109375
1.5283447265624999
1.5444580078124999
1.5404296874999999
1.4751708984374998
0.009667968749999999
1.5380126953125
1.7072021484375
1.5146484375
1.6475830078125
2.260693359375
2.9076416015624997
1.8054931640624998
1.5251220703125
1.4840332031249999
1.482421875
1.4759765624999999
1.5146484375
1.5251220703125
1.5218994140625
1.4767822265625
1.4437499999999999
1.5082031249999999
1.5275390624999998
1.4872558593749998
1.4872558593749998
2.8391601562499997
1.9078125
1.3100097656249998
1.5758789062499998
1.4848388671875
0.8386962890624999
1.4655029296875
0.7943847656249999
0.9885498046875
1.281005859375
1.44052734375
1.4928955078125
1.45341796875
1.3897705078125
1.4381103515625
1.5025634765625
1.5662109375
1.5315673828124998
1.5323730468749999
1.5323730468749999
1.5412353515625
0.014501953125
1.058642578125
1.82724609375
1.5541259765625
1.5766845703124999
1.85625
3.0027099609374996
1.754736328125
1.5082031249999999
1.46953125
1.456640625
1.482421875
1.51787109375
1.5678222656249998
1.5541259765625
1.5082031249999999
1.4501953125
1.5057861328125
1.5025634765625
1.5194824218749998
1.4800048828124999
1.6403320312499998
2.7158935546875
1.409912109375
1.4437499999999999
1.5033691406249998
1.3470703124999999
1.4115234374999999
0.9595458984374999
0.855615234375
1.174658203125
1.448583984375
1.4630859374999998
1.4816162109375
1.34384765625
1.482421875
1.4912841796874998
1.5243164062499999
1.59521484375
1.5565429687499999
1.5726562499999999
1.5525146484374999
1.345458984375
0.2811767578125
1.69189453125
1.5444580078124999
1.4791992187499998
1.63388671875
2.9994873046875
2.02705078125
1.53720703125
1.51787109375
1.4655029296875
1.458251953125
1.4759765624999999
1.5589599609375
1.5436523437499998
1.5428466796875
1.4977294921875
1.46630859375
1.5009521484375
1.4977294921875
1.4920898437499999
1.509814453125
3.0002929687499997
1.4461669921875
1.4115234374999999
1.5364013671874999
1.4735595703125
0.9353759765624999
1.2093017578125
0.7758544921874999
1.1617675781249999
1.3833251953124999
1.4711425781249998
1.5082031249999999
1.3446533203125
1.4888671875
1.464697265625
1.5380126953125
1.5662109375
1.5847412109374999
1.5927978515624999
1.5412353515625
1.4791992187499998
0.012890625
1.2608642578125
1.683837890625
1.5073974609374998
1.6161621093749998
2.91328125
2.570068359375
1.6733642578124999
1.4719482421874999
1.47275390625
1.4767822265625
1.4816162109375
1.533984375
1.5331787109375
1.5484863281249999
1.4945068359375
1.4550292968749998
1.5106201171875
1.5162597656249999
1.458251953125
1.5041748046874999
2.1068115234375
1.8626953124999999
1.3180664062499998
1.4848388671875
1.461474609375
0.758935546875
1.3462646484374998
0.8846191406249999
1.0675048828125
1.329345703125
1.4526123046875
1.4751708984374998
1.448583984375
1.426025390625
1.4832275390624998
1.4880615234374999
1.5887695312499999
1.5460693359375
1.474365234375
1.4945068359375
1.554931640625
0.8129150390625
1.173046875
1.8312744140625
1.561376953125
1.5509033203125
1.993212890625
2.9922363281249997
1.8578613281249998
1.5476806640624998
1.4945068359375
1.477587890625
1.4735595703125
1.4953124999999998
1.525927734375
1.542041015625
1.53076171875
1.482421875
1.48564453125
1.4816162109375
1.4848388671875
1.4912841796874998
1.4945068359375
2.591015625
1.38896484375
1.4171630859375
1.4928955078125
1.3083984375
1.0433349609375
1.1190673828125
0.8870361328124999
1.2020507812499999
1.4139404296875
1.4783935546875
1.5194824218749998
1.3873535156249999
1.4655029296875
1.4816162109375
1.5041748046874999
1.606494140625
1.5533203125
1.5799072265624998
1.5557373046874998
1.5275390624999998
0.37382812499999996
1.7684326171875
1.6395263671875
1.5082031249999999
1.6717529296875
3.0043212890624997
2.1954345703125
1.4888671875
1.5251220703125
1.4912841796874998
1.4791992187499998
1.4864501953125
1.5283447265624999
1.5380126953125
1.522705078125
1.482421875
1.4276367187499999
1.5001464843749999
1.4993408203124998
1.4888671875
1.513037109375
2.9970703125
1.6556396484375
1.3349853515624999
1.5428466796875
1.46953125
0.84111328125
1.1214843749999999
0.7951904296875
1.08603515625
1.3220947265624998
1.4550292968749998
1.5009521484375
1.3865478515624998
1.509814453125
1.4655029296875
1.5678222656249998
1.5831298828125
1.558154296875
1.51787109375
1.5170654296875
1.542041015625
0.0104736328125
1.4074951171874999
1.7474853515625
1.5251220703125
1.5895751953125
1.8578613281249998
2.7142822265624997
1.6669189453125
1.5073974609374998
1.4759765624999999
1.5025634765625
1.506591796875
1.5355957031249998
1.5533203125
1.5428466796875
1.4832275390624998
1.4413330078125
1.5154541015624998
1.5283447265624999
1.49853515625
1.490478515625
2.3033935546874997
2.263916015625
1.3067871093749999
1.5017578125
1.5009521484375
0.8161376953124999
1.368017578125
0.8572265625
0.9369873046874999
1.3317626953125
1.4445556640625
1.4848388671875
1.5106201171875
1.409912109375
1.48564453125
1.5154541015624998
1.60166015625
1.5492919921875
1.5218994140625
1.5154541015624998
1.513037109375
0.5373779296875
0.6727294921875
1.7829345703125
1.5565429687499999
1.5355957031249998
1.7442626953125
2.8899169921874996
1.7821289062499999
1.5170654296875
1.4872558593749998
1.4574462890625
1.461474609375
1.4679199218749999
1.53720703125
1.5444580078124999
1.5364013671874999
1.5073974609374998
1.5082031249999999
1.5009521484375
1.480810546875
1.4832275390624998
1.464697265625
2.9358398437499997
1.3720458984375
1.4848388671875
1.5678222656249998
1.2890625
0.9224853515625
1.0948974609375
0.8572265625
1.2125244140625
1.4066894531249998
1.4389160156249998
1.4848388671875
1.3954101562499999
1.5251220703125
1.4630859374999998
1.5380126953125
1.5799072265624998
1.5275390624999998
1.5001464843749999
1.5436523437499998
1.4993408203124998
0.042700195312499994
1.748291015625
1.6451660156249999
1.5090087890625
1.65966796875
3.0010986328125
2.2824462890625
1.558154296875
1.5033691406249998
1.4888671875
1.477587890625
1.4977294921875
1.5702392578125
1.5492919921875
1.5484863281249999
1.4912841796874998
1.44052734375
1.4961181640624999
1.4880615234374999
1.4791992187499998
1.4800048828124999
3.003515625
1.6040771484374998
1.3792968749999999
1.5428466796875
1.4526123046875
0.8241943359374999
1.3108154296874999
0.8258056640625
1.1093994140624999
1.335791015625
1.4219970703125
1.4888671875
1.3801025390625
1.4953124999999998
1.5090087890625
1.5726562499999999
1.5573486328125
1.5154541015624998
1.513037109375
1.546875
1.5251220703125
0.011279296874999999
1.458251953125
1.7176757812499999
1.5170654296875
1.6363037109374998
1.8763916015625
3.0010986328125
1.9650146484375
1.53720703125
1.4880615234374999
1.4735595703125
1.4558349609374999
1.4920898437499999
1.5041748046874999
1.5315673828124998
1.47275390625
1.3905761718749998
1.4228027343749998
1.5122314453124999
1.5017578125
1.5218994140625
2.505615234375
2.1809326171875
1.33740234375
1.5283447265624999
1.509814453125
1.2189697265625
1.3672119140624999
0.829833984375
0.9353759765624999
1.2479736328125
1.4123291015625
1.4630859374999998
1.493701171875
1.3639892578125
1.4993408203124998
1.533984375
1.55009765625
1.5492919921875
1.5033691406249998
1.55009765625
1.529150390625
0.36899414062499997
0.784716796875
1.7772949218749998
1.585546875
1.5436523437499998
1.783740234375
2.9994873046875
1.7329833984374998
1.5243164062499999
1.482421875
1.4655029296875
1.4872558593749998
1.50498046875
1.558154296875
1.5541259765625
1.529150390625
1.4711425781249998
1.5001464843749999
1.5114257812499998
1.4920898437499999
1.513037109375
1.482421875
2.8512451171874997
1.464697265625
1.4719482421874999
1.53720703125
1.4026611328124998
1.2858398437499998
1.0570312499999999
0.8435302734375
1.15693359375
1.4381103515625
1.4518066406249999
1.48564453125
1.4308593749999998
1.490478515625
1.4558349609374999
1.5162597656249999
1.56943359375
1.5444580078124999
1.5484863281249999
1.5444580078124999
1.5017578125
0.0636474609375
1.7418457031249999
1.5968261718749999
1.5146484375
1.5984375
3.005126953125
2.3501220703125
1.585546875
1.493701171875
1.4735595703125
1.490478515625
1.4945068359375
1.55009765625
1.5355957031249998
1.5476806640624998
1.496923828125
1.4356933593749999
1.493701171875
1.49853515625
1.4872558593749998
1.4735595703125
2.969677734375
1.5637939453124998
1.384130859375
1.5122314453124999
1.4195800781249999
0.87978515625
1.2987304687499999
0.8346679687499999
1.1190673828125
1.3510986328124999
1.4381103515625
1.4920898437499999
1.3728515625
1.5033691406249998
1.5025634765625
1.561376953125
1.5782958984375
1.5355957031249998
1.5033691406249998
1.5017578125
1.5090087890625
0.0362548828125
1.5702392578125
1.72412109375
1.4912841796874998
1.6346923828125
2.3452880859375
2.860107421875
1.5887695312499999
1.5235107421874998
1.4759765624999999
1.4961181640624999
1.490478515625
1.5267333984375
1.522705078125
1.5791015625
1.5243164062499999
1.4622802734375
1.5057861328125
1.496923828125
1.4767822265625
1.490478515625
2.65546875
2.075390625
1.3188720703124999
1.4953124999999998
1.5170654296875
1.229443359375
1.235888671875
0.8934814453125
0.9595458984374999
1.2914794921875
1.4469726562499998
1.4945068359375
1.4759765624999999
1.4574462890625
1.4928955078125
1.5428466796875
1.5589599609375
1.5645996093749999
1.55009765625
1.5355957031249998
1.522705078125
0.18288574218749998
0.90234375
1.7797119140625
1.4928955078125
1.5726562499999999
1.844970703125
2.7730957031249996
1.7418457031249999
1.554931640625
1.4832275390624998
1.482421875
1.474365234375
1.490478515625
1.52109375
1.5541259765625
1.5106201171875
1.4228027343749998
1.49853515625
1.5146484375
1.4912841796874998
1.4920898437499999
1.5355957031249998
2.7642333984375
1.3462646484374998
1.4437499999999999
1.5275390624999998
1.2455566406249998
1.2286376953125
1.0731445312499999
0.878173828125
1.2818115234374998
1.4381103515625
1.4671142578124998
1.474365234375
1.4042724609375
1.5122314453124999
1.5194824218749998
1.5670166015625
1.5186767578125
1.542041015625
1.5299560546875
1.4671142578124998
1.3728515625
0.21108398437499998
1.8361083984375
1.62744140625
1.5444580078124999
1.735400390625
2.7666503906249997
2.4685546874999997
1.5605712890624999
1.4945068359375
1.4445556640625
1.4526123046875
1.4759765624999999
1.5275390624999998
1.5380126953125
1.5509033203125
1.493701171875
1.4510009765624998
1.525927734375
1.509814453125
1.4912841796874998
1.4953124999999998
2.8480224609375
1.4759765624999999
1.409912109375
1.5267333984375
1.4034667968749999
1.0127197265624999
0.9861328125
0.8306396484374999
1.134375
1.3736572265625
1.4751708984374998
1.493701171875
1.3849365234375
1.5170654296875
1.5073974609374998
1.5428466796875
1.6218017578125
1.5323730468749999
1.546875
1.546875
1.5146484375
0.0797607421875
1.5621826171875
1.6773925781249999
1.4526123046875
1.59521484375
1.977099609375
2.6240478515624996
1.6395263671875
1.542041015625
1.4606689453125
1.47275390625
1.4864501953125
1.5114257812499998
1.5162597656249999
1.5428466796875
1.493701171875
1.4977294921875
1.5146484375
1.509814453125
1.4912841796874998
1.51787109375
2.744091796875
1.9553466796874999
1.3527099609375
1.506591796875
1.46953125
0.862060546875
1.276171875
0.863671875
0.9974121093749999
1.3527099609375
1.4501953125
1.4961181640624999
1.4687255859375
1.5235107421874998
1.4864501953125
1.5243164062499999
1.56943359375
1.5243164062499999
1.5267333984375
1.5597656249999998
1.525927734375
0.1490478515625
1.0111083984375
1.7184814453125
1.5073974609374998
1.5766845703124999
2.225244140625
2.8391601562499997
1.8062988281249999
1.55009765625
1.4638916015624999
1.4598632812499999
1.4638916015624999
1.5146484375
1.5323730468749999
1.5718505859374998
1.5194824218749998
1.442138671875
1.4711425781249998
1.493701171875
1.4671142578124998
1.48564453125
1.6242187499999998
2.0971435546875
1.3527099609375
1.458251953125
1.482421875
1.2503906249999999
1.235888671875
1.0111083984375
0.9933837890624999
1.2697265624999998
1.42119140625
1.4872558593749998
1.4711425781249998
1.4066894531249998
1.490478515625
1.4977294921875
1.56943359375
1.5347900390625
1.53076171875
1.5235107421874998
1.5621826171875
1.3801025390625
0.8660888671875
1.764404296875
1.5573486328125
1.5533203125
1.72734375
3.001904296875
2.2349121093749997
1.5235107421874998
1.4671142578124998
1.4687255859375
1.480810546875
1.4767822265625
1.5436523437499998
1.5565429687499999
1.5299560546875
1.4840332031249999
1.4767822265625
1.48564453125
1.4945068359375
1.4953124999999998
1.509814453125
2.776318359375
1.4848388671875
1.4429443359374998
1.5243164062499999
1.4171630859375
0.8830078124999999
1.142431640625
0.889453125
1.1738525390624999
1.4413330078125
1.4590576171874998
1.493701171875
1.3768798828125
1.490478515625
1.4864501953125
1.5323730468749999
1.5726562499999999
1.542041015625
1.5114257812499998
1.5428466796875
1.5057861328125
0.21269531249999998
1.5919921874999998
1.6137451171875
1.5670166015625
1.662890625
2.9986816406249996
2.1624023437499997
1.5492919921875
1.5090087890625
1.4759765624999999
1.4719482421874999
1.4622802734375
1.554931640625
1.522705078125
1.5364013671874999
1.4622802734375
1.4888671875
1.5017578125
1.4840332031249999
1.4735595703125
1.4977294921875
2.7747070312499997
1.5750732421875
1.4034667968749999
1.5251220703125
1.432470703125
0.878173828125
1.26005859375
0.8507812499999999
1.1174560546874999
1.3946044921874998
1.4550292968749998
1.5025634765625
1.3962158203125
1.5138427734375
1.4791992187499998
1.546875
1.5895751953125
1.5533203125
1.5476806640624998
1.52109375
1.4912841796874998
0.07814941406249999
1.5001464843749999
1.72734375
1.5218994140625
1.6379150390625
2.2550537109374997
2.7166992187499996
1.5863525390625
1.50498046875
1.48564453125
1.5114257812499998
1.50498046875
1.52109375
1.5331787109375
1.5323730468749999
1.4872558593749998
1.445361328125
1.5009521484375
1.5041748046874999
1.480810546875
1.4864501953125
2.634521484375
2.0069091796875
1.3422363281249998
1.5323730468749999
1.4671142578124998
0.9821044921875
1.2995361328125
0.849169921875
1.029638671875
1.297119140625
1.432470703125
1.480810546875
1.4574462890625
1.5073974609374998
1.5001464843749999
1.55009765625
1.5589599609375
1.5194824218749998
1.545263671875
1.53076171875
1.5033691406249998
0.2908447265625
0.920068359375
1.7200927734375
1.4872558593749998
1.5605712890624999
1.7370117187499998
2.989013671875
2.083447265625
1.5734619140625
1.4832275390624998
1.4711425781249998
1.477587890625
1.5138427734375
1.5299560546875
1.5412353515625
1.5025634765625
1.46953125
1.4912841796874998
1.52109375
1.4864501953125
1.4655029296875
1.493701171875
2.1986572265624997
1.3736572265625
1.44052734375
1.522705078125
1.187548828125
1.3591552734374999
1.013525390625
0.9804931640625
1.2826171874999999
1.4268310546874998
1.4687255859375
1.49853515625
1.4332763671875
1.5082031249999999
1.4961181640624999
1.5218994140625
1.538818359375
1.5565429687499999
1.5662109375
1.49853515625
1.4373046875
0.758935546875
1.7072021484375
1.5509033203125
1.5396240234374998
1.7539306640624999
2.99384765625
2.289697265625
1.574267578125
1.5073974609374998
1.474365234375
1.4735595703125
1.4783935546875
1.5517089843749998
1.538818359375
1.5251220703125
1.4655029296875
1.4928955078125
1.5114257812499998
1.4864501953125
1.490478515625
1.5009521484375
2.8375488281249996
1.5404296874999999
1.4236083984374999
1.5235107421874998
1.4187744140624998
0.9716308593749999
1.1448486328125
0.88623046875
1.1239013671875
1.4308593749999998
1.4598632812499999
1.4888671875
1.3905761718749998
1.5122314453124999
1.4832275390624998
1.5154541015624998
1.5887695312499999
1.5557373046874998
1.5380126953125
1.5412353515625
1.5315673828124998
0.1007080078125
1.5251220703125
1.5831298828125
1.5347900390625
1.6290527343749999
2.99384765625
2.257470703125
1.574267578125
1.5315673828124998
1.4840332031249999
1.482421875
1.5009521484375
1.554931640625
1.53076171875
1.53076171875
1.4832275390624998
1.4348876953124998
1.4945068359375
1.4977294921875
1.482421875
1.5017578125
2.7062255859374997
1.5944091796875
1.3752685546874999
1.513037109375
1.4413330078125
0.9192626953124999
1.3309570312499999
0.8322509765624999
1.13115234375
1.345458984375
1.4219970703125
1.4848388671875
1.3897705078125
1.4896728515625
1.4872558593749998
1.5637939453124998
1.55009765625
1.506591796875
1.5525146484374999
1.533984375
1.5162597656249999
0.045117187499999996
1.4638916015624999
1.72412109375
1.5009521484375
1.6443603515624998
2.0874755859375
2.8633300781249997
1.6242187499999998
1.5331787109375
1.4735595703125
1.4711425781249998
1.477587890625
1.513037109375
1.5025634765625
1.5573486328125
1.5017578125
1.458251953125
1.5082031249999999
1.5033691406249998
1.477587890625
1.4912841796874998
2.4741943359375
2.1197021484375
1.3510986328124999
1.5009521484375
1.4912841796874998
1.232666015625
1.3212890625
0.9168457031249999
0.98291015625
1.29228515625
1.4461669921875
1.4977294921875
1.4783935546875
1.4139404296875
1.4953124999999998
1.5243164062499999
1.5218994140625
1.542041015625
1.545263671875
1.56943359375
1.52109375
0.3955810546875
0.8443359374999999
1.8022705078124999
1.4945068359375
1.5718505859374998
1.76279296875
2.7585937499999997
1.7490966796874998
1.53720703125
1.4759765624999999
1.474365234375
1.4711425781249998
1.4783935546875
1.533984375
1.545263671875
1.5267333984375
1.46953125
1.5017578125
1.5073974609374998
1.490478515625
1.480810546875
1.5082031249999999
2.7505371093749997
1.3591552734374999
1.4308593749999998
1.55009765625
1.2721435546875
1.3124267578125
1.0868408203125
0.863671875
1.2560302734375
1.4348876953124998
1.4606689453125
1.4791992187499998
1.4300537109375
1.509814453125
1.49853515625
