3.0010986328125
1.7934082031249998
1.4244140625
1.4510009765624998
1.4461669921875
1.2503906249999999
1.039306640625
0.9611572265624999
1.0489746093749999
1.316455078125
1.3712402343749999
1.4928955078125
1.4139404296875
1.5218994140625
1.5364013671874999
1.5186767578125
1.5275390624999998
1.5146484375
1.525927734375
1.5597656249999998
1.4888671875
0.0104736328125
1.248779296875
1.6556396484375
1.482421875
1.5726562499999999
1.799853515625
1.8755859375
2.76181640625
1.85625
1.5138427734375
1.448583984375
1.4751708984374998
1.48564453125
1.5162597656249999
1.5509033203125
1.496923828125
1.46953125
1.5114257812499998
1.5041748046874999
1.493701171875
1.4953124999999998
2.2808349609375
2.357373046875
1.4284423828125
1.5275390624999998
1.4477783203124999
1.2753662109375
1.074755859375
0.91845703125
0.9804931640625
1.3180664062499998
1.4268310546874998
1.458251953125
1.4606689453125
1.5114257812499998
1.5090087890625
1.542041015625
1.513037109375
1.5082031249999999
1.5251220703125
1.53720703125
1.5218994140625
0.48259277343749996
0.5889404296874999
1.7047851562499998
1.5082031249999999
1.5654052734375
1.722509765625
1.9424560546874998
2.8874999999999997
1.9078125
1.5057861328125
1.4558349609374999
1.4759765624999999
1.4993408203124998
1.5114257812499998
1.5251220703125
1.5025634765625
1.4800048828124999
1.5073974609374998
1.5162597656249999
1.4945068359375
1.4912841796874998
1.5347900390625
2.4967529296874997
1.4510009765624998
1.4493896484375
1.5146484375
1.3083984375
1.2093017578125
0.7879394531249999
0.936181640625
1.2157470703125
1.4219970703125
1.4445556640625
1.4711425781249998
1.43408203125
1.5347900390625
1.5275390624999998
1.5323730468749999
1.533984375
1.522705078125
1.5235107421874998
1.4977294921875
1.5323730468749999
0.47453613281249996
1.6556396484375
1.55009765625
1.5492919921875
1.6878662109375
1.7442626953125
2.5338134765625
2.08828125
1.6105224609375
1.4977294921875
1.4864501953125
1.474365234375
1.5460693359375
1.546875
1.5243164062499999
1.4945068359375
1.4912841796874998
1.506591796875
1.506591796875
1.5106201171875
1.5017578125
2.9922363281249997
1.641943359375
1.5017578125
1.4961181640624999
1.448583984375
1.2826171874999999
0.7959960937499999
0.8926757812499999
1.0723388671875
1.3390136718749999
1.448583984375
1.474365234375
1.3905761718749998
1.525927734375
1.5243164062499999
1.55009765625
1.5154541015624998
1.5170654296875
1.5186767578125
1.533984375
1.50498046875
0.0120849609375
1.4147460937499998
1.5670166015625
1.525927734375
1.5863525390625
1.786962890625
2.4363281249999997
2.550732421875
1.7490966796874998
1.50498046875
1.461474609375
1.4888671875
1.5492919921875
1.5057861328125
1.5009521484375
1.4840332031249999
1.4791992187499998
1.50498046875
1.5073974609374998
1.5073974609374998
1.4920898437499999
2.698974609375
1.72734375
1.464697265625
1.5347900390625
1.43408203125
1.255224609375
0.9659912109375
0.9369873046874999
1.0836181640625
1.361572265625
1.44052734375
1.4679199218749999
1.405078125
1.5758789062499998
1.5170654296875
1.5267333984375
1.513037109375
1.5186767578125
1.52109375
1.525927734375
1.4993408203124998
0.10151367187499999
1.368017578125
1.6234130859375
1.49853515625
1.5726562499999999
1.7772949218749998
1.8941162109374998
2.9020019531249996
1.7829345703125
1.49853515625
1.4928955078125
1.47275390625
1.5082031249999999
1.4840332031249999
1.53720703125
1.4832275390624998
1.482421875
1.5033691406249998
1.4928955078125
1.4920898437499999
1.4953124999999998
2.5732910156249997
2.204296875
1.442138671875
1.4816162109375
1.4493896484375
1.219775390625
1.1690185546875
0.95390625
0.9724365234375
1.26328125
1.4316650390624999
1.464697265625
1.45341796875
1.4993408203124998
1.5154541015624998
1.52109375
1.545263671875
1.5025634765625
1.5106201171875
1.5267333984375
1.529150390625
0.307763671875
0.7460449218749999
1.687060546875
1.522705078125
1.525927734375
1.722509765625
1.803076171875
2.9092529296875
2.0093261718749997
1.5678222656249998
1.480810546875
1.4711425781249998
1.490478515625
1.480810546875
1.5355957031249998
1.4912841796874998
1.4928955078125
1.529150390625
1.5162597656249999
1.4816162109375
1.4759765624999999
1.5299560546875
2.8319091796875
1.4574462890625
1.482421875
1.5090087890625
1.3720458984375
1.1915771484375
0.7436279296874999
0.9482666015625
1.2544189453124999
1.42119140625
1.4477783203124999
1.4872558593749998
1.474365234375
1.5202880859374999
1.5057861328125
1.5194824218749998
1.5299560546875
1.5186767578125
1.5364013671874999
1.5138427734375
1.4195800781249999
0.1232666015625
1.7007568359374998
1.5565429687499999
1.5170654296875
1.5984375
1.77568359375
2.6111572265625
2.38154296875
1.5791015625
1.4920898437499999
1.474365234375
1.48564453125
1.533984375
1.5186767578125
1.5106201171875
1.5025634765625
1.493701171875
1.4767822265625
1.49853515625
1.4953124999999998
1.496923828125
2.9076416015624997
1.585546875
1.4791992187499998
1.5283447265624999
1.4026611328124998
1.2777832031249998
0.8016357421875
0.9611572265624999
1.1375976562499999
1.409912109375
1.43408203125
1.4542236328125
1.4091064453125
1.55009765625
1.529150390625
1.5162597656249999
1.5114257812499998
1.52109375
1.5186767578125
1.525927734375
1.49853515625
0.040283203125
1.5073974609374998
1.635498046875
1.52109375
1.5944091796875
1.7499023437499999
1.980322265625
2.4548583984375
1.7249267578124998
1.5170654296875
1.4550292968749998
1.4783935546875
1.5621826171875
1.5082031249999999
1.5170654296875
1.5017578125
1.4920898437499999
1.5090087890625
1.496923828125
1.4945068359375
1.4848388671875
2.8874999999999997
1.960986328125
1.4928955078125
1.5154541015624998
1.4493896484375
1.255224609375
0.894287109375
0.9394042968749999
1.036083984375
1.3768798828125
1.445361328125
1.4719482421874999
1.4155517578124999
1.5565429687499999
1.50498046875
1.5251220703125
1.525927734375
1.529150390625
1.522705078125
1.522705078125
1.4961181640624999
0.0072509765625
1.010302734375
1.6725585937499998
1.5243164062499999
1.5879638671874998
1.7345947265625
1.9617919921875
2.8391601562499997
1.9247314453125
1.5090087890625
1.4630859374999998
1.464697265625
1.5275390624999998
1.4912841796874998
1.5315673828124998
1.477587890625
1.4888671875
1.506591796875
1.5114257812499998
1.4920898437499999
1.4912841796874998
1.877197265625
2.0415527343749997
1.40185546875
1.509814453125
1.4364990234375
1.2302490234374999
1.1335693359374999
0.813720703125
1.026416015625
1.3027587890624999
1.416357421875
1.4542236328125
1.448583984375
1.5001464843749999
1.5251220703125
1.53076171875
1.5299560546875
1.5170654296875
1.5275390624999998
1.513037109375
1.5033691406249998
0.07009277343749999
0.9474609374999999
1.6620849609375
1.53076171875
1.5654052734375
1.7764892578125
1.8409423828125
2.7988769531249997
1.896533203125
1.53720703125
1.48564453125
1.482421875
1.5033691406249998
1.5267333984375
1.5218994140625
1.4993408203124998
1.4848388671875
1.4791992187499998
1.50498046875
1.4928955078125
1.490478515625
1.7337890624999999
2.6522460937499996
1.522705078125
1.506591796875
1.5073974609374998
1.3092041015625
1.2334716796875
0.7718261718749999
0.9740478515625
1.1819091796874999
1.4252197265625
1.4558349609374999
1.4912841796874998
1.4381103515625
1.5283447265624999
1.5202880859374999
1.4912841796874998
1.5396240234374998
1.5355957031249998
1.5267333984375
1.5033691406249998
1.1770751953125
0.2956787109375
1.5927978515624999
1.52109375
1.5243164062499999
1.6645019531249998
1.803076171875
2.784375
2.2196044921875
1.6266357421875
1.4953124999999998
1.4671142578124998
1.477587890625
1.5218994140625
1.50498046875
1.5194824218749998
1.4832275390624998
1.4864501953125
1.5138427734375
1.4848388671875
1.4872558593749998
1.4977294921875
3.0002929687499997
1.5347900390625
1.482421875
1.5243164062499999
1.35673828125
1.2640869140625
0.71865234375
0.966796875
1.1666015625
1.3946044921874998
1.43408203125
1.482421875
1.4413330078125
1.5396240234374998
1.529150390625
1.5283447265624999
1.5243164062499999
1.513037109375
1.5251220703125
1.522705078125
1.49853515625
0.015307617187499999
1.558154296875
1.5976318359375
1.4832275390624998
1.6330810546874999
1.738623046875
2.152734375
2.6941406249999997
1.66611328125
1.493701171875
1.482421875
1.4880615234374999
1.546875
1.5194824218749998
1.5073974609374998
1.4920898437499999
1.4791992187499998
1.5082031249999999
1.4864501953125
1.5017578125
1.4872558593749998
3.0002929687499997
1.8095214843749998
1.4195800781249999
1.574267578125
1.4598632812499999
1.2455566406249998
1.0868408203125
0.9788818359375
1.08603515625
1.340625
1.4429443359374998
1.48564453125
1.4171630859375
1.5138427734375
1.5122314453124999
1.5412353515625
1.5380126953125
1.5114257812499998
1.53076171875
1.51787109375
1.496923828125
0.004833984374999999
1.206884765625
1.6411376953124999
1.480810546875
1.6089111328124999
1.8046875
2.064111328125
2.7448974609374996
1.8554443359375
1.5218994140625
1.4711425781249998
1.4767822265625
1.52109375
1.5001464843749999
1.53076171875
1.477587890625
1.4888671875
1.5073974609374998
1.4920898437499999
1.5090087890625
1.5009521484375
2.2260498046875
2.389599609375
1.4010498046875
1.542041015625
1.4767822265625
1.2399169921875
1.1142333984375
0.8515869140625
0.9804931640625
1.3414306640625
1.4228027343749998
1.464697265625
1.4630859374999998
1.513037109375
1.513037109375
1.51787109375
1.5428466796875
1.5235107421874998
1.5090087890625
1.5235107421874998
1.49853515625
0.678369140625
0.5583251953125
1.6935058593749999
1.5122314453124999
1.533984375
1.8103271484374999
1.828857421875
2.834326171875
2.1116455078125
1.5323730468749999
1.4832275390624998
1.4711425781249998
1.506591796875
1.5331787109375
1.5170654296875
1.493701171875
1.477587890625
1.4977294921875
1.5017578125
1.4872558593749998
1.4896728515625
1.5001464843749999
2.4830566406249996
1.4759765624999999
1.4679199218749999
1.4840332031249999
1.303564453125
1.2109130859375
0.6985107421875
0.992578125
1.2238037109375
1.4058837890625
1.4622802734375
1.4558349609374999
1.4550292968749998
1.542041015625
1.53076171875
1.5299560546875
1.5170654296875
1.525927734375
1.5323730468749999
1.522705078125
0.8693115234375
0.4568115234375
1.66611328125
1.538818359375
1.51787109375
1.6798095703125
1.7507080078125
2.7972656249999996
2.1624023437499997
1.6427490234375
1.4961181640624999
1.448583984375
1.4961181640624999
1.5355957031249998
1.5194824218749998
1.4977294921875
1.496923828125
1.4888671875
1.5138427734375
1.496923828125
1.496923828125
1.490478515625
2.9801513671874997
1.6636962890625
1.4606689453125
1.522705078125
1.429248046875
1.2342773437499999
0.734765625
0.9627685546875
1.10859375
1.4171630859375
1.432470703125
1.4703369140625
1.442138671875
1.53076171875
1.5162597656249999
1.525927734375
1.5194824218749998
1.509814453125
1.533984375
1.5404296874999999
1.480810546875
0.0120849609375
1.3913818359374999
1.571044921875
1.5138427734375
1.5847412109374999
1.7531249999999998
2.26552734375
2.5797363281249996
1.64677734375
1.4961181640624999
1.4800048828124999
1.4791992187499998
1.55009765625
1.4872558593749998
1.5170654296875
1.5017578125
1.46953125
1.509814453125
1.4888671875
1.5001464843749999
1.480810546875
2.6860839843749997
1.714453125
1.4574462890625
1.5380126953125
1.456640625
1.2753662109375
1.01513671875
0.9385986328125
1.0900634765625
1.3502929687499998
1.4356933593749999
1.480810546875
1.4066894531249998
1.5484863281249999
1.4993408203124998
1.5404296874999999
1.545263671875
1.5082031249999999
1.5170654296875
1.533984375
1.5106201171875
0.0104736328125
1.3100097656249998
1.65
1.49853515625
1.6040771484374998
1.7829345703125
1.9021728515624998
2.6619140624999997
1.7958251953125
1.5315673828124998
1.4912841796874998
1.4687255859375
1.5218994140625
1.4719482421874999
1.5154541015624998
1.513037109375
1.4840332031249999
1.5090087890625
1.493701171875
1.474365234375
1.5041748046874999
2.505615234375
2.2107421874999997
1.42119140625
1.5299560546875
1.4759765624999999
1.2769775390625
1.055419921875
0.903955078125
1.013525390625
1.2689208984375
1.4276367187499999
1.461474609375
1.4679199218749999
1.5323730468749999
1.5082031249999999
1.5170654296875
1.5251220703125
1.5162597656249999
1.5186767578125
1.5347900390625
1.5202880859374999
0.40283203125
0.7138183593749999
1.6645019531249998
1.5106201171875
1.590380859375
1.6975341796874999
1.85625
2.82626953125
2.0520263671875
1.5194824218749998
1.4880615234374999
1.4767822265625
1.509814453125
1.49853515625
1.5315673828124998
1.496923828125
1.5186767578125
1.4945068359375
1.4880615234374999
1.49853515625
1.493701171875
1.5146484375
2.850439453125
1.442138671875
1.458251953125
1.5114257812499998
1.2721435546875
1.1778808593749999
0.7194580078124999
0.9958007812499999
1.2383056640624999
1.429248046875
1.4445556640625
1.474365234375
1.4598632812499999
1.5299560546875
1.53720703125
1.5492919921875
1.5194824218749998
1.5251220703125
1.5444580078124999
1.5114257812499998
1.4751708984374998
0.58974609375
1.6814208984374999
1.5436523437499998
1.5315673828124998
1.683837890625
1.7619873046874999
2.487890625
2.109228515625
1.5976318359375
1.482421875
1.4816162109375
1.4767822265625
1.5404296874999999
1.5235107421874998
1.5194824218749998
1.4888671875
1.4961181640624999
1.5154541015624998
1.4880615234374999
1.4977294921875
1.5041748046874999
2.905224609375
1.6161621093749998
1.4791992187499998
1.5186767578125
1.4284423828125
1.2673095703125
0.7033447265624999
0.97001953125
1.1279296875
1.4026611328124998
1.4501953125
1.46630859375
1.4115234374999999
1.5299560546875
1.513037109375
1.5557373046874998
1.5315673828124998
1.4953124999999998
1.5202880859374999
1.5235107421874998
1.4928955078125
0.0249755859375
1.46953125
1.5364013671874999
1.5090087890625
1.6185791015625
1.7555419921875
2.3291748046875
2.4951416015624996
1.7571533203124998
1.4961181640624999
1.493701171875
1.4840332031249999
1.533984375
1.51787109375
1.509814453125
1.493701171875
1.50498046875
1.4896728515625
1.4912841796874998
1.4880615234374999
1.49853515625
2.8206298828125
1.6475830078125
1.4590576171874998
1.5323730468749999
1.4671142578124998
1.2689208984375
0.9152343749999999
0.9571289062499999
1.134375
1.3792968749999999
1.4493896484375
1.4719482421874999
1.4147460937499998
1.546875
1.5186767578125
1.5090087890625
1.5412353515625
1.5146484375
1.509814453125
1.5243164062499999
1.5194824218749998
0.08942871093749999
1.4219970703125
1.63388671875
1.490478515625
1.6048828124999999
1.7821289062499999
1.9110351562499999
2.8061279296875
1.7611816406249998
1.5186767578125
1.4888671875
1.4719482421874999
1.5275390624999998
1.4912841796874998
1.52109375
1.4816162109375
1.4816162109375
1.5114257812499998
1.5138427734375
1.5090087890625
1.477587890625
2.7166992187499996
2.0923095703125
1.4187744140624998
1.5315673828124998
1.4598632812499999
1.2334716796875
1.152099609375
0.9240966796875
1.010302734375
1.297119140625
1.4558349609374999
1.474365234375
1.4558349609374999
1.493701171875
1.51787109375
1.5315673828124998
1.545263671875
1.5275390624999998
1.5355957031249998
1.522705078125
1.5090087890625
0.193359375
0.8435302734375
1.6475830078125
1.4655029296875
1.5492919921875
1.7217041015624999
1.89169921875
2.8302978515625
2.03671875
1.5944091796875
1.4848388671875
1.4864501953125
1.5033691406249998
1.4872558593749998
1.538818359375
1.5017578125
1.4928955078125
1.4920898437499999
1.4993408203124998
1.49853515625
1.4896728515625
1.6403320312499998
2.7005859374999996
1.456640625
1.4953124999999998
1.5162597656249999
1.2350830078125
1.1641845703125
0.7516845703124999
0.9885498046875
1.2705322265624999
1.4074951171874999
1.4493896484375
1.4413330078125
1.5114257812499998
1.5146484375
1.52109375
1.5283447265624999
1.525927734375
1.5073974609374998
1.5267333984375
1.5106201171875
1.364794921875
0.19899902343749998
1.6693359374999999
1.52109375
1.5396240234374998
1.71123046875
1.7974365234374998
2.5813476562499997
2.3340087890625
1.585546875
1.4912841796874998
1.46953125
1.49853515625
1.5347900390625
1.533984375
1.5025634765625
1.4800048828124999
1.506591796875
1.5082031249999999
1.5186767578125
1.4896728515625
1.480810546875
2.80048828125
1.5476806640624998
1.4751708984374998
1.5162597656249999
1.3720458984375
1.2495849609374998
0.829833984375
0.9740478515625
1.1666015625
1.4010498046875
1.456640625
1.4550292968749998
1.4550292968749998
1.5557373046874998
1.5194824218749998
1.5315673828124998
1.529150390625
1.4953124999999998
1.5114257812499998
1.5275390624999998
1.5460693359375
0.11359863281249999
1.529150390625
1.638720703125
1.5146484375
1.6105224609375
1.7184814453125
2.0302734375
2.4000732421874997
1.71123046875
1.474365234375
1.448583984375
1.4791992187499998
1.5718505859374998
1.5484863281249999
1.522705078125
1.493701171875
1.4574462890625
1.509814453125
1.5073974609374998
1.5033691406249998
1.5073974609374998
2.9865966796874996
1.9037841796875
1.4655029296875
1.5621826171875
1.4244140625
1.2238037109375
0.8467529296874999
0.936181640625
1.069921875
1.3905761718749998
1.4123291015625
1.477587890625
1.4268310546874998
1.545263671875
1.5243164062499999
1.5267333984375
1.52109375
1.5057861328125
1.529150390625
1.5791015625
1.5186767578125
0.011279296874999999
1.139208984375
1.635498046875
1.5637939453124998
1.5911865234375
1.7764892578125
1.9787109374999998
2.72958984375
1.832080078125
1.490478515625
1.4252197265625
1.47275390625
1.5194824218749998
1.542041015625
1.5726562499999999
1.4888671875
1.5082031249999999
1.490478515625
1.4872558593749998
1.490478515625
1.4912841796874998
2.1019775390624997
1.9489013671875
1.4139404296875
1.525927734375
1.4703369140625
1.229443359375
1.119873046875
0.8080810546874999
1.0578369140625
1.300341796875
1.4147460937499998
1.4590576171874998
1.4445556640625
1.490478515625
1.53720703125
1.5146484375
1.56943359375
1.493701171875
1.493701171875
1.5355957031249998
1.50498046875
0.8918701171875
1.0465576171875
1.651611328125
1.529150390625
1.5275390624999998
1.7990478515625
1.832080078125
2.7392578125
1.9271484374999999
1.5702392578125
1.4961181640624999
1.4469726562499998
1.4751708984374998
1.5025634765625
1.5235107421874998
1.5492919921875
1.48564453125
1.4638916015624999
1.50498046875
1.4711425781249998
1.4679199218749999
1.912646484375
2.5732910156249997
1.4832275390624998
1.4598632812499999
1.46953125
1.32451171875
1.2221923828124999
0.734765625
0.9812988281249999
1.232666015625
1.42119140625
1.4719482421874999
1.4598632812499999
1.3921875
1.525927734375
1.5041748046874999
1.561376953125
1.53076171875
1.5218994140625
1.529150390625
1.5299560546875
1.044140625
0.30856933593749997
1.6024658203125
1.4880615234374999
1.55009765625
1.662890625
1.7080078125
2.698974609375
2.2614990234375
1.658056640625
1.52109375
1.46630859375
1.4840332031249999
1.5275390624999998
1.506591796875
1.4864501953125
1.4783935546875
1.5138427734375
1.50498046875
1.4888671875
1.4832275390624998
1.4977294921875
3.0002929687499997
1.5170654296875
1.4719482421874999
1.4961181640624999
1.4356933593749999
1.184326171875
0.7226806640625
0.968408203125
1.1883544921875
1.4203857421875
1.4364990234375
1.4655029296875
1.432470703125
1.5517089843749998
1.5106201171875
1.571044921875
1.5299560546875
1.5073974609374998
1.5299560546875
1.546875
1.4912841796874998
0.0104736328125
1.59521484375
1.593603515625
1.4896728515625
1.63388671875
1.7523193359375
2.2510253906249997
2.6836669921875
1.667724609375
1.4928955078125
1.461474609375
1.4945068359375
1.5380126953125
1.4912841796874998
1.4840332031249999
1.4300537109375
1.4107177734374998
1.482421875
1.506591796875
1.4920898437499999
1.4912841796874998
3.0067382812499996
1.7845458984375
1.4445556640625
1.5517089843749998
1.4203857421875
1.2665039062499999
1.0546142578125
0.93779296875
1.09248046875
1.3414306640625
1.4010498046875
1.4735595703125
1.409912109375
1.4961181640624999
1.5001464843749999
1.5380126953125
1.5436523437499998
1.5412353515625
1.554931640625
1.554931640625
1.482421875
0.0120849609375
1.2342773437499999
1.662890625
1.5114257812499998
1.5887695312499999
1.783740234375
1.9392333984374999
2.802099609375
1.8844482421875
1.5299560546875
1.4558349609374999
1.448583984375
1.4961181640624999
1.4832275390624998
1.5186767578125
1.4945068359375
1.4759765624999999
1.52109375
1.4719482421874999
1.4751708984374998
1.4735595703125
2.5096435546875
2.3323974609375
1.448583984375
1.5283447265624999
1.4501953125
1.252001953125
1.0465576171875
0.7968017578125
0.9812988281249999
1.2270263671875
1.4268310546874998
1.4606689453125
1.4542236328125
1.538818359375
1.522705078125
1.5347900390625
1.5364013671874999
1.5146484375
1.5082031249999999
1.5090087890625
1.5162597656249999
0.42539062499999997
0.607470703125
1.658056640625
1.509814453125
1.55009765625
1.7523193359375
1.8973388671875
2.947119140625
2.1309814453125
1.533984375
1.4783935546875
1.4735595703125
1.4759765624999999
1.506591796875
1.538818359375
1.5001464843749999
1.4920898437499999
1.5001464843749999
1.5033691406249998
1.4735595703125
1.4783935546875
1.4864501953125
2.9656494140625
1.4751708984374998
1.4767822265625
1.5275390624999998
1.2656982421874998
1.1722412109375
0.6227783203124999
0.8991210937499999
1.2101074218749999
1.3905761718749998
1.4139404296875
1.464697265625
1.4840332031249999
1.529150390625
1.5009521484375
1.5323730468749999
1.542041015625
1.5186767578125
1.5218994140625
1.522705078125
1.493701171875
0.4600341796875
1.6435546875
1.546875
1.5315673828124998
1.722509765625
1.7716552734375
2.53623046875
2.2187988281249997
1.6298583984375
1.4816162109375
1.458251953125
1.4735595703125
1.53720703125
1.5090087890625
1.5082031249999999
1.5001464843749999
1.4872558593749998
1.5009521484375
1.474365234375
1.474365234375
1.4832275390624998
3.0002929687499997
1.609716796875
1.4816162109375
1.5589599609375
1.4364990234375
1.2955078125
0.5953857421875
0.8749511718749999
1.087646484375
1.3607666015625
1.44052734375
1.46953125
1.4026611328124998
1.5605712890624999
1.55009765625
1.5492919921875
1.522705078125
1.50498046875
1.5162597656249999
1.5565429687499999
1.496923828125
0.014501953125
1.4034667968749999
1.6314697265625
1.445361328125
1.5678222656249998
1.7901855468749999
2.4322998046874997
2.68125
1.8216064453124998
1.542041015625
1.4848388671875
1.4800048828124999
1.5492919921875
1.4953124999999998
1.5073974609374998
1.46953125
1.4719482421874999
1.5025634765625
1.513037109375
1.5001464843749999
1.496923828125
2.9986816406249996
2.0334960937499997
1.4542236328125
1.5557373046874998
1.4244140625
1.2697265624999998
0.9385986328125
0.837890625
0.9337646484375
1.368017578125
1.4558349609374999
1.4477783203124999
1.4236083984374999
1.5686279296874999
1.5082031249999999
1.538818359375
1.5243164062499999
1.545263671875
1.5347900390625
1.55009765625
1.5041748046874999
0.011279296874999999
0.8580322265625
1.654833984375
1.4832275390624998
1.606494140625
1.7982421874999999
1.980322265625
2.9994873046875
2.067333984375
1.5194824218749998
1.4469726562499998
1.42119140625
1.4993408203124998
1.4630859374999998
1.522705078125
1.5090087890625
1.5025634765625
1.513037109375
1.4896728515625
1.4638916015624999
1.477587890625
1.7458740234374999
2.196240234375
1.42119140625
1.5380126953125
1.509814453125
1.1770751953125
1.0763671875
0.610693359375
0.9345703125
1.235888671875
1.40830078125
1.4501953125
1.4332763671875
1.5073974609374998
1.53720703125
1.5533203125
1.5444580078124999
1.522705078125
1.5146484375
1.5323730468749999
1.5146484375
1.316455078125
0.11843261718749999
1.6814208984374999
1.5033691406249998
1.4888671875
1.7660156249999999
1.8393310546875
2.8230468749999997
2.4524414062499997
1.6282470703124998
1.48564453125
1.4679199218749999
1.490478515625
1.52109375
1.51787109375
1.5138427734375
1.4800048828124999
1.4783935546875
1.5218994140625
1.4864501953125
1.4816162109375
1.4767822265625
2.8858886718749996
1.5186767578125
1.52109375
1.506591796875
1.3341796874999998
1.187548828125
0.594580078125
0.8572265625
1.1214843749999999
1.3849365234375
1.4477783203124999
1.4864501953125
1.44052734375
1.5355957031249998
1.5202880859374999
1.53076171875
1.5243164062499999
1.5202880859374999
1.538818359375
1.5186767578125
1.4953124999999998
0.0443115234375
1.611328125
1.6089111328124999
1.4977294921875
1.6153564453125
1.73056640625
2.1922119140625
2.487890625
1.7297607421874999
1.513037109375
1.47275390625
1.474365234375
1.545263671875
1.5122314453124999
1.5146484375
1.4767822265625
1.4783935546875
1.5009521484375
1.490478515625
1.4832275390624998
1.48564453125
3.001904296875
1.8377197265624998
1.4195800781249999
1.52109375
1.4373046875
1.2536132812499998
0.6767578125
0.823388671875
0.9732421874999999
1.3148437499999999
1.4316650390624999
1.4630859374999998
1.3954101562499999
1.53720703125
1.5218994140625
1.5283447265624999
1.5275390624999998
1.5218994140625
1.525927734375
1.5283447265624999
1.5009521484375
0.011279296874999999
1.216552734375
1.690283203125
1.49853515625
1.60166015625
1.8498046874999998
1.941650390625
2.9390625
1.909423828125
1.55009765625
1.4510009765624998
1.4437499999999999
1.493701171875
1.49853515625
1.5533203125
1.5073974609374998
1.53720703125
1.5090087890625
1.4953124999999998
1.4767822265625
1.4413330078125
2.3759033203124997
2.5064208984375
1.4034667968749999
1.5323730468749999
1.5057861328125
1.2705322265624999
1.0401123046875
0.7178466796874999
0.8362792968749999
1.1996337890625
1.397021484375
1.4510009765624998
1.4606689453125
1.5565429687499999
1.5267333984375
1.5355957031249998
1.5670166015625
1.52109375
1.538818359375
1.5436523437499998
1.4848388671875
0.47373046874999997
0.4084716796875
1.6943115234375
1.5275390624999998
1.5267333984375
1.7039794921875
1.7861572265624999
3.0002929687499997
2.2236328125
1.6363037109374998
1.482421875
1.4703369140625
1.4953124999999998
1.5057861328125
1.5315673828124998
1.4800048828124999
1.474365234375
1.4880615234374999
1.4961181640624999
1.4872558593749998
1.509814453125
1.4872558593749998
2.9994873046875
1.6153564453125
1.4735595703125
1.5170654296875
1.4171630859375
1.1319580078125
0.5132080078125
0.8225830078124999
1.05380859375
1.40185546875
1.41796875
1.46953125
1.4518066406249999
1.52109375
1.538818359375
1.529150390625
1.5154541015624998
1.49853515625
1.5444580078124999
1.5444580078124999
1.5017578125
0.0104736328125
1.496923828125
1.5782958984375
1.496923828125
1.6483886718749998
1.8054931640624998
2.5595947265624996
2.73603515625
1.803076171875
1.4429443359374998
1.4115234374999999
1.4429443359374998
1.458251953125
1.5275390624999998
1.5267333984375
1.5001464843749999
1.5106201171875
1.5299560546875
1.49853515625
1.4800048828124999
1.4872558593749998
3.0059326171875
2.0657226562499997
1.4501953125
1.545263671875
1.4066894531249998
1.235888671875
0.8870361328124999
0.7839111328124999
0.928125
1.3285400390625
1.4364990234375
1.4606689453125
1.3672119140624999
1.574267578125
1.525927734375
1.5396240234374998
1.53076171875
1.5154541015624998
1.5589599609375
1.5299560546875
1.496923828125
0.0088623046875
0.9047607421874999
1.670947265625
1.493701171875
1.6048828124999999
1.8304687499999999
2.0165771484375
3.001904296875
2.0407470703125
1.525927734375
1.4679199218749999
1.464697265625
1.5073974609374998
1.461474609375
1.5170654296875
1.5033691406249998
1.48564453125
1.48564453125
1.4872558593749998
1.4888671875
1.4888671875
1.74345703125
2.152734375
1.40185546875
1.496923828125
1.5138427734375
1.2109130859375
1.0932861328124999
0.5744384765625
0.9112060546874999
1.222998046875
1.40185546875
1.45341796875
1.4389160156249998
1.5218994140625
1.5460693359375
1.5484863281249999
1.55009765625
1.5299560546875
1.5235107421874998
1.5460693359375
1.51787109375
1.1802978515625
0.7549072265625
1.6781982421875
1.4735595703125
1.493701171875
1.786962890625
1.880419921875
2.98740234375
2.1100341796874997
1.6000488281249998
1.4735595703125
1.45341796875
1.4864501953125
1.5275390624999998
1.5202880859374999
1.49853515625
1.5057861328125
1.5283447265624999
1.5033691406249998
1.4840332031249999
1.4953124999999998
1.5082031249999999
2.8834716796874997
1.490478515625
1.4848388671875
1.50498046875
1.3341796874999998
1.2125244140625
0.5671875
0.8709228515624999
1.116650390625
1.3656005859375
1.4155517578124999
1.4590576171874998
1.4252197265625
1.593603515625
1.5428466796875
1.5509033203125
1.5323730468749999
1.5073974609374998
1.5114257812499998
1.52109375
1.490478515625
0.04189453125
1.635498046875
1.6209960937499999
1.4872558593749998
1.6451660156249999
1.7523193359375
2.2276611328125
2.4790283203124996
1.69833984375
1.4832275390624998
1.4783935546875
1.4800048828124999
1.5476806640624998
1.480810546875
1.5364013671874999
1.4800048828124999
1.490478515625
1.4896728515625
1.490478515625
1.4880615234374999
1.5009521484375
3.001904296875
1.8046875
1.38896484375
1.545263671875
1.4397216796874999
1.2318603515625
0.6678955078125
0.8056640625
0.9788818359375
1.3188720703124999
1.432470703125
1.4945068359375
1.413134765625
1.545263671875
1.5235107421874998
1.5162597656249999
1.542041015625
1.5299560546875
1.5251220703125
1.5460693359375
1.4928955078125
0.0104736328125
1.213330078125
1.6773925781249999
1.4671142578124998
1.6427490234375
1.8635009765625
1.9408447265625
2.9680664062499997
1.9231201171874999
1.5541259765625
1.4590576171874998
1.4622802734375
1.506591796875
1.5082031249999999
1.5235107421874998
1.4864501953125
1.4912841796874998
1.4953124999999998
1.5009521484375
1.4864501953125
1.47275390625
2.41376953125
2.4766113281249997
1.4026611328124998
1.509814453125
1.4542236328125
1.222998046875
1.00546875
0.708984375
0.926513671875
1.198828125
1.4123291015625
1.47275390625
1.4872558593749998
1.53076171875
1.5114257812499998
1.545263671875
1.545263671875
1.5106201171875
1.5114257812499998
1.5267333984375
1.5645996093749999
0.5631591796875
0.44794921875
1.7007568359374998
1.4832275390624998
1.5114257812499998
1.716064453125
1.90458984375
3.001904296875
2.2824462890625
1.6209960937499999
1.4373046875
1.442138671875
1.4655029296875
1.49853515625
1.5001464843749999
1.5017578125
1.4993408203124998
1.506591796875
1.5146484375
1.513037109375
1.542041015625
1.4993408203124998
2.9994873046875
1.4115234374999999
1.4558349609374999
1.5323730468749999
1.2157470703125
1.1077880859375
0.515625
0.887841796875
1.1657958984374999
1.4115234374999999
1.4501953125
1.4751708984374998
1.4767822265625
1.5436523437499998
1.5235107421874998
1.5364013671874999
1.5525146484374999
1.5033691406249998
1.5082031249999999
1.5162597656249999
1.5001464843749999
0.0088623046875
1.7080078125
1.571044921875
1.5194824218749998
1.7249267578124998
1.780517578125
2.578125
2.6965576171874996
1.6137451171875
1.4606689453125
1.4493896484375
1.4598632812499999
1.5404296874999999
1.5106201171875
1.51787109375
1.490478515625
1.5122314453124999
1.5122314453124999
1.477587890625
1.506591796875
1.493701171875
3.001904296875
1.6177734375
1.4381103515625
1.5702392578125
1.4155517578124999
1.2544189453124999
0.87978515625
0.845947265625
1.0642822265625
1.3317626953125
1.397021484375
1.4373046875
1.3954101562499999
1.5791015625
1.5202880859374999
1.5331787109375
1.529150390625
1.529150390625
1.5492919921875
1.5162597656249999
1.490478515625
0.014501953125
1.456640625
1.65966796875
1.5073974609374998
1.6242187499999998
1.8506103515624999
2.02705078125
2.753759765625
1.8224121093749999
1.49853515625
1.4606689453125
1.448583984375
1.5218994140625
1.4477783203124999
1.5194824218749998
1.5154541015624998
1.4840332031249999
1.50498046875
1.4945068359375
1.4832275390624998
1.4888671875
2.9785400390624996
2.164013671875
1.38896484375
1.5396240234374998
1.448583984375
1.18916015625
0.7935791015625
0.878173828125
0.9095947265625
1.2310546875
1.397021484375
1.4373046875
1.432470703125
1.5436523437499998
1.5436523437499998
1.542041015625
1.533984375
1.5202880859374999
1.5315673828124998
1.5444580078124999
1.4961181640624999
0.011279296874999999
0.7806884765625
1.732177734375
1.4767822265625
1.585546875
1.8135498046874998
1.8667236328124999
2.9994873046875
2.02705078125
1.59521484375
1.4381103515625
1.4590576171874998
1.513037109375
1.4945068359375
1.5436523437499998
1.506591796875
1.461474609375
1.4791992187499998
1.4920898437499999
1.4953124999999998
1.48564453125
1.5678222656249998
2.8995849609374997
1.4236083984374999
1.5041748046874999
1.51787109375
1.3301513671874998
1.0916748046875
0.5422119140625
0.8564208984374999
1.2044677734375
1.4139404296875
1.4550292968749998
1.4679199218749999
1.46953125
1.5041748046874999
1.538818359375
1.55009765625
1.5444580078124999
1.5033691406249998
1.5444580078124999
1.533984375
1.2914794921875
0.0604248046875
1.67900390625
1.5355957031249998
1.5484863281249999
1.6242187499999998
1.8224121093749999
3.0010986328125
2.29453125
1.5831298828125
1.4687255859375
1.4501953125
1.448583984375
1.5404296874999999
1.4800048828124999
1.4872558593749998
1.49853515625
1.5090087890625
1.542041015625
1.5283447265624999
1.5057861328125
1.5073974609374998
3.003515625
1.5146484375
1.4751708984374998
1.5758789062499998
1.3301513671874998
1.2141357421874999
0.6566162109375
0.8765624999999999
1.0642822265625
1.3502929687499998
1.429248046875
1.4638916015624999
1.40185546875
1.53720703125
1.5138427734375
1.5436523437499998
1.5355957031249998
1.533984375
1.533984375
1.53720703125
1.5073974609374998
0.009667968749999999
1.5919921874999998
1.6451660156249999
1.4751708984374998
1.60166015625
1.7813232421874998
2.1076171875
2.9817626953125
1.7531249999999998
1.4638916015624999
1.4501953125
1.4542236328125
1.5637939453124998
1.5073974609374998
1.5275390624999998
1.4751708984374998
1.480810546875
1.4977294921875
1.5001464843749999
1.5001464843749999
1.4751708984374998
2.3050048828125
1.896533203125
1.397021484375
1.546875
1.4397216796874999
1.1996337890625
1.0143310546875
0.6703125
0.9627685546875
1.2721435546875
1.3954101562499999
1.4687255859375
1.4228027343749998
1.538818359375
1.52109375
1.5396240234374998
1.542041015625
1.51787109375
1.525927734375
1.5662109375
1.4928955078125
0.6332519531249999
1.071533203125
1.7023681640625
1.533984375
1.496923828125
1.8296630859374998
1.928759765625
3.0083496093749997
1.9521240234375
1.5517089843749998
1.4558349609374999
1.4493896484375
1.5186767578125
1.506591796875
1.53076171875
1.490478515625
1.4791992187499998
1.513037109375
1.5017578125
1.4783935546875
1.4783935546875
2.0890869140625
2.66513671875
1.4413330078125
1.4703369140625
1.5057861328125
1.26328125
1.1448486328125
0.66064453125
0.8789794921874999
1.164990234375
1.3704345703124998
1.4542236328125
1.4832275390624998
1.4687255859375
1.5194824218749998
1.529150390625
1.5194824218749998
1.509814453125
1.5283447265624999
1.529150390625
1.5315673828124998
0.717041015625
0.2940673828125
1.7080078125
1.56943359375
1.522705078125
1.7128417968749998
1.8087158203125
2.9994873046875
2.2099365234375
1.609716796875
1.474365234375
1.4719482421874999
1.4735595703125
1.554931640625
1.542041015625
1.5017578125
1.4912841796874998
1.4896728515625
1.513037109375
1.5114257812499998
1.4912841796874998
1.4848388671875
3.003515625
1.625830078125
1.4735595703125
1.5364013671874999
1.4364990234375
1.255224609375
0.5204589843749999
0.8531982421875
1.02158203125
1.3768798828125
1.4268310546874998
1.4518066406249999
1.3849365234375
1.5186767578125
1.53076171875
1.5243164062499999
1.5138427734375
1.5283447265624999
1.538818359375
1.5621826171875
1.5380126953125
0.011279296874999999
1.4445556640625
1.6822265625
1.4961181640624999
1.5984375
1.8256347656249998
2.3614013671875
2.78759765625
1.7942138671874999
1.4679199218749999
1.4437499999999999
1.464697265625
1.5476806640624998
1.4993408203124998
1.5194824218749998
1.4880615234374999
1.522705078125
1.49853515625
1.4759765624999999
1.4679199218749999
1.5154541015624998
2.9438964843749997
2.2365234375
1.45341796875
1.5750732421875
1.4381103515625
1.21171875
0.9869384765625
0.7339599609374999
0.8934814453125
1.3269287109374999
1.4107177734374998
1.4550292968749998
1.3873535156249999
1.5492919921875
1.522705078125
1.5436523437499998
1.5404296874999999
1.5090087890625
1.5243164062499999
1.529150390625
1.513037109375
0.0120849609375
0.736376953125
1.706396484375
1.496923828125
1.5839355468749998
1.7635986328125
1.96904296875
3.005126953125
2.101171875
1.5090087890625
1.45341796875
1.464697265625
1.4912841796874998
1.4928955078125
1.5436523437499998
1.4953124999999998
1.477587890625
1.5082031249999999
1.5033691406249998
1.5001464843749999
1.49853515625
1.5170654296875
2.940673828125
1.3857421875
1.4832275390624998
1.529150390625
1.2181640624999999
1.1319580078125
0.5389892578125
0.897509765625
1.203662109375
1.409912109375
1.442138671875
1.4348876953124998
1.5041748046874999
1.5412353515625
1.525927734375
1.5412353515625
1.5331787109375
1.5267333984375
1.5347900390625
1.5243164062499999
1.4687255859375
0.013696289062499999
1.7208984374999998
1.5605712890624999
1.5146484375
1.783740234375
1.8119384765625
2.7722900390625
2.5354248046874996
1.5686279296874999
1.4574462890625
1.4719482421874999
1.5009521484375
1.542041015625
1.5106201171875
1.5275390624999998
1.4590576171874998
1.480810546875
1.5041748046874999
1.4816162109375
1.4872558593749998
1.4896728515625
2.99384765625
1.52109375
1.4671142578124998
1.5911865234375
1.3825195312499998
1.2350830078125
0.6501708984375
0.8515869140625
1.0707275390625
1.35673828125
1.4066894531249998
1.4510009765624998
1.3986328124999998
1.56298828125
1.5517089843749998
1.5605712890624999
1.546875
1.5106201171875
1.5154541015624998
1.5654052734375
1.509814453125
0.012890625
1.5791015625
1.6322753906249998
1.4880615234374999
1.6475830078125
1.7619873046874999
2.0906982421875
2.9205322265625
1.7378173828124999
1.4912841796874998
1.4703369140625
1.4816162109375
1.5404296874999999
1.5017578125
1.5090087890625
1.46953125
1.4832275390624998
1.5283447265624999
1.490478515625
1.4783935546875
1.4920898437499999
2.9978759765625
1.880419921875
1.4042724609375
1.5597656249999998
1.4364990234375
1.17626953125
1.029638671875
0.8596435546875
1.0062744140625
1.2930908203125
1.4252197265625
1.4590576171874998
1.3792968749999999
1.48564453125
1.4920898437499999
1.5509033203125
1.5323730468749999
1.5412353515625
1.554931640625
1.5750732421875
1.5347900390625
0.012890625
1.0836181640625
1.7088134765624998
1.4816162109375
1.5976318359375
1.8264404296874999
1.8820312499999998
3.0002929687499997
1.944873046875
1.5492919921875
1.464697265625
1.4630859374999998
1.4912841796874998
1.5073974609374998
1.558154296875
1.4791992187499998
1.5001464843749999
1.513037109375
1.5170654296875
1.4558349609374999
1.4872558593749998
1.9843505859375
2.6675537109375
1.47275390625
1.53076171875
1.4961181640624999
1.2785888671874999
1.061865234375
0.7436279296874999
0.8523925781249999
1.1561279296875
1.4155517578124999
1.426025390625
1.4381103515625
1.52109375
1.5073974609374998
1.5106201171875
1.5597656249999998
1.5315673828124998
1.5138427734375
1.5476806640624998
1.529150390625
0.8967041015624999
0.25217285156249997
1.6959228515625
1.525927734375
1.5509033203125
1.6725585937499998
1.7611816406249998
3.0010986328125
2.289697265625
1.6330810546874999
1.4751708984374998
1.474365234375
1.4687255859375
1.5484863281249999
1.5154541015624998
1.496923828125
1.4671142578124998
1.4896728515625
1.51787109375
1.4961181640624999
1.496923828125
1.4993408203124998
3.0027099609374996
1.6427490234375
1.4550292968749998
1.5460693359375
1.4171630859375
1.2125244140625
0.5865234375
0.910400390625
1.055419921875
1.405078125
1.4526123046875
1.4735595703125
1.4550292968749998
1.5484863281249999
1.5082031249999999
1.5243164062499999
1.5138427734375
1.50498046875
1.5138427734375
1.513037109375
1.4953124999999998
0.0104736328125
1.6878662109375
1.6008544921874999
1.4912841796874998
1.5960205078124998
1.7652099609374998
2.2985595703125
2.827880859375
1.6846435546874998
1.493701171875
1.4558349609374999
1.480810546875
1.5533203125
1.5033691406249998
1.5162597656249999
1.490478515625
1.4800048828124999
1.4920898437499999
1.4848388671875
1.4791992187499998
1.474365234375
3.0010986328125
1.73056640625
1.4042724609375
1.538818359375
1.4687255859375
1.2640869140625
1.03125
0.8950927734374999
1.02802734375
1.3261230468749998
1.4308593749999998
1.4550292968749998
1.4107177734374998
1.545263671875
1.5154541015624998
1.5267333984375
1.5299560546875
1.53720703125
1.5364013671874999
1.5186767578125
1.4880615234374999
0.0104736328125
1.2802001953125
1.667724609375
1.5122314453124999
1.6330810546874999
1.812744140625
1.9198974609375
2.866552734375
1.8731689453125
1.5146484375
1.48564453125
1.4920898437499999
1.5057861328125
1.5073974609374998
1.5114257812499998
1.4872558593749998
1.4864501953125
1.493701171875
1.4912841796874998
1.4800048828124999
1.4840332031249999
2.5007812499999997
2.3372314453125
1.4091064453125
1.533984375
1.4800048828124999
1.229443359375
1.0385009765625
0.7879394531249999
0.9579345703125
1.33740234375
1.4268310546874998
1.4510009765624998
1.4638916015624999
1.5364013671874999
1.5090087890625
1.5202880859374999
1.533984375
1.5347900390625
1.5404296874999999
1.5323730468749999
1.4953124999999998
0.45842285156249996
0.5712158203125
1.7096191406249999
1.5186767578125
1.5525146484374999
1.7265380859375
1.8892822265625
2.9455078125
2.1591796875
1.5960205078124998
1.4848388671875
1.4638916015624999
1.4816162109375
1.509814453125
1.5444580078124999
1.496923828125
1.4832275390624998
1.5186767578125
1.5041748046874999
1.5033691406249998
1.4791992187499998
1.48564453125
2.977734375
1.4606689453125
1.4501953125
1.522705078125
1.2141357421874999
1.1295410156249999
0.6002197265625
0.9007324218749999
1.2157470703125
1.4228027343749998
1.482421875
1.490478515625
1.4928955078125
1.5380126953125
1.5315673828124998
1.5331787109375
1.5355957031249998
1.513037109375
1.5299560546875
1.522705078125
1.5025634765625
0.0120849609375
1.6798095703125
1.5654052734375
1.5025634765625
1.7128417968749998
1.7611816406249998
2.4790283203124996
2.5547607421875
1.6161621093749998
1.496923828125
1.4606689453125
1.4832275390624998
1.5573486328125
1.50498046875
1.490478515625
1.4622802734375
1.4928955078125
1.5194824218749998
1.49853515625
1.509814453125
1.5106201171875
3.0027099609374996
1.635498046875
1.4437499999999999
1.5251220703125
1.3986328124999998
1.2608642578125
0.90234375
0.9192626953124999
1.106982421875
1.348681640625
1.377685546875
1.4679199218749999
1.4139404296875
1.5662109375
1.5331787109375
1.5283447265624999
1.53720703125
1.5218994140625
1.5243164062499999
1.5396240234374998
1.493701171875
0.012890625
1.4888671875
1.6765869140624998
1.5025634765625
1.622607421875
1.7692382812499998
1.9666259765624998
2.5595947265624996
1.7337890624999999
1.4832275390624998
1.4493896484375
1.46953125
1.5235107421874998
1.5243164062499999
1.5267333984375
1.49853515625
1.5017578125
1.5025634765625
1.496923828125
1.4783935546875
1.474365234375
2.8576904296874996
2.080224609375
1.4364990234375
1.529150390625
1.4236083984374999
1.2052734375
0.928125
0.929736328125
1.0094970703125
1.351904296875
1.4252197265625
1.461474609375
1.4429443359374998
1.5662109375
1.5170654296875
1.542041015625
1.5323730468749999
1.5202880859374999
1.5243164062499999
1.5323730468749999
1.5186767578125
0.0298095703125
0.9249023437499999
1.651611328125
1.5057861328125
1.5847412109374999
1.7668212890625
1.95615234375
2.8995849609374997
1.972265625
1.490478515625
1.4671142578124998
1.4550292968749998
1.5218994140625
1.4880615234374999
1.5194824218749998
1.4920898437499999
1.4896728515625
1.5041748046874999
1.48564453125
1.4783935546875
1.496923828125
1.6910888671875
2.1358154296875
1.40830078125
1.4920898437499999
1.51787109375
1.2141357421874999
1.1295410156249999
0.7218749999999999
0.9877441406249999
1.2938964843749998
1.4389160156249998
1.4493896484375
1.4751708984374998
1.5162597656249999
1.5323730468749999
1.522705078125
1.542041015625
1.513037109375
1.5146484375
1.5283447265624999
1.49853515625
1.3092041015625
0.7887451171875
1.6846435546874998
1.5412353515625
1.574267578125
1.7772949218749998
1.7934082031249998
2.6901123046874997
2.02705078125
1.561376953125
1.4735595703125
1.4510009765624998
1.4832275390624998
1.538818359375
1.5492919921875
1.5025634765625
1.4961181640624999
1.490478515625
1.4945068359375
1.493701171875
1.4912841796874998
1.5734619140625
2.7884033203125
1.5218994140625
1.4832275390624998
1.5186767578125
1.3365966796875
1.2528076171875
0.7404052734375
0.9321533203125
1.1593505859375
1.429248046875
1.4606689453125
1.4840332031249999
1.4429443359374998
1.5412353515625
1.525927734375
1.5355957031249998
1.5154541015624998
1.5235107421874998
1.5162597656249999
1.5146484375
1.4316650390624999
0.1232666015625
1.5847412109374999
1.5702392578125
1.525927734375
1.603271484375
1.8087158203125
2.6014892578124997
2.358984375
1.67578125
1.46630859375
1.4518066406249999
1.4864501953125
1.533984375
1.525927734375
1.5202880859374999
1.48564453125
1.4953124999999998
1.509814453125
1.4961181640624999
1.4920898437499999
1.480810546875
3.001904296875
1.56943359375
1.493701171875
1.529150390625
1.3913818359374999
1.2576416015624998
0.7855224609375
0.93779296875
1.15048828125
1.3736572265625
1.4276367187499999
1.461474609375
1.4348876953124998
1.5509033203125
1.5243164062499999
1.529150390625
1.53720703125
1.5073974609374998
1.5380126953125
1.5170654296875
1.5082031249999999
0.008056640625
1.5243164062499999
1.6403320312499998
1.4993408203124998
1.6177734375
1.7378173828124999
2.0278564453125
2.7916259765625
1.6967285156249998
1.48564453125
1.4671142578124998
1.4848388671875
1.5275390624999998
1.482421875
1.5122314453124999
1.493701171875
1.480810546875
1.4920898437499999
1.4896728515625
1.4880615234374999
1.49853515625
2.9922363281249997
1.8876708984375
1.3857421875
1.525927734375
1.45341796875
1.232666015625
1.1110107421875
0.952294921875
1.055419921875
1.316455078125
1.4381103515625
1.4703369140625
1.4373046875
1.529150390625
1.5267333984375
1.5235107421874998
1.525927734375
1.5154541015624998
1.538818359375
1.533984375
1.4896728515625
0.0104736328125
1.11181640625
1.667724609375
1.496923828125
1.611328125
1.799853515625
1.8586669921874999
2.802099609375
1.8707519531249999
1.525927734375
1.474365234375
1.4703369140625
1.4993408203124998
1.4912841796874998
1.51787109375
1.506591796875
1.4767822265625
1.506591796875
1.4896728515625
1.4864501953125
1.5138427734375
2.0117431640625
2.5072265624999996
1.4066894531249998
1.5267333984375
1.4735595703125
1.2947021484374999
1.116650390625
0.8854248046875
0.9555175781249999
1.3100097656249998
1.4236083984374999
1.4558349609374999
1.4751708984374998
1.5275390624999998
1.522705078125
1.5355957031249998
1.5444580078124999
1.5275390624999998
1.5162597656249999
1.5235107421874998
1.513037109375
0.903955078125
0.40927734374999997
1.69833984375
1.52109375
1.5460693359375
1.7853515624999998
1.8264404296874999
2.7674560546875
2.1567626953125
1.53076171875
1.493701171875
1.4671142578124998
1.4961181640624999
1.5170654296875
1.51787109375
1.496923828125
1.4783935546875
1.50498046875
1.50498046875
1.4848388671875
1.4791992187499998
1.4953124999999998
2.5902099609375
1.493701171875
1.4703369140625
1.4816162109375
1.3067871093749999
1.2302490234374999
0.733154296875
0.966796875
1.203662109375
1.4115234374999999
1.4493896484375
1.47275390625
1.456640625
1.525927734375
1.525927734375
1.542041015625
1.5355957031249998
1.529150390625
1.5154541015624998
1.529150390625
1.4928955078125
0.3440185546875
1.6218017578125
1.5960205078124998
1.5605712890624999
1.6604736328124998
1.7184814453125
2.7739013671875
2.204296875
1.6201904296874998
1.5009521484375
1.4671142578124998
1.4687255859375
1.5460693359375
1.5283447265624999
1.5033691406249998
1.482421875
1.482421875
1.5082031249999999
1.50498046875
1.4872558593749998
1.4888671875
3.001904296875
1.7128417968749998
1.4679199218749999
1.529150390625
1.4244140625
1.2302490234374999
0.7315429687499999
0.9772705078124999
1.1045654296875
1.4123291015625
1.44052734375
1.4848388671875
1.4066894531249998
1.53076171875
1.5235107421874998
1.5275390624999998
1.5057861328125
1.5146484375
1.525927734375
1.53076171875
1.5001464843749999
0.011279296874999999
1.34384765625
1.6048828124999999
1.4961181640624999
1.5887695312499999
1.740234375
2.1785156249999997
2.631298828125
1.796630859375
1.48564453125
1.4711425781249998
1.4783935546875
1.542041015625
1.522705078125
1.513037109375
1.4791992187499998
1.4759765624999999
1.5073974609374998
1.5090087890625
1.48564453125
1.5009521484375
2.518505859375
1.77568359375
1.4332763671875
1.5380126953125
1.4389160156249998
1.268115234375
1.0014404296875
0.9627685546875
1.06669921875
1.3494873046875
1.4284423828125
1.4719482421874999
1.4203857421875
1.5509033203125
1.5138427734375
1.533984375
1.53720703125
1.5355957031249998
1.5057861328125
1.5299560546875
1.5057861328125
0.0104736328125
1.2818115234374998
1.6693359374999999
1.5090087890625
1.593603515625
1.7982421874999999
1.869140625
2.6619140624999997
1.7861572265624999
1.5082031249999999
1.4888671875
1.4719482421874999
1.5090087890625
1.48564453125
1.525927734375
1.4961181640624999
1.4888671875
1.5001464843749999
1.4977294921875
1.49853515625
1.4993408203124998
2.3597900390624997
2.289697265625
1.4268310546874998
1.5412353515625
1.4630859374999998
1.2544189453124999
1.0852294921874999
0.8822021484375
1.0175537109375
1.26005859375
1.4461669921875
1.4542236328125
1.4606689453125
1.4711425781249998
1.5162597656249999
1.5186767578125
1.5275390624999998
1.53076171875
1.5283447265624999
1.5428466796875
1.5186767578125
0.5607421874999999
0.6308349609374999
1.66611328125
1.5122314453124999
1.53076171875
1.7088134765624998
1.877197265625
2.848828125
2.0745849609375
1.5984375
1.4912841796874998
1.4840332031249999
1.4791992187499998
1.49853515625
1.5380126953125
1.5041748046874999
1.4848388671875
1.5017578125
1.5114257812499998
1.5033691406249998
1.48564453125
1.4993408203124998
2.89072265625
1.4461669921875
1.46630859375
1.5380126953125
1.284228515625
1.198828125
0.6912597656249999
0.9611572265624999
1.239111328125
1.4268310546874998
1.4469726562499998
1.458251953125
1.4864501953125
1.5476806640624998
1.5243164062499999
1.538818359375
1.525927734375
1.5073974609374998
1.513037109375
1.5122314453124999
1.5017578125
0.046728515624999994
1.6612792968749999
1.5686279296874999
1.5235107421874998
1.690283203125
1.7635986328125
2.4645263671874997
2.4468017578125
1.5831298828125
1.4896728515625
1.4638916015624999
1.4888671875
1.53076171875
1.5114257812499998
1.5073974609374998
1.4800048828124999
1.50498046875
1.5154541015624998
1.490478515625
1.4977294921875
1.50498046875
2.9422851562499996
1.6153564453125
1.4590576171874998
1.5243164062499999
1.3962158203125
1.284228515625
0.91845703125
0.95390625
1.1279296875
1.3921875
1.4316650390624999
1.4791992187499998
1.4115234374999999
1.5799072265624998
1.5073974609374998
1.5251220703125
1.5251220703125
1.5170654296875
1.5283447265624999
1.525927734375
1.509814453125
0.015307617187499999
1.4518066406249999
1.65
1.53076171875
1.6234130859375
1.73056640625
1.9464843749999998
2.4911132812499996
1.7257324218749999
1.4953124999999998
1.4783935546875
1.4759765624999999
1.533984375
1.4977294921875
1.5154541015624998
1.4896728515625
1.5009521484375
1.496923828125
1.5033691406249998
1.490478515625
1.4880615234374999
2.792431640625
2.0197998046875
1.4461669921875
1.5347900390625
1.4139404296875
1.2399169921875
0.9772705078124999
0.9498779296875
1.036083984375
1.3672119140624999
1.4397216796874999
1.4671142578124998
1.4429443359374998
1.561376953125
1.5033691406249998
1.5186767578125
1.513037109375
1.51787109375
1.546875
1.5299560546875
1.4977294921875
0.1119873046875
0.9410156249999999
1.6822265625
1.5025634765625
1.5686279296874999
1.78857421875
1.9102294921874998
2.8166015625
1.9376220703125
1.493701171875
1.4832275390624998
1.4848388671875
1.5218994140625
1.4791992187499998
1.5243164062499999
1.48564453125
1.4800048828124999
1.5090087890625
1.5082031249999999
1.4840332031249999
1.5001464843749999
1.6886718749999998
2.1213134765625
1.4268310546874998
1.4800048828124999
1.4429443359374998
1.2431396484375
1.1674072265625
0.8024414062499999
1.0094970703125
1.2890625
1.4356933593749999
1.4622802734375
1.4445556640625
1.5001464843749999
1.5299560546875
1.5347900390625
1.538818359375
1.533984375
1.5436523437499998
1.538818359375
1.5251220703125
0.2022216796875
0.8451416015625
1.67578125
1.5355957031249998
1.571044921875
1.7281494140625
1.79501953125
2.848828125
1.973876953125
1.5541259765625
1.4735595703125
1.474365234375
1.4912841796874998
1.5396240234374998
1.5251220703125
1.5138427734375
1.5001464843749999
1.4872558593749998
1.4961181640624999
1.50498046875
1.490478515625
1.577490234375
2.747314453125
1.5355957031249998
1.4872558593749998
1.5073974609374998
1.3801025390625
1.1641845703125
0.7484619140625
0.9804931640625
1.18271484375
1.4316650390624999
1.46630859375
1.5170654296875
1.4236083984374999
1.538818359375
1.5170654296875
1.52109375
1.5162597656249999
1.5017578125
1.529150390625
1.51787109375
1.3543212890624998
0.18691406249999998
1.571044921875
1.5541259765625
1.529150390625
1.62744140625
1.7958251953125
2.6675537109375
2.292919921875
1.6371093749999999
1.4864501953125
1.4510009765624998
1.4751708984374998
1.53720703125
1.5162597656249999
1.5122314453124999
1.4880615234374999
1.5122314453124999
1.5122314453124999
1.4783935546875
1.5001464843749999
1.4880615234374999
2.9914306640625
1.546875
1.4655029296875
1.5460693359375
1.361572265625
1.2947021484374999
0.813720703125
0.961962890625
1.16337890625
1.384130859375
1.4493896484375
1.4711425781249998
1.4300537109375
1.5492919921875
1.5170654296875
1.5275390624999998
1.5323730468749999
1.5122314453124999
1.5315673828124998
1.5299560546875
1.4896728515625
0.088623046875
1.5315673828124998
1.6322753906249998
1.5162597656249999
1.622607421875
1.7313720703125
2.0326904296875
2.402490234375
1.6927001953124998
1.493701171875
1.461474609375
1.4719482421874999
1.5355957031249998
1.5017578125
1.513037109375
1.4928955078125
1.4791992187499998
1.5090087890625
1.4953124999999998
1.4920898437499999
1.4945068359375
2.963232421875
1.880419921875
1.4066894531249998
1.51787109375
1.4389160156249998
1.2592529296875
0.8419189453125
0.9611572265624999
1.0707275390625
1.329345703125
1.432470703125
1.474365234375
1.4316650390624999
1.5323730468749999
1.5347900390625
1.538818359375
1.5355957031249998
1.49853515625
1.5218994140625
1.5404296874999999
1.5090087890625
0.014501953125
1.1190673828125
1.6564453124999998
1.5186767578125
1.5968261718749999
1.7845458984375
1.95615234375
2.7690673828124996
1.8868652343749999
1.5436523437499998
1.4638916015624999
1.4606689453125
1.5017578125
1.5138427734375
1.5275390624999998
1.4848388671875
1.4945068359375
1.5041748046874999
1.5033691406249998
1.5017578125
1.493701171875
2.044775390625
2.4419677734375
1.400244140625
1.529150390625
1.4872558593749998
1.2350830078125
1.1222900390625
0.807275390625
1.0119140625
1.3108154296874999
1.42119140625
1.4679199218749999
1.426025390625
1.5299560546875
1.5122314453124999
1.5364013671874999
1.5323730468749999
1.5073974609374998
1.5194824218749998
1.5122314453124999
1.4961181640624999
0.8588378906249999
0.49387207031249997
1.690283203125
1.538818359375
1.5533203125
1.7732666015624998
1.8361083984375
2.8456054687499996
1.8892822265625
1.529150390625
1.464697265625
1.46630859375
1.5082031249999999
1.5218994140625
1.5331787109375
1.493701171875
1.46630859375
1.4961181640624999
1.4977294921875
1.4880615234374999
1.4896728515625
1.4800048828124999
2.521728515625
1.4598632812499999
1.4703369140625
1.4864501953125
1.3527099609375
1.203662109375
0.878173828125
0.978076171875
1.2374999999999998
1.4107177734374998
1.4598632812499999
1.464697265625
1.4550292968749998
1.5428466796875
1.5347900390625
1.5380126953125
1.53076171875
1.51787109375
1.5380126953125
1.5251220703125
1.069921875
0.38107910156249997
1.622607421875
1.585546875
1.5428466796875
1.63388671875
1.722509765625
2.6780273437499997
2.23330078125
1.6298583984375
1.48564453125
1.4711425781249998
1.4791992187499998
1.5364013671874999
1.5283447265624999
1.509814453125
1.4791992187499998
1.4953124999999998
1.513037109375
1.4961181640624999
1.4912841796874998
1.490478515625
2.989013671875
1.7120361328125
1.4735595703125
1.506591796875
1.4195800781249999
1.2479736328125
0.7549072265625
0.992578125
1.1142333984375
1.4147460937499998
1.4381103515625
1.4655029296875
1.4300537109375
1.5331787109375
1.525927734375
1.5428466796875
1.5251220703125
1.5114257812499998
1.5122314453124999
1.5146484375
1.5122314453124999
0.011279296874999999
1.3261230468749998
1.587158203125
1.5170654296875
1.6121337890624998
1.7257324218749999
2.1551513671875
2.618408203125
1.65966796875
1.4888671875
1.482421875
1.4800048828124999
1.53076171875
1.5017578125
1.51787109375
1.493701171875
1.493701171875
1.4993408203124998
1.49853515625
1.493701171875
1.4993408203124998
2.5515380859374996
1.7362060546875
1.426025390625
1.5364013671874999
1.4332763671875
1.2753662109375
1.0675048828125
0.9071777343749999
1.110205078125
1.3728515625
1.4268310546874998
1.46630859375
1.4147460937499998
1.5557373046874998
1.5138427734375
1.5436523437499998
1.5412353515625
1.5001464843749999
1.5347900390625
1.5235107421874998
1.5073974609374998
0.0120849609375
1.284228515625
1.6806152343749998
1.5218994140625
1.6056884765625
1.7829345703125
1.864306640625
2.6361328124999996
1.80791015625
1.5331787109375
1.4759765624999999
1.4703369140625
1.5170654296875
1.4783935546875
1.5218994140625
1.4945068359375
1.4840332031249999
1.5017578125
1.5114257812499998
1.5009521484375
1.4961181640624999
2.3904052734375
2.2421630859375
1.4373046875
1.542041015625
1.4751708984374998
1.2560302734375
1.10859375
0.8918701171875
0.994189453125
1.2584472656249999
1.4381103515625
1.4638916015624999
1.4679199218749999
1.5380126953125
1.529150390625
1.53720703125
1.5299560546875
1.5122314453124999
1.5202880859374999
1.5275390624999998
1.5001464843749999
0.546240234375
0.6759521484375
1.66611328125
1.5041748046874999
1.554931640625
1.71123046875
1.867529296875
2.776318359375
2.0761962890625
1.5186767578125
1.4840332031249999
1.46630859375
1.4719482421874999
1.5041748046874999
1.5533203125
1.5082031249999999
1.4751708984374998
1.49853515625
1.5041748046874999
1.5057861328125
1.5122314453124999
1.5033691406249998
2.824658203125
1.4397216796874999
1.4606689453125
1.5090087890625
1.3011474609375
1.21494140625
0.74443359375
0.9812988281249999
1.26005859375
1.413134765625
1.456640625
1.4703369140625
1.482421875
1.522705078125
1.522705078125
1.529150390625
1.5355957031249998
1.5138427734375
1.5202880859374999
1.5162597656249999
1.4783935546875
0.588134765625
1.662890625
1.56943359375
1.53076171875
1.67900390625
1.75634765625
2.3887939453125
2.1068115234375
1.6105224609375
1.4791992187499998
1.4630859374999998
1.4872558593749998
1.542041015625
1.5009521484375
1.5170654296875
1.5001464843749999
1.50498046875
1.5082031249999999
1.4912841796874998
1.4912841796874998
1.4993408203124998
2.89716796875
1.5976318359375
1.45341796875
1.5251220703125
1.42119140625
1.276171875
0.736376953125
1.0111083984375
1.152099609375
1.380908203125
1.4477783203124999
1.4800048828124999
1.4155517578124999
1.529150390625
1.5186767578125
1.5428466796875
1.5267333984375
1.5267333984375
1.5331787109375
1.53076171875
1.5275390624999998
0.0346435546875
1.429248046875
1.571044921875
1.493701171875
1.5911865234375
1.7507080078125
2.2832519531249997
2.486279296875
1.7313720703125
1.4961181640624999
1.4719482421874999
1.482421875
1.5428466796875
1.4977294921875
1.5114257812499998
1.48564453125
1.4928955078125
1.4896728515625
1.5041748046874999
1.4872558593749998
1.509814453125
2.7489257812499996
1.6588623046875
1.4574462890625
1.5218994140625
1.4252197265625
1.2858398437499998
0.97646484375
0.9635742187499999
1.142431640625
1.3784912109374998
1.4381103515625
1.4888671875
1.4195800781249999
1.5645996093749999
1.5106201171875
1.533984375
1.5436523437499998
1.5251220703125
1.5162597656249999
1.5299560546875
1.5202880859374999
0.12165527343749999
1.416357421875
1.6363037109374998
1.5025634765625
1.574267578125
1.7861572265624999
1.899755859375
2.7561767578125
1.7426513671875
1.5090087890625
1.477587890625
1.4711425781249998
1.5396240234374998
1.4880615234374999
1.5122314453124999
1.4872558593749998
1.4872558593749998
1.513037109375
1.490478515625
1.5017578125
1.5017578125
2.6232421875
2.096337890625
1.416357421875
1.4832275390624998
1.4332763671875
1.2560302734375
1.1923828125
0.9224853515625
1.0723388671875
1.287451171875
1.4219970703125
1.4719482421874999
1.46630859375
1.5154541015624998
1.52109375
1.5396240234374998
1.5347900390625
1.4953124999999998
1.5138427734375
1.51787109375
1.5154541015624998
0.2505615234375
0.8668945312499999
1.6653076171874999
1.5017578125
1.5839355468749998
1.75634765625
1.8232177734375
2.7916259765625
1.960986328125
1.5726562499999999
1.46953125
1.4638916015624999
1.490478515625
1.49853515625
1.5186767578125
1.5017578125
1.4912841796874998
1.50498046875
1.4920898437499999
1.4945068359375
1.4783935546875
1.619384765625
2.6748046875
1.4284423828125
1.5009521484375
1.5146484375
1.3559326171875
1.1786865234375
0.7879394531249999
0.9917724609374999
1.2898681640624998
1.4236083984374999
1.4630859374999998
1.480810546875
1.4993408203124998
1.5347900390625
1.5170654296875
1.5331787109375
1.5323730468749999
1.5073974609374998
1.5380126953125
1.506591796875
1.3672119140624999
0.20866699218749998
1.6749755859375
1.56298828125
1.509814453125
1.6371093749999999
1.791796875
2.5160888671875
2.318701171875
1.558154296875
1.4791992187499998
1.480810546875
1.4864501953125
1.545263671875
1.5275390624999998
1.5082031249999999
1.4864501953125
1.5025634765625
1.5082031249999999
1.493701171875
1.5009521484375
1.4872558593749998
2.7658447265625
1.5509033203125
1.4848388671875
1.5267333984375
1.37607421875
1.2568359375
0.825
0.9853271484374999
1.203662109375
1.400244140625
1.4501953125
1.4735595703125
1.4195800781249999
1.5460693359375
1.5243164062499999
1.5428466796875
1.533984375
1.5114257812499998
1.522705078125
1.52109375
1.5090087890625
0.1409912109375
1.5404296874999999
1.6322753906249998
1.50498046875
1.6040771484374998
1.7345947265625
2.0278564453125
2.34287109375
1.6967285156249998
1.4920898437499999
1.46630859375
1.4783935546875
1.5404296874999999
1.522705078125
1.5122314453124999
1.482421875
1.4920898437499999
1.50498046875
1.4928955078125
1.496923828125
1.490478515625
2.9261718749999996
1.843359375
1.4767822265625
1.5355957031249998
1.4526123046875
1.2455566406249998
0.8870361328124999
0.9804931640625
1.0997314453125
1.4115234374999999
1.4437499999999999
1.4679199218749999
1.4284423828125
1.5533203125
1.5218994140625
1.533984375
1.53076171875
1.5001464843749999
1.52109375
1.5251220703125
1.50498046875
0.012890625
1.1319580078125
1.625830078125
1.4864501953125
1.5992431640625
1.7337890624999999
1.9601806640625
2.7392578125
1.869140625
1.5114257812499998
1.490478515625
1.464697265625
1.5355957031249998
1.50498046875
1.5323730468749999
1.490478515625
1.4791992187499998
1.5106201171875
1.509814453125
1.4993408203124998
1.5146484375
2.0391357421875
1.9231201171874999
1.43408203125
1.52109375
1.4228027343749998
1.2366943359375
1.1416259765624999
0.8258056640625
1.090869140625
1.3349853515624999
1.4276367187499999
1.4655029296875
1.4364990234375
1.51787109375
1.5202880859374999
1.5299560546875
1.538818359375
1.522705078125
1.5364013671874999
1.5541259765625
1.522705078125
0.0636474609375
1.0417236328125
1.6483886718749998
1.5243164062499999
1.5992431640625
1.7619873046874999
1.8135498046874998
2.7448974609374996
1.9110351562499999
1.5517089843749998
1.4711425781249998
1.4703369140625
1.4953124999999998
1.52109375
1.5194824218749998
1.4928955078125
1.4864501953125
1.5017578125
1.4961181640624999
1.4977294921875
1.5017578125
1.8788085937499999
2.5289794921874997
1.4800048828124999
1.5057861328125
1.5082031249999999
1.3204833984375
1.1819091796874999
0.7935791015625
0.9990234375
1.239111328125
1.4195800781249999
1.461474609375
1.4711425781249998
1.5041748046874999
1.5057861328125
1.53076171875
1.533984375
1.525927734375
1.52109375
1.5347900390625
1.5090087890625
1.0658935546875
0.39638671875
1.61455078125
1.5412353515625
1.5202880859374999
1.6669189453125
1.8046875
2.721533203125
2.152734375
1.554931640625
1.4800048828124999
1.4687255859375
1.4719482421874999
1.5275390624999998
1.5170654296875
1.4993408203124998
1.4872558593749998
1.490478515625
1.5090087890625
1.4945068359375
1.4872558593749998
1.5033691406249998
2.956787109375
1.4848388671875
1.4703369140625
1.53076171875
1.3341796874999998
1.24072265625
0.7758544921874999
0.978076171875
1.229443359375
1.4123291015625
1.448583984375
1.4840332031249999
1.4574462890625
1.5509033203125
1.5283447265624999
1.5323730468749999
1.5283447265624999
1.5243164062499999
1.51787109375
1.513037109375
1.5146484375
0.2698974609375
1.5686279296874999
1.5702392578125
1.5315673828124998
1.6636962890625
1.7176757812499999
2.102783203125
2.270361328125
1.6636962890625
1.5041748046874999
1.4800048828124999
1.46953125
1.5267333984375
1.5082031249999999
1.52109375
1.482421875
1.4920898437499999
1.5017578125
1.4993408203124998
1.4953124999999998
1.4832275390624998
2.9519531249999997
1.7611816406249998
1.4413330078125
1.5194824218749998
1.4332763671875
1.276171875
0.8121093749999999
0.9869384765625
1.126318359375
1.3704345703124998
1.4381103515625
1.480810546875
1.4276367187499999
1.5331787109375
1.5186767578125
1.533984375
1.533984375
1.5146484375
1.5218994140625
1.5283447265624999
1.5041748046874999
0.0104736328125
1.2592529296875
1.6427490234375
1.5041748046874999
1.6185791015625
1.77568359375
2.0302734375
2.65546875
1.828857421875
1.5355957031249998
1.46630859375
1.47275390625
1.522705078125
1.5009521484375
1.509814453125
1.5001464843749999
1.49853515625
1.5041748046874999
1.50498046875
1.4920898437499999
1.4888671875
2.328369140625
2.2486083984375
1.4268310546874998
1.5476806640624998
1.456640625
1.268115234375
1.1295410156249999
0.8701171875
1.02802734375
1.351904296875
1.4228027343749998
1.4791992187499998
1.4308593749999998
1.522705078125
1.5186767578125
1.5315673828124998
1.533984375
1.52109375
1.5251220703125
1.5299560546875
1.5017578125
0.594580078125
0.6485595703125
1.6540283203125
1.5122314453124999
1.546875
1.7829345703125
1.8780029296874998
2.779541015625
1.8224121093749999
1.525927734375
1.482421875
1.4687255859375
1.49853515625
1.529150390625
1.5404296874999999
1.490478515625
1.480810546875
1.4920898437499999
1.5114257812499998
1.5033691406249998
1.48564453125
1.5009521484375
2.354150390625
1.4445556640625
1.45341796875
1.461474609375
1.2858398437499998
1.2125244140625
0.9087890624999999
1.03125
1.276171875
1.4187744140624998
1.4751708984374998
1.47275390625
1.4711425781249998
1.522705078125
1.5323730468749999
1.53076171875
1.5138427734375
1.5170654296875
1.5186767578125
1.5122314453124999
0.8016357421875
0.5341552734375
1.6475830078125
1.571044921875
1.542041015625
1.6806152343749998
1.75634765625
2.771484375
2.0987548828125
1.6024658203125
1.4767822265625
1.4687255859375
1.4840332031249999
1.5267333984375
1.5283447265624999
1.52109375
1.4912841796874998
1.5090087890625
1.5114257812499998
1.4840332031249999
1.493701171875
1.4953124999999998
2.908447265625
1.6290527343749999
1.4832275390624998
1.5275390624999998
1.393798828125
1.21171875
0.7484619140625
0.9974121093749999
1.1698242187499999
1.4155517578124999
1.4348876953124998
1.47275390625
1.4501953125
1.5331787109375
1.5235107421874998
1.5275390624999998
1.5146484375
1.496923828125
1.529150390625
1.53076171875
1.5218994140625
0.069287109375
1.490478515625
1.6121337890624998
1.525927734375
1.6161621093749998
1.7176757812499999
2.6176025390624997
2.3050048828125
1.5758789062499998
1.4920898437499999
1.4655029296875
1.4735595703125
1.5412353515625
1.5122314453124999
1.5267333984375
1.4896728515625
1.5041748046874999
1.5041748046874999
1.4840332031249999
1.4896728515625
1.52109375
