1.2769775390625
0.9418212890625
1.055419921875
1.2302490234374999
1.4630859374999998
1.4655029296875
1.482421875
1.41796875
1.5573486328125
1.5670166015625
1.5476806640624998
1.5315673828124998
1.5315673828124998
1.5283447265624999
1.5154541015624998
1.5082031249999999
0.1377685546875
1.46630859375
1.5911865234375
1.4920898437499999
1.5791015625
1.6773925781249999
2.373486328125
2.2308837890624997
1.6201904296874998
1.4622802734375
1.4630859374999998
1.480810546875
1.5275390624999998
1.4800048828124999
1.496923828125
1.496923828125
1.5025634765625
1.5073974609374998
1.4993408203124998
1.4977294921875
1.4912841796874998
2.5491210937499997
1.6137451171875
1.4397216796874999
1.522705078125
1.4413330078125
1.316455078125
1.0272216796875
1.116650390625
1.2254150390625
1.4300537109375
1.46953125
1.4888671875
1.4493896484375
1.5734619140625
1.545263671875
1.5436523437499998
1.5299560546875
1.5025634765625
1.5347900390625
1.5162597656249999
1.5001464843749999
0.3673828125
1.4155517578124999
1.6435546875
1.4945068359375
1.542041015625
1.7523193359375
1.88525390625
2.618408203125
1.6266357421875
1.464697265625
1.4800048828124999
1.4711425781249998
1.5194824218749998
1.4671142578124998
1.490478515625
1.48564453125
1.4920898437499999
1.5073974609374998
1.5033691406249998
1.509814453125
1.4920898437499999
2.44921875
2.002880859375
1.3954101562499999
1.5170654296875
1.4550292968749998
1.2882568359375
1.232666015625
1.1287353515625
1.134375
1.3559326171875
1.458251953125
1.496923828125
1.4840332031249999
1.4993408203124998
1.5436523437499998
1.545263671875
1.522705078125
1.56943359375
1.5355957031249998
1.51787109375
1.5267333984375
0.2940673828125
0.9837158203124999
1.735400390625
1.53076171875
1.538818359375
1.714453125
1.7660156249999999
2.5201171875
1.6653076171874999
1.480810546875
1.46953125
1.4711425781249998
1.5017578125
1.47275390625
1.4840332031249999
1.4888671875
1.4800048828124999
1.5001464843749999
1.506591796875
1.5025634765625
1.4993408203124998
1.5597656249999998
2.5894042968749997
1.3913818359374999
1.4622802734375
1.533984375
1.3865478515624998
1.2318603515625
0.9571289062499999
1.0948974609375
1.2640869140625
1.45341796875
1.46953125
1.4864501953125
1.5170654296875
1.56943359375
1.5283447265624999
1.525927734375
1.542041015625
1.5243164062499999
1.5347900390625
1.5162597656249999
1.3954101562499999
0.3440185546875
1.6967285156249998
1.5380126953125
1.53076171875
1.6161621093749998
1.7748779296875
2.5434814453124996
2.0665283203125
1.4977294921875
1.4606689453125
1.45341796875
1.4671142578124998
1.5243164062499999
1.4977294921875
1.5106201171875
1.4920898437499999
1.4945068359375
1.4840332031249999
1.5025634765625
1.5090087890625
1.47275390625
2.6449951171875
1.5009521484375
1.4767822265625
1.513037109375
1.3921875
1.3027587890624999
0.8596435546875
1.09892578125
1.2850341796875
1.4703369140625
1.4735595703125
1.482421875
1.4381103515625
1.577490234375
1.5484863281249999
1.5267333984375
1.52109375
1.522705078125
1.51787109375
1.53076171875
1.5090087890625
0.2698974609375
1.5597656249999998
1.6298583984375
1.49853515625
1.5927978515624999
1.690283203125
2.0149658203125
2.1454833984375
1.5919921874999998
1.4711425781249998
1.4800048828124999
1.4703369140625
1.52109375
1.4888671875
1.506591796875
1.4880615234374999
1.48564453125
1.49853515625
1.5057861328125
1.5082031249999999
1.4888671875
2.7593994140625
1.7635986328125
1.3986328124999998
1.5170654296875
1.4622802734375
1.2947021484374999
0.8765624999999999
1.1222900390625
1.18916015625
1.3954101562499999
1.46630859375
1.4888671875
1.46630859375
1.5686279296874999
1.5436523437499998
1.5404296874999999
1.5267333984375
1.5041748046874999
1.5218994140625
1.5275390624999998
1.5146484375
0.1699951171875
1.239111328125
1.658056640625
1.5202880859374999
1.6089111328124999
1.7668212890625
1.9996582031249999
2.4766113281249997
1.6725585937499998
1.4622802734375
1.47275390625
1.4961181640624999
1.4832275390624998
1.4687255859375
1.5033691406249998
1.4800048828124999
1.4920898437499999
1.4993408203124998
1.496923828125
1.5009521484375
1.482421875
2.0230224609375
2.2647216796875
1.3849365234375
1.5001464843749999
1.46953125
1.2818115234374998
1.181103515625
1.023193359375
1.1295410156249999
1.397021484375
1.4630859374999998
1.5138427734375
1.4638916015624999
1.56298828125
1.5509033203125
1.5347900390625
1.5283447265624999
1.5331787109375
1.5275390624999998
1.5243164062499999
1.513037109375
0.7871337890625
0.7226806640625
1.7047851562499998
1.545263671875
1.5323730468749999
1.7732666015624998
1.80791015625
2.6361328124999996
1.6910888671875
1.458251953125
1.4558349609374999
1.458251953125
1.4912841796874998
1.4783935546875
1.4832275390624998
1.4848388671875
1.4880615234374999
1.5017578125
1.5025634765625
1.4896728515625
1.4872558593749998
1.5017578125
2.32998046875
1.4010498046875
1.4413330078125
1.4735595703125
1.3285400390625
1.2608642578125
0.845947265625
1.123095703125
1.313232421875
1.46953125
1.5009521484375
1.4912841796874998
1.5082031249999999
1.5686279296874999
1.5380126953125
1.5267333984375
1.5275390624999998
1.52109375
1.5267333984375
1.5202880859374999
1.02802734375
0.6211669921874999
1.6814208984374999
1.5758789062499998
1.5476806640624998
1.658056640625
1.687060546875
2.5628173828125
1.9553466796874999
1.5380126953125
1.448583984375
1.4671142578124998
1.477587890625
1.522705078125
1.4880615234374999
1.4928955078125
1.4864501953125
1.4880615234374999
1.5017578125
1.4920898437499999
1.48564453125
1.49853515625
2.7884033203125
1.5509033203125
1.4445556640625
1.5243164062499999
1.4236083984374999
1.2697265624999998
0.8548095703124999
1.110205078125
1.255224609375
1.4622802734375
1.4945068359375
1.49853515625
1.4518066406249999
1.5686279296874999
1.5404296874999999
1.5331787109375
1.522705078125
1.5218994140625
1.5347900390625
1.5355957031249998
1.5170654296875
0.13212890624999998
1.4655029296875
1.619384765625
1.5396240234374998
1.590380859375
1.7104248046875
2.199462890625
2.31708984375
1.6201904296874998
1.44052734375
1.4526123046875
1.4606689453125
1.5243164062499999
1.477587890625
1.4953124999999998
1.4953124999999998
1.5017578125
1.509814453125
1.5009521484375
1.477587890625
1.4928955078125
2.53623046875
1.5944091796875
1.4091064453125
1.5122314453124999
1.4308593749999998
1.3188720703124999
1.0739501953125
1.074755859375
1.2286376953125
1.4364990234375
1.4767822265625
1.4912841796874998
1.4558349609374999
1.5815185546875
1.5525146484374999
1.5283447265624999
1.5444580078124999
1.529150390625
1.53076171875
1.52109375
1.5202880859374999
0.40202636718749996
1.4364990234375
1.6653076171874999
1.53076171875
1.5992431640625
1.7507080078125
1.8336914062499998
2.592626953125
1.6532226562499999
1.4510009765624998
1.456640625
1.4759765624999999
1.5082031249999999
1.456640625
1.49853515625
1.4945068359375
1.4783935546875
1.50498046875
1.5025634765625
1.5017578125
1.4800048828124999
2.43310546875
1.996435546875
1.4058837890625
1.5001464843749999
1.4429443359374998
1.2858398437499998
1.2262207031249999
1.0546142578125
1.152099609375
1.3688232421875
1.474365234375
1.4912841796874998
1.4800048828124999
1.5404296874999999
1.538818359375
1.5154541015624998
1.51787109375
1.5347900390625
1.5347900390625
1.52109375
1.5114257812499998
0.46728515625
0.994189453125
1.72412109375
1.5033691406249998
1.545263671875
1.722509765625
1.748291015625
2.59423828125
1.8022705078124999
1.4872558593749998
1.448583984375
1.464697265625
1.47275390625
1.46953125
1.5154541015624998
1.5106201171875
1.493701171875
1.490478515625
1.5017578125
1.5041748046874999
1.496923828125
1.5476806640624998
2.56845703125
1.397021484375
1.4574462890625
1.5057861328125
1.3913818359374999
1.2318603515625
0.903955078125
1.1061767578125
1.3688232421875
1.4800048828124999
1.4945068359375
1.48564453125
1.5235107421874998
1.5533203125
1.53720703125
1.53076171875
1.5315673828124998
1.5170654296875
1.51787109375
1.5251220703125
1.4518066406249999
0.3279052734375
1.6822265625
1.538818359375
1.5380126953125
1.6129394531249999
1.7208984374999998
2.3630126953125
2.1793212890625
1.5235107421874998
1.461474609375
1.4630859374999998
1.4832275390624998
1.5194824218749998
1.482421875
1.4920898437499999
1.4888671875
1.4840332031249999
1.506591796875
1.4977294921875
1.4880615234374999
1.4864501953125
2.6224365234375
1.4671142578124998
1.4510009765624998
1.52109375
1.4091064453125
1.3309570312499999
0.9394042968749999
1.11826171875
1.2802001953125
1.4526123046875
1.5017578125
1.4920898437499999
1.456640625
1.5766845703124999
1.533984375
1.5364013671874999
1.529150390625
1.52109375
1.5122314453124999
1.5428466796875
1.5082031249999999
0.2795654296875
1.5637939453124998
1.611328125
1.5186767578125
1.6121337890624998
1.6927001953124998
1.9505126953124998
2.1591796875
1.5758789062499998
1.4638916015624999
1.46953125
1.4783935546875
1.5380126953125
1.4953124999999998
1.4864501953125
1.4832275390624998
1.4912841796874998
1.5009521484375
1.4912841796874998
1.4953124999999998
1.506591796875
2.7448974609374996
1.751513671875
1.3978271484375
1.5194824218749998
1.4542236328125
1.2955078125
0.9257080078125
1.1142333984375
1.1947998046875
1.3905761718749998
1.4767822265625
1.4800048828124999
1.4590576171874998
1.58232421875
1.5444580078124999
1.545263671875
1.5299560546875
1.5138427734375
1.5235107421874998
1.5299560546875
1.5025634765625
0.1780517578125
1.2568359375
1.6814208984374999
1.5122314453124999
1.577490234375
1.7595703125
1.957763671875
2.4870849609374996
1.7055908203124999
1.46953125
1.4791992187499998
1.4872558593749998
1.4961181640624999
1.4711425781249998
1.493701171875
1.4896728515625
1.4848388671875
1.5106201171875
1.5033691406249998
1.4920898437499999
1.482421875
1.9376220703125
2.2260498046875
1.36962890625
1.4896728515625
1.490478515625
1.2995361328125
1.21494140625
0.9966064453125
1.148876953125
1.38896484375
1.4759765624999999
1.490478515625
1.46630859375
1.529150390625
1.5484863281249999
1.5444580078124999
1.5243164062499999
1.5194824218749998
1.5275390624999998
1.53720703125
1.5025634765625
0.9716308593749999
1.1593505859375
1.6886718749999998
1.5380126953125
1.5154541015624998
1.7362060546875
1.7772949218749998
2.5515380859374996
1.7829345703125
1.506591796875
1.4558349609374999
1.464697265625
1.4880615234374999
1.5114257812499998
1.490478515625
1.490478515625
1.4912841796874998
1.5001464843749999
1.509814453125
1.4961181640624999
1.5122314453124999
1.4872558593749998
2.344482421875
1.4244140625
1.4526123046875
1.5033691406249998
1.3462646484374998
1.26328125
0.9450439453124999
1.1456542968749999
1.34384765625
1.4469726562499998
1.4767822265625
1.4816162109375
1.496923828125
1.5662109375
1.5492919921875
1.538818359375
1.5380126953125
1.5082031249999999
1.5170654296875
1.5162597656249999
1.171435546875
0.5486572265624999
1.641943359375
1.5847412109374999
1.5275390624999998
1.6234130859375
1.69833984375
2.495947265625
2.0278564453125
1.5589599609375
1.4767822265625
1.4719482421874999
1.4872558593749998
1.5275390624999998
1.493701171875
1.4920898437499999
1.482421875
1.482421875
1.5001464843749999
1.4920898437499999
1.5146484375
1.50498046875
2.8109619140624997
1.5984375
1.46953125
1.5162597656249999
1.4501953125
1.2930908203125
0.865283203125
1.0828125
1.232666015625
1.4590576171874998
1.4767822265625
1.4848388671875
1.38896484375
1.5605712890624999
1.529150390625
1.522705078125
1.5122314453124999
1.5251220703125
1.51787109375
1.5243164062499999
1.5122314453124999
0.133740234375
1.43408203125
1.5750732421875
1.5243164062499999
1.5992431640625
1.6991455078125
2.204296875
2.3178955078125
1.5573486328125
1.4630859374999998
1.4630859374999998
1.48564453125
1.5267333984375
1.48564453125
1.5001464843749999
1.4993408203124998
1.5001464843749999
1.482421875
1.4912841796874998
1.4977294921875
1.4912841796874998
2.46533203125
1.6411376953124999
1.4268310546874998
1.52109375
1.4429443359374998
1.31162109375
1.103759765625
1.0417236328125
1.2173583984375
1.4107177734374998
1.461474609375
1.50498046875
1.4413330078125
1.5525146484374999
1.529150390625
1.5380126953125
1.56298828125
1.5476806640624998
1.5323730468749999
1.5267333984375
1.5154541015624998
0.1248779296875
1.3768798828125
1.6427490234375
1.5186767578125
1.5831298828125
1.7587646484375
1.8248291015625
2.4322998046874997
1.6822265625
1.4896728515625
1.4759765624999999
1.480810546875
1.5275390624999998
1.4655029296875
1.496923828125
1.4977294921875
1.482421875
1.4993408203124998
1.4993408203124998
1.5114257812499998
1.4961181640624999
2.3654296875
2.0689453125
1.4066894531249998
1.5251220703125
1.4711425781249998
1.2995361328125
1.142431640625
1.0570312499999999
1.1239013671875
1.329345703125
1.4493896484375
1.46953125
1.474365234375
1.5114257812499998
1.5331787109375
1.5218994140625
1.525927734375
1.554931640625
1.5436523437499998
1.5194824218749998
1.4953124999999998
0.43344726562499997
0.8967041015624999
1.6395263671875
1.4703369140625
1.5927978515624999
1.7378173828124999
1.8344970703124999
2.6361328124999996
1.7700439453124999
1.5283447265624999
1.4791992187499998
1.4703369140625
1.496923828125
1.496923828125
1.52109375
1.4993408203124998
1.4993408203124998
1.5009521484375
1.506591796875
1.5001464843749999
1.4912841796874998
1.5299560546875
2.6546630859375
1.4501953125
1.4953124999999998
1.5267333984375
1.327734375
1.2479736328125
0.8902587890625
1.090869140625
1.3043701171875
1.4252197265625
1.4558349609374999
1.4550292968749998
1.4550292968749998
1.5251220703125
1.5299560546875
1.5251220703125
1.5380126953125
1.5525146484374999
1.5396240234374998
1.529150390625
1.461474609375
0.259423828125
1.6620849609375
1.5476806640624998
1.51787109375
1.6935058593749999
1.7523193359375
2.4194091796875
2.165625
1.558154296875
1.477587890625
1.496923828125
1.4840332031249999
1.5235107421874998
1.49853515625
1.496923828125
1.4896728515625
1.4896728515625
1.509814453125
1.5114257812499998
1.4920898437499999
1.5001464843749999
2.682861328125
1.5243164062499999
1.4832275390624998
1.5364013671874999
1.4493896484375
1.3212890625
0.8854248046875
1.0852294921874999
1.2334716796875
1.405078125
1.4679199218749999
1.482421875
1.4348876953124998
1.5557373046874998
1.5146484375
1.5364013671874999
1.533984375
1.5170654296875
1.5299560546875
1.522705078125
1.5082031249999999
0.23525390624999998
1.529150390625
1.6161621093749998
1.5251220703125
1.6024658203125
1.7120361328125
2.0093261718749997
2.180126953125
1.6129394531249999
1.490478515625
1.4783935546875
1.4848388671875
1.538818359375
1.4880615234374999
1.4961181640624999
1.4945068359375
1.4953124999999998
1.5009521484375
1.4864501953125
1.4953124999999998
1.5154541015624998
2.7489257812499996
1.8087158203125
1.4719482421874999
1.529150390625
1.464697265625
1.2850341796875
0.9168457031249999
1.0868408203125
1.1561279296875
1.332568359375
1.4469726562499998
1.482421875
1.4477783203124999
1.5758789062499998
1.5621826171875
1.5364013671874999
1.5218994140625
1.5194824218749998
1.525927734375
1.5170654296875
1.52109375
0.1957763671875
1.1794921875
1.6024658203125
1.5146484375
1.5662109375
1.7370117187499998
1.9231201171874999
2.5515380859374996
1.7539306640624999
1.474365234375
1.4888671875
1.4791992187499998
1.5267333984375
1.4759765624999999
1.5170654296875
1.5106201171875
1.4928955078125
1.5170654296875
1.5138427734375
1.49853515625
1.4872558593749998
1.9110351562499999
1.8465820312499999
1.3929931640625
1.5122314453124999
1.5162597656249999
1.2769775390625
1.1915771484375
0.9708251953125
1.1786865234375
1.3817138671875
1.4397216796874999
1.4832275390624998
1.4518066406249999
1.5364013671874999
1.5347900390625
1.529150390625
1.5299560546875
1.5202880859374999
1.522705078125
1.5299560546875
1.5251220703125
0.9635742187499999
1.1287353515625
1.6403320312499998
1.53720703125
1.5331787109375
1.7329833984374998
1.7571533203124998
2.6095458984374997
1.7660156249999999
1.5001464843749999
1.4622802734375
1.4832275390624998
1.4928955078125
1.5114257812499998
1.5106201171875
1.4888671875
1.4945068359375
1.5186767578125
1.4928955078125
1.4953124999999998
1.4977294921875
1.828857421875
2.4016845703125
1.442138671875
1.448583984375
1.4872558593749998
1.3591552734374999
1.2826171874999999
0.9635742187499999
1.0948974609375
1.2938964843749998
1.4590576171874998
1.5009521484375
1.4896728515625
1.46953125
1.542041015625
1.5460693359375
1.5436523437499998
1.53720703125
1.5162597656249999
1.525927734375
1.4953124999999998
1.09248046875
0.5051513671875
1.6000488281249998
1.5863525390625
1.5718505859374998
1.6653076171874999
1.7289550781249998
2.521728515625
2.0044921875
1.53720703125
1.445361328125
1.461474609375
1.4920898437499999
1.5347900390625
1.529150390625
1.5235107421874998
1.496923828125
1.4920898437499999
1.4840332031249999
1.48564453125
1.480810546875
1.4840332031249999
2.784375
1.6105224609375
1.477587890625
1.5364013671874999
1.45341796875
1.2890625
0.8677001953125
1.090869140625
1.2286376953125
1.456640625
1.46953125
1.490478515625
1.4630859374999998
1.5517089843749998
1.5267333984375
1.5533203125
1.5637939453124998
1.5355957031249998
1.522705078125
1.5122314453124999
1.49853515625
0.13857421875
1.4091064453125
1.5895751953125
1.5218994140625
1.5782958984375
1.7096191406249999
2.1132568359375
2.344482421875
1.561376953125
1.4671142578124998
1.4791992187499998
1.4945068359375
1.5444580078124999
1.4848388671875
1.4945068359375
1.4679199218749999
1.4687255859375
1.5025634765625
1.5041748046874999
1.496923828125
1.4961181640624999
2.42666015625
1.6395263671875
1.4236083984374999
1.5323730468749999
1.4445556640625
1.30517578125
1.1432373046875
1.0513916015625
1.2262207031249999
1.4091064453125
1.4526123046875
1.4977294921875
1.4332763671875
1.5533203125
1.53720703125
1.5347900390625
1.5315673828124998
1.51787109375
1.5283447265624999
1.5186767578125
1.5138427734375
0.159521484375
1.35673828125
1.638720703125
1.513037109375
1.5887695312499999
1.7337890624999999
1.8151611328125
2.4016845703125
1.7080078125
1.506591796875
1.4759765624999999
1.474365234375
1.5025634765625
1.4711425781249998
1.5041748046874999
1.477587890625
1.4888671875
1.490478515625
1.5162597656249999
1.5122314453124999
1.4977294921875
2.3178955078125
2.060888671875
1.4034667968749999
1.5090087890625
1.4590576171874998
1.3059814453124998
1.14404296875
1.0546142578125
1.16337890625
1.3631835937499999
1.4800048828124999
1.5025634765625
1.4848388671875
1.5090087890625
1.5243164062499999
1.496923828125
1.5025634765625
1.5033691406249998
1.5138427734375
1.542041015625
1.5645996093749999
0.6614501953124999
0.8910644531249999
1.687060546875
1.5033691406249998
1.5283447265624999
1.69189453125
1.740234375
2.5813476562499997
1.861083984375
1.5323730468749999
1.4735595703125
1.4711425781249998
1.4759765624999999
1.456640625
1.4783935546875
1.480810546875
1.506591796875
1.5009521484375
1.49853515625
1.4864501953125
1.4880615234374999
1.4961181640624999
2.6441894531249996
1.4252197265625
1.46630859375
1.5218994140625
1.442138671875
1.2705322265624999
0.8838134765625
1.110205078125
1.3543212890624998
1.46953125
1.4896728515625
1.5033691406249998
1.5299560546875
1.554931640625
1.538818359375
1.53720703125
1.4993408203124998
1.5041748046874999
1.4880615234374999
1.49853515625
1.5218994140625
0.30454101562499997
1.6588623046875
1.525927734375
1.4977294921875
1.56943359375
1.7200927734375
2.3662353515625
2.19140625
1.53720703125
1.5186767578125
1.4953124999999998
1.4832275390624998
1.4791992187499998
1.4316650390624999
1.458251953125
1.4840332031249999
1.5082031249999999
1.5082031249999999
1.4912841796874998
1.4872558593749998
1.482421875
2.7610107421874996
1.546875
1.4671142578124998
1.5017578125
1.4074951171874999
1.3422363281249998
0.9466552734375
1.0658935546875
1.26005859375
1.432470703125
1.4542236328125
1.490478515625
1.4397216796874999
1.587158203125
1.5412353515625
1.5331787109375
1.5412353515625
1.5235107421874998
1.5001464843749999
1.5106201171875
1.480810546875
0.17885742187499998
1.5267333984375
1.6250244140624999
1.5001464843749999
1.6008544921874999
1.714453125
1.9295654296875
2.56201171875
1.6242187499999998
1.464697265625
1.4783935546875
1.458251953125
1.5162597656249999
1.4606689453125
1.49853515625
1.4953124999999998
1.4872558593749998
1.5041748046874999
1.493701171875
1.4880615234374999
1.4953124999999998
1.9682373046875
1.84013671875
1.3978271484375
1.4896728515625
1.4574462890625
1.2802001953125
1.1778808593749999
0.9394042968749999
1.139208984375
1.3704345703124998
1.464697265625
1.509814453125
1.4526123046875
1.5106201171875
1.529150390625
1.5235107421874998
1.522705078125
1.5404296874999999
1.5275390624999998
1.5267333984375
1.5194824218749998
0.9796874999999999
1.1279296875
1.6669189453125
1.538818359375
1.58232421875
1.740234375
1.7982421874999999
2.6272705078125
1.7893798828124998
1.490478515625
1.4630859374999998
1.46630859375
1.5057861328125
1.5114257812499998
1.50498046875
1.4880615234374999
1.4880615234374999
1.490478515625
1.5025634765625
1.5114257812499998
1.4912841796874998
1.5001464843749999
2.415380859375
1.429248046875
1.4574462890625
1.50498046875
1.3446533203125
1.27939453125
0.8032470703125
1.084423828125
1.2898681640624998
1.4574462890625
1.4759765624999999
1.477587890625
1.4638916015624999
1.5444580078124999
1.5484863281249999
1.51787109375
1.5170654296875
1.51787109375
1.525927734375
1.5162597656249999
1.4928955078125
0.491455078125
1.6459716796875
1.61455078125
1.5412353515625
1.635498046875
1.7120361328125
2.270361328125
2.0649169921875
1.5839355468749998
1.480810546875
1.4687255859375
1.474365234375
1.5146484375
1.4953124999999998
1.4880615234374999
1.477587890625
1.50498046875
1.513037109375
1.4920898437499999
1.46953125
1.44052734375
2.8738037109374996
1.5839355468749998
1.4348876953124998
1.5243164062499999
1.4558349609374999
1.3212890625
0.784716796875
1.05380859375
1.1835205078125
1.40185546875
1.4872558593749998
1.5299560546875
1.4542236328125
1.574267578125
1.5146484375
1.5194824218749998
1.5355957031249998
1.5009521484375
1.5194824218749998
1.5347900390625
1.533984375
0.045117187499999996
1.4364990234375
1.641943359375
1.5122314453124999
1.5605712890624999
1.740234375
1.883642578125
2.450830078125
1.706396484375
1.5009521484375
1.4598632812499999
1.46953125
1.5154541015624998
1.49853515625
1.5275390624999998
1.5073974609374998
1.4719482421874999
1.4888671875
1.4961181640624999
1.4945068359375
1.4783935546875
2.5305908203125
1.9762939453125
1.426025390625
1.55009765625
1.4759765624999999
1.2858398437499998
1.0852294921874999
1.0159423828125
1.1061767578125
1.409912109375
1.442138671875
1.461474609375
1.4783935546875
1.5605712890624999
1.5299560546875
1.538818359375
1.5492919921875
1.52109375
1.5057861328125
1.5041748046874999
1.4888671875
0.3585205078125
0.9031494140624999
1.6975341796874999
1.5315673828124998
1.5380126953125
1.719287109375
1.880419921875
2.7271728515625
1.87236328125
1.48564453125
1.4574462890625
1.4501953125
1.46630859375
1.474365234375
1.5364013671874999
1.5428466796875
1.4912841796874998
1.4928955078125
1.5114257812499998
1.5009521484375
1.506591796875
1.5799072265624998
2.673193359375
1.4074951171874999
1.46630859375
1.4953124999999998
1.284228515625
1.2109130859375
0.8024414062499999
1.026416015625
1.332568359375
1.482421875
1.4864501953125
1.4622802734375
1.5017578125
1.5412353515625
1.5364013671874999
1.5194824218749998
1.5082031249999999
1.4832275390624998
1.5243164062499999
1.5380126953125
1.4332763671875
0.22478027343749998
1.6959228515625
1.50498046875
1.456640625
1.5799072265624998
1.786962890625
2.60712890625
2.24619140625
1.542041015625
1.5033691406249998
1.4751708984374998
1.47275390625
1.5299560546875
1.5218994140625
1.5073974609374998
1.4928955078125
1.4735595703125
1.5001464843749999
1.5122314453124999
1.4840332031249999
1.474365234375
2.99384765625
1.4864501953125
1.4518066406249999
1.5073974609374998
1.40185546875
1.2721435546875
0.8241943359374999
1.00224609375
1.2302490234374999
1.4364990234375
1.4501953125
1.4840332031249999
1.4244140625
1.5670166015625
1.5621826171875
1.56298828125
1.5275390624999998
1.490478515625
1.509814453125
1.5283447265624999
1.496923828125
0.014501953125
1.5799072265624998
1.5992431640625
1.4953124999999998
1.6089111328124999
1.71123046875
2.0576660156249997
2.6482177734374996
1.6483886718749998
1.490478515625
1.464697265625
1.4687255859375
1.5299560546875
1.4791992187499998
1.4977294921875
1.4977294921875
1.46953125
1.4864501953125
1.4888671875
1.4912841796874998
1.4880615234374999
2.3001708984375
1.764404296875
1.400244140625
1.5331787109375
1.4469726562499998
1.26328125
1.1367919921875
1.044140625
1.17626953125
1.380908203125
1.432470703125
1.4510009765624998
1.40830078125
1.542041015625
1.5315673828124998
1.5033691406249998
1.5355957031249998
1.5243164062499999
1.5347900390625
1.542041015625
1.525927734375
0.572021484375
1.2350830078125
1.6483886718749998
1.5122314453124999
1.5815185546875
1.786962890625
1.8441650390625
2.7892089843749996
1.7797119140625
1.482421875
1.4606689453125
1.4679199218749999
1.496923828125
1.506591796875
1.5114257812499998
1.5001464843749999
1.5017578125
1.5202880859374999
1.5041748046874999
1.4880615234374999
1.4977294921875
2.1422607421874997
2.3162841796875
1.4219970703125
1.458251953125
1.4598632812499999
1.3100097656249998
1.2254150390625
0.8709228515624999
1.0731445312499999
1.2705322265624999
1.442138671875
1.48564453125
1.4630859374999998
1.4832275390624998
1.5396240234374998
1.522705078125
1.538818359375
1.5976318359375
1.5106201171875
1.5202880859374999
1.533984375
0.7412109375
0.594580078125
1.6959228515625
1.5565429687499999
1.53076171875
1.6749755859375
1.754736328125
2.7674560546875
2.0334960937499997
1.5541259765625
1.458251953125
1.4630859374999998
1.474365234375
1.5162597656249999
1.5041748046874999
1.5057861328125
1.509814453125
1.5122314453124999
1.545263671875
1.5041748046874999
1.506591796875
1.51787109375
2.937451171875
1.5444580078124999
1.46953125
1.5001464843749999
1.37607421875
1.1964111328125
0.704150390625
1.0086914062499999
1.2044677734375
1.46953125
1.46630859375
1.4880615234374999
1.4719482421874999
1.58232421875
1.585546875
1.5436523437499998
1.5283447265624999
1.5122314453124999
1.49853515625
1.5251220703125
1.4719482421874999
0.012890625
1.4606689453125
1.5428466796875
1.5364013671874999
1.6169677734374999
1.7619873046874999
2.3146728515625
2.437939453125
1.6854492187499999
1.445361328125
1.426025390625
1.46953125
1.58232421875
1.53076171875
1.5033691406249998
1.46953125
1.506591796875
1.56298828125
1.5517089843749998
1.4928955078125
1.4719482421874999
2.8754150390624997
1.5718505859374998
1.4381103515625
1.538818359375
1.4300537109375
1.2608642578125
0.913623046875
0.9434326171874999
1.1778808593749999
1.4308593749999998
1.4832275390624998
1.5025634765625
1.4203857421875
1.5927978515624999
1.5364013671874999
1.5331787109375
1.5299560546875
1.506591796875
1.5194824218749998
1.529150390625
1.482421875
0.0120849609375
1.0771728515624999
1.6290527343749999
1.538818359375
1.5758789062499998
1.7579589843749999
1.9456787109375
2.7465087890624997
1.8087158203125
1.4719482421874999
1.464697265625
1.46953125
1.5267333984375
1.4630859374999998
1.5082031249999999
1.4912841796874998
1.490478515625
1.48564453125
1.5033691406249998
1.545263671875
1.5082031249999999
1.7942138671874999
1.9601806640625
1.3752685546874999
1.4671142578124998
1.4469726562499998
1.24716796875
1.1561279296875
0.833056640625
1.09248046875
1.351904296875
1.4598632812499999
1.4848388671875
1.4348876953124998
1.51787109375
1.53720703125
1.545263671875
1.5460693359375
1.5146484375
1.4574462890625
1.5275390624999998
1.51787109375
1.173046875
0.9659912109375
1.6693359374999999
1.5162597656249999
1.5057861328125
1.7635986328125
1.8103271484374999
2.7134765625
1.8683349609375
1.5218994140625
1.480810546875
1.4840332031249999
1.5009521484375
1.5186767578125
1.5235107421874998
1.5017578125
1.490478515625
1.5057861328125
1.4977294921875
1.4977294921875
1.4880615234374999
1.482421875
2.6377441406249997
1.445361328125
1.4687255859375
1.5218994140625
1.3341796874999998
1.2423339843749999
0.7581298828124999
1.0570312499999999
1.2342773437499999
1.4373046875
1.4679199218749999
1.4671142578124998
1.458251953125
1.5621826171875
1.52109375
1.5347900390625
1.5194824218749998
1.5364013671874999
1.5404296874999999
1.5146484375
1.4912841796874998
0.2537841796875
1.6451660156249999
1.6089111328124999
1.513037109375
1.61455078125
1.6975341796874999
2.225244140625
2.1583740234374997
1.5976318359375
1.45341796875
1.4606689453125
1.5162597656249999
1.5404296874999999
1.5033691406249998
1.490478515625
1.4840332031249999
1.4977294921875
1.4920898437499999
1.4888671875
1.509814453125
1.5017578125
3.0002929687499997
1.658056640625
1.3962158203125
1.5202880859374999
1.4606689453125
1.3027587890624999
0.7218749999999999
1.01513671875
1.158544921875
1.3631835937499999
1.400244140625
1.4348876953124998
1.4058837890625
1.5670166015625
1.577490234375
1.5847412109374999
1.571044921875
1.5364013671874999
1.5533203125
1.5476806640624998
1.5146484375
0.0104736328125
1.3688232421875
1.6201904296874998
1.5090087890625
1.5645996093749999
1.7716552734375
1.8570556640625
2.56201171875
1.71123046875
1.4783935546875
1.50498046875
1.4840332031249999
1.51787109375
1.4880615234374999
1.5815185546875
1.5509033203125
1.4671142578124998
1.4767822265625
1.4791992187499998
1.4848388671875
1.5114257812499998
2.4661376953125
2.1543457031249997
1.3913818359374999
1.5162597656249999
1.4518066406249999
1.2834228515625
1.007080078125
1.0368896484374999
1.0691162109374999
1.2495849609374998
1.4445556640625
1.461474609375
1.480810546875
1.4888671875
1.5404296874999999
1.5404296874999999
1.5323730468749999
1.5243164062499999
1.574267578125
1.546875
1.5396240234374998
0.3021240234375
0.7903564453124999
1.7072021484375
1.5154541015624998
1.5202880859374999
1.7184814453125
1.7813232421874998
2.8633300781249997
1.8828369140624999
1.5146484375
1.48564453125
1.4896728515625
1.4872558593749998
1.5041748046874999
1.5057861328125
1.5355957031249998
1.4759765624999999
1.529150390625
1.4880615234374999
1.48564453125
1.5057861328125
1.5251220703125
2.8109619140624997
1.4518066406249999
1.4397216796874999
1.4928955078125
1.3801025390625
1.1666015625
1.1351806640625
0.94423828125
1.1996337890625
1.4542236328125
1.4630859374999998
1.4961181640624999
1.3905761718749998
1.558154296875
1.554931640625
1.533984375
1.5444580078124999
1.5267333984375
1.5218994140625
1.5057861328125
1.442138671875
0.14018554687499998
1.6266357421875
1.56298828125
1.4759765624999999
1.61455078125
1.7394287109375
2.8456054687499996
2.101171875
1.571044921875
1.4493896484375
1.4759765624999999
1.5057861328125
1.5541259765625
1.5090087890625
1.5025634765625
1.4671142578124998
1.5057861328125
1.51787109375
1.5057861328125
1.52109375
1.477587890625
2.9906249999999996
1.7821289062499999
1.4638916015624999
1.5170654296875
1.482421875
1.3156494140625
0.6904541015625
0.9990234375
1.119873046875
1.4026611328124998
1.4574462890625
1.4622802734375
1.3881591796875
1.5525146484374999
1.5009521484375
1.5565429687499999
1.5517089843749998
1.5484863281249999
1.51787109375
1.5041748046874999
1.5090087890625
0.0120849609375
1.2302490234374999
1.6564453124999998
1.525927734375
1.609716796875
1.8248291015625
2.164013671875
2.6820556640624997
1.740234375
1.4671142578124998
1.4493896484375
1.4550292968749998
1.5436523437499998
1.4864501953125
1.53076171875
1.493701171875
1.4791992187499998
1.49853515625
1.5235107421874998
1.480810546875
1.4896728515625
2.028662109375
1.85625
1.3825195312499998
1.506591796875
1.493701171875
1.239111328125
1.116650390625
0.990966796875
1.0787841796875
1.332568359375
1.4268310546874998
1.46630859375
1.4493896484375
1.5218994140625
1.5404296874999999
1.5533203125
1.5267333984375
1.4928955078125
1.52109375
1.542041015625
1.522705078125
0.8306396484374999
0.48984374999999997
1.6854492187499999
1.5517089843749998
1.5218994140625
1.7797119140625
1.8538330078124998
2.8544677734375
2.0069091796875
1.493701171875
1.456640625
1.4912841796874998
1.5033691406249998
1.5243164062499999
1.5283447265624999
1.5090087890625
1.4800048828124999
1.4896728515625
1.506591796875
1.480810546875
1.4928955078125
1.4945068359375
2.50400390625
1.400244140625
1.4389160156249998
1.5355957031249998
1.319677734375
1.2205810546875
0.7154296874999999
1.0239990234375
1.2882568359375
1.4501953125
1.4437499999999999
1.4816162109375
1.4501953125
1.5396240234374998
1.52109375
1.53720703125
1.529150390625
1.5251220703125
1.5444580078124999
1.5299560546875
1.50498046875
0.4004150390625
1.6894775390624999
1.609716796875
1.4977294921875
1.641943359375
1.7418457031249999
2.5080322265625
2.447607421875
1.5001464843749999
1.4107177734374998
1.445361328125
1.4735595703125
1.5380126953125
1.513037109375
1.51787109375
1.4896728515625
1.5114257812499998
1.5114257812499998
1.4977294921875
1.4896728515625
1.513037109375
3.001904296875
1.5919921874999998
1.4284423828125
1.5476806640624998
1.4510009765624998
1.2930908203125
0.8499755859375
0.990966796875
1.171435546875
1.3865478515624998
1.43408203125
1.4880615234374999
1.4356933593749999
1.5831298828125
1.5122314453124999
1.5090087890625
1.5235107421874998
1.5315673828124998
1.53076171875
1.5243164062499999
1.513037109375
0.011279296874999999
1.4687255859375
1.6975341796874999
1.5355957031249998
1.609716796875
1.7603759765625
1.899755859375
2.45888671875
1.6717529296875
1.4638916015624999
1.456640625
1.4445556640625
1.5138427734375
1.4735595703125
1.5146484375
1.4945068359375
1.4977294921875
1.5041748046874999
1.5017578125
1.5001464843749999
1.4888671875
2.7094482421875
2.070556640625
1.4026611328124998
1.5412353515625
1.4510009765624998
1.216552734375
1.1980224609374999
1.061865234375
1.055419921875
1.3100097656249998
1.4268310546874998
1.4655029296875
1.4469726562499998
1.496923828125
1.5275390624999998
1.53076171875
1.5235107421874998
1.5283447265624999
1.5436523437499998
1.525927734375
1.5106201171875
0.07412109374999999
0.9466552734375
1.7313720703125
1.5428466796875
1.55009765625
1.7474853515625
1.8095214843749998
2.840771484375
1.7958251953125
1.5154541015624998
1.52109375
1.50498046875
1.4800048828124999
1.4961181640624999
1.522705078125
1.5202880859374999
1.4638916015624999
1.4961181640624999
1.496923828125
1.5025634765625
1.4945068359375
1.5654052734375
2.76181640625
1.4558349609374999
1.52109375
1.53720703125
1.36962890625
1.1690185546875
0.8757568359375
0.9877441406249999
1.1964111328125
1.45341796875
1.477587890625
1.4574462890625
1.4195800781249999
1.5251220703125
1.5839355468749998
1.561376953125
1.5162597656249999
1.49853515625
1.55009765625
1.4961181640624999
1.3591552734374999
0.2344482421875
1.638720703125
1.5895751953125
1.5517089843749998
1.6072998046875
1.6975341796874999
2.8802490234375
2.086669921875
1.5758789062499998
1.4679199218749999
1.4606689453125
1.4800048828124999
1.55009765625
1.50498046875
1.48564453125
1.5138427734375
1.5323730468749999
1.5162597656249999
1.4872558593749998
1.4800048828124999
1.493701171875
3.003515625
1.7257324218749999
1.4469726562499998
1.538818359375
1.40185546875
1.2334716796875
0.64453125
0.9861328125
1.1077880859375
1.4316650390624999
1.4066894531249998
1.5218994140625
1.3962158203125
1.5831298828125
1.55009765625
1.5428466796875
1.5355957031249998
1.4751708984374998
1.5428466796875
1.5154541015624998
1.5162597656249999
0.011279296874999999
1.3559326171875
1.6346923828125
1.4888671875
1.587158203125
1.8224121093749999
2.3033935546874997
2.578125
1.7200927734375
1.4800048828124999
1.4397216796874999
1.4896728515625
1.5831298828125
1.477587890625
1.5315673828124998
1.4655029296875
1.47275390625
1.5162597656249999
1.5428466796875
1.4630859374999998
1.477587890625
2.3203125
1.770849609375
1.4074951171874999
1.525927734375
1.4574462890625
1.235888671875
1.044140625
1.0030517578125
1.0731445312499999
1.3664062499999998
1.40185546875
1.4759765624999999
1.4203857421875
1.5073974609374998
1.4920898437499999
1.5299560546875
1.5235107421874998
1.5347900390625
1.482421875
1.5396240234374998
1.5251220703125
0.4962890625
0.668701171875
1.7007568359374998
1.509814453125
1.5662109375
1.7958251953125
1.8304687499999999
2.92939453125
1.844970703125
1.448583984375
1.413134765625
1.5001464843749999
1.496923828125
1.506591796875
1.5412353515625
1.5396240234374998
1.542041015625
1.458251953125
1.5218994140625
1.47275390625
1.5412353515625
1.496923828125
2.3662353515625
1.37607421875
1.41796875
1.5839355468749998
1.3027587890624999
1.2101074218749999
0.8588378906249999
0.9547119140625
1.3229003906249999
1.4542236328125
1.4332763671875
1.45341796875
1.4638916015624999
1.6008544921874999
1.5299560546875
1.522705078125
1.5605712890624999
1.5082031249999999
1.533984375
1.5396240234374998
1.4598632812499999
0.53818359375
1.7410400390624998
1.5654052734375
1.4864501953125
1.6951171875
1.7595703125
2.7102539062499997
2.2711669921874997
1.4977294921875
1.4783935546875
1.506591796875
1.4993408203124998
1.5275390624999998
1.49853515625
1.461474609375
1.5565429687499999
1.4719482421874999
1.4195800781249999
1.5517089843749998
1.4832275390624998
1.4501953125
3.0002929687499997
1.477587890625
1.4276367187499999
1.5235107421874998
1.405078125
1.2979248046874998
0.88623046875
1.0328613281249999
1.1319580078125
1.4228027343749998
1.4542236328125
1.4767822265625
1.3897705078125
1.5807128906249999
1.5202880859374999
1.545263671875
1.5154541015624998
1.5138427734375
1.5517089843749998
1.5678222656249998
1.4961181640624999
0.011279296874999999
1.49853515625
1.662890625
1.574267578125
1.6379150390625
1.7611816406249998
1.989990234375
2.4290771484375
1.6612792968749999
1.482421875
1.482421875
1.4848388671875
1.493701171875
1.442138671875
1.46630859375
1.4928955078125
1.4687255859375
1.4928955078125
1.522705078125
1.5033691406249998
1.4800048828124999
2.856884765625
1.9384277343749998
1.3744628906249998
1.5404296874999999
1.40830078125
1.2318603515625
1.1287353515625
0.95390625
1.09248046875
1.3212890625
1.4461669921875
1.4896728515625
1.4800048828124999
1.52109375
1.5533203125
1.5235107421874998
1.4888671875
1.5412353515625
1.5355957031249998
1.4888671875
1.529150390625
0.0120849609375
1.0191650390625
1.7345947265625
1.5355957031249998
1.5364013671874999
1.75634765625
1.82724609375
2.8496337890624996
1.8183837890624999
1.4961181640624999
1.4751708984374998
1.46953125
1.4800048828124999
1.5315673828124998
1.5194824218749998
1.4840332031249999
1.4880615234374999
1.50498046875
1.4912841796874998
1.4920898437499999
1.48564453125
1.6781982421875
2.6522460937499996
1.4679199218749999
1.4791992187499998
1.4840332031249999
1.3220947265624998
1.2286376953125
0.78310546875
0.9788818359375
1.2173583984375
1.4783935546875
1.4364990234375
1.5154541015624998
1.5033691406249998
1.585546875
1.5017578125
1.5323730468749999
1.5122314453124999
1.4687255859375
1.5082031249999999
1.5162597656249999
1.2181640624999999
0.2425048828125
1.7168701171874998
1.6209960937499999
1.5275390624999998
1.6403320312499998
1.71123046875
2.83271484375
2.101171875
1.5597656249999998
1.4751708984374998
1.49853515625
1.46953125
1.496923828125
1.4953124999999998
1.5025634765625
1.509814453125
1.52109375
1.5033691406249998
1.480810546875
1.5154541015624998
1.456640625
3.001904296875
1.6363037109374998
1.4751708984374998
1.5517089843749998
1.4437499999999999
1.2673095703125
0.6904541015625
0.992578125
1.15048828125
1.4445556640625
1.4687255859375
1.493701171875
1.4115234374999999
1.5444580078124999
1.558154296875
1.5299560546875
1.5380126953125
1.4751708984374998
1.5565429687499999
1.5041748046874999
1.4864501953125
0.0088623046875
1.3905761718749998
1.6636962890625
1.5251220703125
1.5919921874999998
1.7772949218749998
2.2486083984375
2.6280761718749996
1.7249267578124998
1.4574462890625
1.5017578125
1.4783935546875
1.4840332031249999
1.4880615234374999
1.5267333984375
1.5243164062499999
1.429248046875
1.5154541015624998
1.5073974609374998
1.490478515625
1.5114257812499998
2.42666015625
2.1760986328125
1.3994384765624999
1.5428466796875
1.4816162109375
1.2705322265624999
1.0965087890625
0.9555175781249999
1.0642822265625
1.3631835937499999
1.3986328124999998
1.464697265625
1.40830078125
1.545263671875
1.5541259765625
1.49853515625
1.53076171875
1.51787109375
1.533984375
1.5154541015624998
1.493701171875
0.42216796874999996
0.7420166015624999
1.6427490234375
1.5073974609374998
1.5299560546875
1.7297607421874999
1.8868652343749999
2.8778320312499996
1.91748046875
1.4542236328125
1.5114257812499998
1.46630859375
1.4711425781249998
1.533984375
1.5573486328125
1.5041748046874999
1.4711425781249998
1.4912841796874998
1.5186767578125
1.5218994140625
1.4961181640624999
1.46630859375
2.8697753906249996
1.3656005859375
1.448583984375
1.525927734375
1.2955078125
1.2173583984375
0.7758544921874999
0.9877441406249999
1.2906738281249999
1.445361328125
1.45341796875
1.45341796875
1.4638916015624999
1.5364013671874999
1.5380126953125
1.5162597656249999
1.5082031249999999
1.5170654296875
1.5492919921875
1.5637939453124998
1.493701171875
0.07734374999999999
1.7289550781249998
1.5718505859374998
1.5283447265624999
1.5766845703124999
1.7426513671875
2.67158203125
2.23330078125
1.5186767578125
1.477587890625
1.4832275390624998
1.4832275390624998
1.5621826171875
1.5082031249999999
1.5114257812499998
1.4711425781249998
1.50498046875
1.4880615234374999
1.4816162109375
1.4896728515625
1.5033691406249998
2.9318115234374997
1.5186767578125
1.445361328125
1.5573486328125
1.3986328124999998
1.2938964843749998
0.77666015625
1.03125
1.1939941406249999
1.4091064453125
1.4389160156249998
1.4622802734375
1.4147460937499998
1.5589599609375
1.5122314453124999
1.5404296874999999
1.5323730468749999
1.5218994140625
1.5170654296875
1.5073974609374998
1.4977294921875
0.0475341796875
1.5984375
1.670947265625
1.4912841796874998
1.5791015625
1.7370117187499998
1.998046875
2.7175048828125
1.6266357421875
1.4671142578124998
1.477587890625
1.493701171875
1.5565429687499999
1.4791992187499998
1.5073974609374998
1.496923828125
1.4832275390624998
1.4896728515625
1.4880615234374999
1.4840332031249999
1.4953124999999998
2.972900390625
1.85947265625
1.3825195312499998
1.5444580078124999
1.4510009765624998
1.235888671875
1.1408203125
0.9998291015624999
1.1029541015625
1.3510986328124999
1.4389160156249998
1.4751708984374998
1.4469726562499998
1.5186767578125
1.5114257812499998
1.51787109375
1.53720703125
1.5033691406249998
1.542041015625
1.53076171875
1.50498046875
0.0104736328125
1.1061767578125
1.69189453125
1.5315673828124998
1.5847412109374999
1.7603759765625
1.848193359375
2.8149902343749997
1.8344970703124999
1.4840332031249999
1.4630859374999998
1.46630859375
1.5073974609374998
1.51787109375
1.5243164062499999
1.5082031249999999
1.5138427734375
1.506591796875
1.5186767578125
1.5090087890625
1.4953124999999998
1.8248291015625
2.4911132812499996
1.3994384765624999
1.47275390625
1.5073974609374998
1.3317626953125
1.2205810546875
0.8435302734375
1.026416015625
1.2423339843749999
1.3736572265625
1.4655029296875
1.4767822265625
1.4687255859375
1.525927734375
1.538818359375
1.5428466796875
1.5364013671874999
1.5323730468749999
1.5428466796875
1.513037109375
1.1617675781249999
0.4084716796875
1.683837890625
1.538818359375
1.4953124999999998
1.5960205078124998
1.6927001953124998
2.7223388671874997
2.16884765625
1.5863525390625
1.4622802734375
1.4606689453125
1.4896728515625
1.5484863281249999
1.5025634765625
1.5017578125
1.4953124999999998
1.5033691406249998
1.5090087890625
1.4912841796874998
1.4832275390624998
1.4928955078125
2.9978759765625
1.603271484375
1.4703369140625
1.5170654296875
1.4332763671875
1.2624755859374999
0.71865234375
1.0167480468749999
1.1738525390624999
1.4413330078125
1.4687255859375
1.47275390625
1.4034667968749999
1.5557373046874998
1.5186767578125
1.529150390625
1.5146484375
1.5001464843749999
1.51787109375
1.5162597656249999
1.4920898437499999
0.011279296874999999
1.4606689453125
1.6806152343749998
1.509814453125
1.5758789062499998
1.8167724609375
2.2437744140625
2.5837646484374996
1.7289550781249998
1.46953125
1.4888671875
1.5114257812499998
1.5283447265624999
1.4888671875
1.4993408203124998
1.4864501953125
1.4630859374999998
1.4832275390624998
1.513037109375
1.5057861328125
1.4953124999999998
2.5998779296874996
2.0560546875
1.3865478515624998
1.5436523437499998
1.4671142578124998
1.2834228515625
1.0771728515624999
0.8918701171875
1.07958984375
1.3857421875
1.461474609375
1.4679199218749999
1.490478515625
1.545263671875
1.5041748046874999
1.5597656249999998
1.5605712890624999
1.4961181640624999
1.509814453125
1.5194824218749998
1.5090087890625
0.33193359375
0.8660888671875
1.6886718749999998
1.5251220703125
1.5355957031249998
1.7490966796874998
1.8739746093749998
2.8061279296875
1.93359375
1.47275390625
1.46630859375
1.4598632812499999
1.4864501953125
1.4920898437499999
1.5380126953125
1.509814453125
1.5194824218749998
1.5114257812499998
1.53076171875
1.4332763671875
1.5138427734375
1.538818359375
2.7819580078125
1.4236083984374999
1.4655029296875
1.5678222656249998
1.268115234375
1.1561279296875
0.7081787109375
0.9659912109375
1.26005859375
1.4107177734374998
1.4510009765624998
1.5170654296875
1.5235107421874998
1.5509033203125
1.5517089843749998
1.5315673828124998
1.5396240234374998
1.4655029296875
1.5154541015624998
1.5597656249999998
1.4872558593749998
0.1506591796875
1.67900390625
1.5436523437499998
1.5541259765625
1.722509765625
1.7490966796874998
2.5031982421874996
2.3009765625
1.522705078125
1.4800048828124999
1.4687255859375
1.546875
1.5380126953125
1.5146484375
1.5073974609374998
1.4896728515625
1.51787109375
1.5033691406249998
1.4703369140625
1.5202880859374999
1.5218994140625
2.78759765625
1.5218994140625
1.461474609375
1.5154541015624998
1.4437499999999999
1.2930908203125
0.9095947265625
1.026416015625
1.20849609375
1.4477783203124999
1.4244140625
1.49853515625
1.4687255859375
1.5637939453124998
1.5017578125
1.5275390624999998
1.545263671875
1.5106201171875
1.50498046875
1.4832275390624998
1.4711425781249998
0.09748535156249999
1.5533203125
1.6620849609375
1.4977294921875
1.638720703125
1.7845458984375
1.9698486328125
2.599072265625
1.63388671875
1.4783935546875
1.4872558593749998
1.4800048828124999
1.5299560546875
1.50498046875
1.5565429687499999
1.4526123046875
1.48564453125
1.5138427734375
1.4953124999999998
1.5170654296875
1.513037109375
2.9068359375
1.770849609375
1.36962890625
1.5299560546875
1.482421875
1.2616699218749998
1.155322265625
1.0159423828125
1.1335693359374999
1.380908203125
1.4493896484375
1.4679199218749999
1.4308593749999998
1.5331787109375
1.5154541015624998
1.5355957031249998
1.5267333984375
1.4864501953125
1.522705078125
1.5315673828124998
1.5154541015624998
0.0217529296875
1.173046875
1.6717529296875
1.5082031249999999
1.5799072265624998
1.7531249999999998
1.8328857421875
2.7094482421875
1.7909912109375
1.5001464843749999
1.46630859375
1.482421875
1.5122314453124999
1.5283447265624999
1.5323730468749999
1.490478515625
1.4945068359375
1.4928955078125
1.5235107421874998
1.4872558593749998
1.4920898437499999
1.9601806640625
2.4177978515625
1.4300537109375
1.529150390625
1.4848388671875
1.3011474609375
1.20849609375
0.8290283203125
1.0401123046875
1.2415283203124998
1.4526123046875
1.4510009765624998
1.4735595703125
1.4558349609374999
1.5919921874999998
1.571044921875
1.5412353515625
1.5090087890625
1.5122314453124999
1.5122314453124999
1.5331787109375
0.9796874999999999
0.5212646484375
1.6572509765624999
1.5106201171875
1.5090087890625
1.6306640625
1.714453125
2.69091796875
2.0536376953124997
1.6000488281249998
1.5009521484375
1.482421875
1.482421875
1.5122314453124999
1.5243164062499999
1.4945068359375
1.4920898437499999
1.513037109375
1.5122314453124999
1.5090087890625
1.4953124999999998
1.50498046875
2.9704833984374996
1.4542236328125
1.4816162109375
1.5146484375
1.4228027343749998
1.2374999999999998
0.7468505859375
1.0239990234375
1.2858398437499998
1.4300537109375
1.4655029296875
1.4840332031249999
1.4655029296875
1.5404296874999999
1.542041015625
1.53076171875
1.5082031249999999
1.5283447265624999
1.5315673828124998
1.5275390624999998
1.5186767578125
0.019335937499999997
1.64677734375
1.5791015625
1.480810546875
1.5412353515625
1.6967285156249998
2.3235351562499997
2.39765625
1.585546875
1.5041748046874999
1.49853515625
1.5251220703125
1.5621826171875
1.4945068359375
1.5001464843749999
1.5082031249999999
1.5001464843749999
1.5235107421874998
1.480810546875
1.4872558593749998
1.509814453125
2.9833740234375
1.6435546875
1.4147460937499998
1.493701171875
1.4356933593749999
1.2938964843749998
1.0409179687499999
0.984521484375
1.0973144531249999
1.3591552734374999
1.4461669921875
1.5001464843749999
1.4783935546875
1.5791015625
1.5251220703125
1.51787109375
1.5009521484375
1.5025634765625
1.5057861328125
1.5315673828124998
1.51787109375
0.0120849609375
1.4058837890625
1.658056640625
1.493701171875
1.61455078125
1.7692382812499998
1.8755859375
2.5152832031249996
1.7619873046874999
1.5283447265624999
1.49853515625
1.482421875
1.5073974609374998
1.464697265625
1.5404296874999999
1.5162597656249999
1.4735595703125
1.4880615234374999
1.5057861328125
1.477587890625
1.49853515625
2.4935302734375
2.101171875
1.3913818359374999
1.52109375
1.477587890625
1.2616699218749998
1.1029541015625
0.95390625
1.1126220703125
1.3067871093749999
1.4244140625
1.46953125
1.4679199218749999
1.5412353515625
1.51787109375
1.53720703125
1.53076171875
1.5122314453124999
1.5138427734375
1.5138427734375
1.5114257812499998
0.30615234375
0.8805908203124999
1.7128417968749998
1.5186767578125
1.574267578125
1.714453125
1.8780029296874998
2.769873046875
1.8304687499999999
1.5202880859374999
1.4751708984374998
1.4816162109375
1.5025634765625
1.4840332031249999
1.513037109375
1.4888671875
1.4767822265625
1.50498046875
1.51787109375
1.5138427734375
1.493701171875
1.529150390625
2.7392578125
1.4074951171874999
1.4783935546875
1.5057861328125
1.276171875
1.2173583984375
0.8709228515624999
1.00546875
1.316455078125
1.4461669921875
1.4550292968749998
1.4622802734375
1.4920898437499999
1.5404296874999999
1.522705078125
1.5186767578125
1.5331787109375
1.513037109375
1.522705078125
1.4945068359375
1.4300537109375
0.22316894531249998
1.6975341796874999
1.5605712890624999
1.538818359375
1.6137451171875
1.7813232421874998
2.5821533203125
2.193017578125
1.5428466796875
1.4622802734375
1.4526123046875
1.482421875
1.5533203125
1.5122314453124999
1.5146484375
1.5041748046874999
1.506591796875
1.525927734375
1.5057861328125
1.5001464843749999
1.493701171875
2.7908203124999997
1.51787109375
1.45341796875
1.53720703125
1.4268310546874998
1.2963134765625
0.8531982421875
0.9958007812499999
1.197216796875
1.4107177734374998
1.464697265625
1.4848388671875
1.4236083984374999
1.5492919921875
1.5082031249999999
1.5162597656249999
1.52109375
1.5162597656249999
1.5323730468749999
1.506591796875
1.5122314453124999
0.11440429687499999
1.5597656249999998
1.6556396484375
1.5404296874999999
1.5992431640625
1.706396484375
1.9489013671875
2.3388427734375
1.6733642578124999
1.4912841796874998
1.4687255859375
1.4622802734375
1.5315673828124998
1.5082031249999999
1.5114257812499998
1.5025634765625
1.4896728515625
1.5114257812499998
1.5082031249999999
1.4977294921875
1.4977294921875
2.8375488281249996
1.8344970703124999
1.3962158203125
1.52109375
1.4510009765624998
1.2536132812499998
0.8983154296875
1.0111083984375
1.1093994140624999
1.3599609375
1.4526123046875
1.4800048828124999
1.4630859374999998
1.529150390625
1.533984375
1.5396240234374998
1.561376953125
1.525927734375
1.5146484375
1.53720703125
1.5194824218749998
0.1506591796875
1.1206787109375
1.6878662109375
1.5138427734375
1.5533203125
1.732177734375
1.7740722656249999
2.642578125
1.8224121093749999
1.5315673828124998
1.4953124999999998
1.480810546875
1.477587890625
1.5041748046874999
1.5517089843749998
1.50498046875
1.4880615234374999
1.5082031249999999
1.5122314453124999
1.513037109375
1.5017578125
1.9086181640625
2.425048828125
1.3728515625
1.4920898437499999
1.4783935546875
1.340625
1.1512939453125
0.8548095703124999
1.0465576171875
1.361572265625
1.4469726562499998
1.4800048828124999
1.4816162109375
1.5235107421874998
1.525927734375
1.5114257812499998
1.538818359375
1.5194824218749998
1.5090087890625
1.53076171875
1.5025634765625
1.095703125
0.46970214843749997
1.6959228515625
1.5460693359375
1.5347900390625
1.6459716796875
1.8038818359375
2.5813476562499997
2.1116455078125
1.5323730468749999
1.4751708984374998
1.48564453125
1.4896728515625
1.5194824218749998
1.5315673828124998
1.5202880859374999
1.4953124999999998
1.490478515625
1.513037109375
1.50498046875
1.5017578125
1.5057861328125
2.9076416015624997
1.4316650390624999
1.4445556640625
1.5170654296875
1.3261230468749998
1.26005859375
0.80888671875
1.042529296875
1.26328125
1.4219970703125
1.4437499999999999
1.46953125
1.4542236328125
1.5315673828124998
1.5380126953125
1.5243164062499999
1.5251220703125
1.5154541015624998
1.5146484375
1.5017578125
1.513037109375
0.3955810546875
1.6330810546874999
1.6169677734374999
1.529150390625
1.6250244140624999
1.7055908203124999
2.1197021484375
2.16884765625
1.625830078125
1.4832275390624998
1.4630859374999998
1.4783935546875
1.5251220703125
1.4928955078125
1.509814453125
1.5162597656249999
1.5162597656249999
1.525927734375
1.4993408203124998
1.4840332031249999
1.4912841796874998
2.9108642578125
1.6346923828125
1.4042724609375
1.5114257812499998
1.4413330078125
1.3108154296874999
0.8266113281249999
1.0328613281249999
1.173046875
1.3905761718749998
1.458251953125
1.4679199218749999
1.42119140625
1.5565429687499999
1.522705078125
1.5082031249999999
1.5283447265624999
1.525927734375
1.5170654296875
1.5299560546875
1.496923828125
0.03544921875
1.3599609375
1.6572509765624999
1.5090087890625
1.5702392578125
1.7490966796874998
2.0471923828125
2.5241455078125
1.7531249999999998
1.5235107421874998
1.4800048828124999
1.4767822265625
1.509814453125
1.5082031249999999
1.53076171875
1.5057861328125
1.49853515625
1.509814453125
1.5009521484375
1.5017578125
1.5025634765625
2.4363281249999997
2.0971435546875
1.3857421875
1.5186767578125
1.458251953125
1.3019531249999998
1.1093994140624999
1.00224609375
1.0828125
1.3720458984375
1.4469726562499998
1.461474609375
1.4961181640624999
1.5355957031249998
1.5073974609374998
1.5243164062499999
1.529150390625
1.4977294921875
1.5073974609374998
1.5412353515625
1.529150390625
0.546240234375
0.8354736328125
1.6443603515624998
1.533984375
1.53720703125
1.7684326171875
1.85625
2.6852783203125
1.9553466796874999
1.5057861328125
1.4687255859375
1.4671142578124998
1.5106201171875
1.4896728515625
1.5347900390625
1.5017578125
1.5033691406249998
1.5138427734375
1.5033691406249998
1.5033691406249998
1.4953124999999998
1.5251220703125
2.160791015625
1.4042724609375
1.4719482421874999
1.474365234375
1.284228515625
1.2141357421874999
0.8145263671874999
1.0787841796875
1.3124267578125
1.458251953125
1.4759765624999999
1.4598632812499999
1.4961181640624999
1.5186767578125
1.52109375
1.5186767578125
1.525927734375
1.5106201171875
1.5154541015624998
1.5194824218749998
1.4872558593749998
0.7661865234374999
1.6886718749999998
1.5678222656249998
1.5364013671874999
1.7080078125
1.7442626953125
2.38154296875
1.9779052734375
1.5509033203125
1.474365234375
1.490478515625
1.4928955078125
1.55009765625
1.525927734375
1.4961181640624999
1.48564453125
1.49853515625
1.4953124999999998
1.480810546875
1.4928955078125
1.50498046875
2.7513427734375
1.5082031249999999
1.4767822265625
1.533984375
1.3946044921874998
1.3027587890624999
0.8024414062499999
1.0707275390625
1.229443359375
1.4461669921875
1.458251953125
1.4679199218749999
1.4228027343749998
1.5202880859374999
1.5082031249999999
1.5299560546875
1.53720703125
1.5243164062499999
1.5283447265624999
1.5251220703125
1.482421875
0.13212890624999998
1.5355957031249998
1.5637939453124998
1.5114257812499998
1.5879638671874998
1.732177734375
2.3074218749999997
2.3630126953125
1.687060546875
1.4816162109375
1.4945068359375
1.474365234375
1.5331787109375
1.5041748046874999
1.5122314453124999
1.4816162109375
1.5017578125
1.5082031249999999
1.50498046875
1.4953124999999998
1.509814453125
2.7642333984375
1.5573486328125
1.4373046875
1.522705078125
1.4679199218749999
1.3285400390625
0.9353759765624999
1.0127197265624999
1.206884765625
1.4066894531249998
1.4622802734375
1.4848388671875
1.4348876953124998
1.5573486328125
1.5170654296875
1.5218994140625
1.522705078125
1.5017578125
1.522705078125
1.533984375
1.509814453125
0.1796630859375
1.4880615234374999
1.6379150390625
1.5154541015624998
1.5734619140625
1.7337890624999999
1.9190917968749999
2.6014892578124997
1.638720703125
1.474365234375
1.46630859375
1.4767822265625
1.5396240234374998
1.51787109375
1.5476806640624998
1.4953124999999998
1.4896728515625
1.5114257812499998
1.506591796875
1.49853515625
1.5073974609374998
2.6780273437499997
1.8900878906249998
1.3768798828125
1.4993408203124998
1.4759765624999999
1.264892578125
1.168212890625
1.0707275390625
1.1077880859375
1.3462646484374998
1.461474609375
1.46953125
1.4461669921875
1.525927734375
1.5186767578125
1.5186767578125
1.529150390625
1.5057861328125
1.5323730468749999
1.5299560546875
1.5057861328125
0.24492187499999998
1.058642578125
1.6612792968749999
1.5347900390625
1.5839355468749998
1.740234375
1.77890625
2.6522460937499996
1.8216064453124998
1.5355957031249998
1.4864501953125
1.474365234375
1.5001464843749999
1.5283447265624999
1.529150390625
1.49853515625
1.480810546875
1.5073974609374998
1.5017578125
1.5194824218749998
1.5122314453124999
1.7176757812499999
2.47822265625
1.4510009765624998
1.5017578125
1.4945068359375
1.3559326171875
1.1964111328125
0.8805908203124999
1.05380859375
1.2705322265624999
1.4574462890625
1.4735595703125
1.4767822265625
1.4244140625
1.5146484375
1.5146484375
1.5218994140625
1.5114257812499998
1.5122314453124999
1.5162597656249999
1.5057861328125
1.255224609375
0.44230957031249996
1.622607421875
1.5533203125
1.5315673828124998
1.6218017578125
1.7652099609374998
2.513671875
2.1261474609374997
1.6105224609375
1.5073974609374998
1.4840332031249999
1.4977294921875
1.5299560546875
1.509814453125
1.5041748046874999
1.5041748046874999
1.5017578125
1.5017578125
1.493701171875
1.4945068359375
1.5001464843749999
2.8593017578124997
1.4783935546875
1.4655029296875
1.5251220703125
1.3792968749999999
1.2745605468749999
0.8403076171874999
1.0570312499999999
1.2536132812499998
1.4445556640625
1.456640625
1.477587890625
1.4477783203124999
1.5355957031249998
1.5146484375
1.5146484375
1.5170654296875
1.513037109375
1.5186767578125
1.51787109375
1.5090087890625
0.0749267578125
1.6330810546874999
1.6250244140624999
1.5025634765625
1.619384765625
1.6862548828125
2.0826416015625
2.4886962890624997
1.61455078125
1.48564453125
1.4719482421874999
1.493701171875
1.5380126953125
1.513037109375
1.5170654296875
1.5122314453124999
1.50498046875
1.4888671875
1.4928955078125
1.4920898437499999
1.4928955078125
2.843994140625
1.6991455078125
1.3946044921874998
1.5404296874999999
1.46630859375
1.3253173828125
1.1367919921875
1.042529296875
1.164990234375
1.3792968749999999
1.3728515625
1.4840332031249999
1.4381103515625
1.529150390625
1.5138427734375
1.53076171875
1.5299560546875
1.513037109375
1.5186767578125
1.5347900390625
1.5114257812499998
0.1007080078125
1.3180664062499998
1.64677734375
1.506591796875
1.5839355468749998
1.7740722656249999
1.82724609375
2.5265625
1.7692382812499998
1.4977294921875
1.4872558593749998
1.4671142578124998
1.5194824218749998
1.50498046875
1.5218994140625
1.5114257812499998
1.482421875
1.5162597656249999
1.496923828125
1.4961181640624999
1.4920898437499999
2.2494140625
2.173681640625
1.416357421875
1.5138427734375
1.4816162109375
1.3092041015625
1.1432373046875
0.9756591796874999
1.106982421875
1.3639892578125
1.4461669921875
1.4767822265625
1.46953125
1.5251220703125
1.4928955078125
1.5114257812499998
1.5283447265624999
1.5057861328125
1.5243164062499999
1.5315673828124998
1.5009521484375
0.7154296874999999
0.768603515625
1.6636962890625
1.5073974609374998
1.5654052734375
1.690283203125
1.8062988281249999
2.6514404296875
1.9682373046875
1.5082031249999999
1.474365234375
1.493701171875
1.5041748046874999
1.5202880859374999
1.5243164062499999
1.513037109375
1.4848388671875
1.5106201171875
1.5186767578125
1.513037109375
1.48564453125
1.4864501953125
2.238134765625
1.4268310546874998
1.4598632812499999
1.5138427734375
1.3092041015625
1.2697265624999998
0.8177490234375
1.0787841796875
1.30517578125
1.4381103515625
1.4510009765624998
1.4767822265625
1.4840332031249999
1.5251220703125
1.5122314453124999
1.5412353515625
1.5428466796875
1.5267333984375
1.522705078125
1.52109375
1.4920898437499999
0.6775634765624999
1.651611328125
1.5782958984375
1.5243164062499999
1.6717529296875
1.7297607421874999
2.3275634765624997
1.993212890625
1.5734619140625
1.4864501953125
1.5009521484375
1.4840332031249999
1.5162597656249999
1.4993408203124998
1.5025634765625
1.5001464843749999
1.5057861328125
1.5194824218749998
1.5057861328125
1.4993408203124998
1.5106201171875
2.769873046875
1.5396240234374998
1.4429443359374998
1.525927734375
1.4510009765624998
1.3341796874999998
0.813720703125
1.0513916015625
1.222998046875
1.4066894531249998
1.461474609375
1.4687255859375
1.429248046875
1.5251220703125
1.5154541015624998
1.5267333984375
1.5082031249999999
1.5073974609374998
1.5114257812499998
1.5243164062499999
1.5106201171875
0.16274414062499998
1.506591796875
1.6427490234375
1.5194824218749998
1.5718505859374998
1.7007568359374998
2.2913085937499997
2.3307861328125
1.6725585937499998
1.496923828125
1.474365234375
1.5033691406249998
1.533984375
1.51787109375
1.5275390624999998
1.4872558593749998
1.5041748046874999
1.5146484375
1.5146484375
1.5001464843749999
1.493701171875
2.6723876953124996
1.8626953124999999
1.4550292968749998
1.5396240234374998
1.4606689453125
1.3341796874999998
0.9982177734375
1.02802734375
1.1295410156249999
1.4115234374999999
1.4590576171874998
1.477587890625
1.4348876953124998
1.558154296875
1.513037109375
1.5106201171875
1.5122314453124999
1.5041748046874999
1.5114257812499998
1.5323730468749999
1.5073974609374998
0.278759765625
1.0932861328124999
1.6427490234375
1.496923828125
1.5807128906249999
1.72412109375
1.8828369140624999
2.6047119140625
1.6927001953124998
1.5001464843749999
1.4759765624999999
1.4791992187499998
1.5283447265624999
1.4961181640624999
1.5283447265624999
1.5106201171875
1.4912841796874998
1.5001464843749999
1.5057861328125
1.4993408203124998
1.5033691406249998
1.791796875
1.9086181640625
1.393798828125
1.48564453125
1.477587890625
1.2995361328125
1.239111328125
0.8934814453125
1.1158447265625
1.3382080078124998
1.4501953125
1.4687255859375
1.448583984375
1.5082031249999999
1.5073974609374998
1.52109375
1.5251220703125
1.5073974609374998
1.5251220703125
1.513037109375
1.5106201171875
0.36496582031249997
1.0368896484374999
1.651611328125
1.55009765625
1.5573486328125
1.7378173828124999
1.7652099609374998
2.5128662109374997
1.848193359375
1.538818359375
1.4896728515625
1.4848388671875
1.5073974609374998
1.5194824218749998
1.5122314453124999
1.50498046875
1.5033691406249998
1.5073974609374998
1.5122314453124999
1.50498046875
1.5017578125
1.69189453125
2.454052734375
1.448583984375
1.474365234375
1.5001464843749999
1.3623779296874998
1.29228515625
0.87333984375
1.0723388671875
1.2777832031249998
1.445361328125
1.4638916015624999
1.4832275390624998
1.4477783203124999
1.5122314453124999
1.51787109375
1.5331787109375
1.5186767578125
1.522705078125
1.529150390625
1.5194824218749998
1.3188720703124999
0.44794921875
1.6121337890624998
1.5484863281249999
1.5323730468749999
1.625830078125
1.690283203125
2.4322998046874997
2.147900390625
1.6153564453125
1.4832275390624998
1.4751708984374998
1.4872558593749998
1.5275390624999998
1.52109375
1.5154541015624998
1.493701171875
1.4993408203124998
1.5122314453124999
1.4961181640624999
1.49853515625
1.5090087890625
2.8166015625
1.464697265625
1.4816162109375
1.5267333984375
1.4429443359374998
1.300341796875
0.8588378906249999
1.0505859375
1.2721435546875
1.4437499999999999
1.4550292968749998
1.48564453125
1.4381103515625
1.5347900390625
1.52109375
1.5243164062499999
1.50498046875
1.5041748046874999
1.5243164062499999
1.55009765625
1.5057861328125
0.12246093749999999
1.6024658203125
1.6000488281249998
1.4953124999999998
1.5895751953125
1.6886718749999998
2.0004638671875
2.4846679687499997
1.6201904296874998
1.48564453125
1.48564453125
1.4961181640624999
1.538818359375
1.5138427734375
1.5202880859374999
1.4953124999999998
1.496923828125
1.5162597656249999
1.5041748046874999
1.4928955078125
1.4945068359375
2.7996826171875
1.6733642578124999
1.4107177734374998
1.5299560546875
1.429248046875
1.3180664062499998
1.148876953125
1.0578369140625
1.1794921875
1.4026611328124998
1.4622802734375
1.4767822265625
1.4284423828125
1.5299560546875
1.51787109375
1.522705078125
1.5347900390625
1.5041748046874999
1.538818359375
1.5267333984375
1.5057861328125
0.1297119140625
1.319677734375
1.6435546875
1.5323730468749999
1.5758789062499998
1.7265380859375
1.8328857421875
2.5128662109374997
1.7297607421874999
1.5082031249999999
1.5033691406249998
1.506591796875
1.52109375
1.4888671875
1.522705078125
1.4953124999999998
1.4864501953125
1.50498046875
1.513037109375
1.5009521484375
1.4840332031249999
2.1857666015625
2.1632080078125
1.4139404296875
1.5364013671874999
1.46953125
1.300341796875
1.1722412109375
0.9821044921875
1.0948974609375
1.377685546875
1.4558349609374999
1.4767822265625
1.4735595703125
1.52109375
1.5267333984375
1.5146484375
1.5194824218749998
1.5186767578125
1.5218994140625
1.5243164062499999
1.4896728515625
0.7541015624999999
0.791162109375
1.651611328125
1.5138427734375
1.542041015625
1.6935058593749999
1.8014648437499998
2.5853759765624997
1.9464843749999998
1.5202880859374999
1.4880615234374999
1.4759765624999999
1.50498046875
1.5202880859374999
1.51787109375
1.5025634765625
1.48564453125
1.5009521484375
1.509814453125
1.50498046875
1.49853515625
1.496923828125
2.2341064453125
1.4107177734374998
1.4550292968749998
1.5235107421874998
1.3269287109374999
1.2769775390625
0.8507812499999999
1.09248046875
1.3011474609375
1.4501953125
1.4630859374999998
1.4767822265625
1.4800048828124999
1.533984375
1.51787109375
1.5194824218749998
1.5106201171875
1.5090087890625
1.522705078125
1.5323730468749999
1.5122314453124999
0.700927734375
1.6508056640625
1.5678222656249998
1.5017578125
1.6894775390624999
1.7176757812499999
2.225244140625
2.0036865234375
1.5791015625
1.482421875
1.4840332031249999
1.5001464843749999
1.5364013671874999
1.51787109375
1.52109375
1.4896728515625
1.5001464843749999
1.5057861328125
1.4961181640624999
1.5017578125
1.4953124999999998
2.7287841796874996
1.53076171875
1.4461669921875
1.5509033203125
1.4332763671875
1.3309570312499999
0.8386962890624999
1.087646484375
1.22783203125
1.4332763671875
1.4493896484375
1.4687255859375
1.4469726562499998
1.5243164062499999
1.5202880859374999
1.53076171875
1.5202880859374999
1.4928955078125
1.509814453125
1.53076171875
1.493701171875
0.17241210937499998
1.5025634765625
1.6451660156249999
1.5082031249999999
1.593603515625
1.72734375
2.164013671875
2.3477050781249997
1.6959228515625
1.4840332031249999
1.480810546875
1.4791992187499998
1.529150390625
1.5154541015624998
1.5323730468749999
1.513037109375
1.5009521484375
1.5090087890625
1.4945068359375
1.4896728515625
1.4888671875
2.6337158203124997
1.8755859375
1.4550292968749998
1.5331787109375
1.4469726562499998
1.3317626953125
1.0530029296874999
1.019970703125
1.148876953125
1.41796875
1.4638916015624999
1.4800048828124999
1.4219970703125
1.5436523437499998
1.51787109375
1.5364013671874999
1.5315673828124998
1.509814453125
1.5073974609374998
1.522705078125
1.51787109375
0.34885253906249997
1.055419921875
1.6491943359374999
1.5009521484375
1.5766845703124999
1.7120361328125
1.851416015625
2.60068359375
1.7096191406249999
1.506591796875
1.4751708984374998
1.4711425781249998
1.5323730468749999
1.4945068359375
1.5243164062499999
1.48564453125
1.496923828125
1.5082031249999999
1.5017578125
1.493701171875
1.49853515625
1.716064453125
1.9352050781249999
1.3792968749999999
1.5033691406249998
