0.10231933593749999
0.1619384765625
0.1699951171875
0.0217529296875
0.020947265625
0.0217529296875
0.019335937499999997
0.024169921875
0.020947265625
0.023364257812499997
2.08505859375
2.8931396484375
3.027685546875
3.0301025390625
3.0268798828124996
3.0268798828124996
3.027685546875
3.029296875
3.0252685546875
3.0284912109374997
3.029296875
3.0244628906249997
3.0284912109374997
3.027685546875
3.0268798828124996
3.0244628906249997
3.029296875
3.0268798828124996
3.027685546875
3.0236572265625
2.1438720703125
1.0119140625
0.020947265625
0.0217529296875
0.017724609375
0.0217529296875
0.022558593749999998
0.024169921875
0.022558593749999998
0.022558593749999998
0.0217529296875
0.0217529296875
0.033032226562499996
0.1474365234375
0.175634765625
0.0217529296875
0.019335937499999997
0.017724609375
0.020947265625
0.0217529296875
0.020947265625
0.0217529296875
1.6781982421875
2.6941406249999997
3.0309082031249996
3.02607421875
3.0309082031249996
3.0236572265625
3.0268798828124996
3.027685546875
3.027685546875
3.027685546875
3.0236572265625
3.0325195312499997
3.029296875
3.027685546875
3.027685546875
3.029296875
3.0301025390625
3.0284912109374997
3.0284912109374997
3.0244628906249997
3.0325195312499997
1.319677734375
0.020947265625
0.024169921875
0.022558593749999998
0.023364257812499997
0.0217529296875
0.023364257812499997
0.022558593749999998
0.0217529296875
0.022558593749999998
0.0394775390625
0.0966796875
0.18046874999999998
0.26425781249999997
0.0217529296875
0.0249755859375
0.0217529296875
0.020947265625
0.0217529296875
0.024169921875
0.0249755859375
1.43408203125
2.383154296875
3.0301025390625
3.029296875
3.029296875
3.0268798828124996
3.0268798828124996
3.027685546875
3.029296875
3.0268798828124996
3.0252685546875
3.029296875
3.0252685546875
3.0268798828124996
2.9994873046875
3.02607421875
3.027685546875
3.027685546875
3.027685546875
3.0284912109374997
3.0284912109374997
1.9545410156249998
0.515625
0.0217529296875
0.0249755859375
0.0217529296875
0.020947265625
0.020947265625
0.022558593749999998
0.0217529296875
0.0217529296875
0.019335937499999997
0.0298095703125
0.049951171875
0.1458251953125
0.1716064453125
0.024169921875
0.022558593749999998
0.02578125
0.018530273437499998
0.022558593749999998
0.022558593749999998
0.020947265625
1.819189453125
3.0325195312499997
3.0268798828124996
3.02607421875
3.0309082031249996
3.0268798828124996
3.0309082031249996
3.0284912109374997
3.0284912109374997
3.027685546875
3.0268798828124996
3.029296875
3.02607421875
3.0139892578125
3.027685546875
3.027685546875
3.0268798828124996
3.0268798828124996
3.0284912109374997
3.0268798828124996
2.0971435546875
0.7476562499999999
0.023364257812499997
0.0217529296875
0.022558593749999998
0.018530273437499998
0.022558593749999998
0.0217529296875
0.0217529296875
0.0249755859375
0.02578125
0.049145507812499996
0.09990234375
0.1571044921875
0.1699951171875
0.0281982421875
0.019335937499999997
0.022558593749999998
0.022558593749999998
0.020947265625
0.022558593749999998
0.022558593749999998
1.4284423828125
2.615185546875
3.0268798828124996
3.027685546875
3.0301025390625
3.0325195312499997
3.0284912109374997
3.029296875
3.027685546875
3.027685546875
3.027685546875
3.02607421875
3.029296875
3.0220458984375
3.0236572265625
3.029296875
3.029296875
3.029296875
3.02607421875
3.0244628906249997
3.0325195312499997
1.4590576171874998
0.0958740234375
0.020947265625
0.024169921875
0.0217529296875
0.0217529296875
0.022558593749999998
0.022558593749999998
0.0217529296875
0.0201416015625
0.08540039062499999
0.130517578125
0.20625
0.2505615234375
0.022558593749999998
0.020947265625
0.0217529296875
0.022558593749999998
0.0217529296875
0.018530273437499998
0.017724609375
1.1593505859375
2.37509765625
3.0317138671875
3.02607421875
3.0236572265625
3.029296875
3.0268798828124996
3.0309082031249996
3.0284912109374997
3.0268798828124996
3.02607421875
3.029296875
3.027685546875
3.0220458984375
3.029296875
3.0268798828124996
3.029296875
3.0268798828124996
3.0284912109374997
3.0284912109374997
3.029296875
1.9787109374999998
0.6437255859375
0.018530273437499998
0.020947265625
0.020947265625
0.0249755859375
0.019335937499999997
0.0217529296875
0.0217529296875
0.0201416015625
0.023364257812499997
0.02578125
0.0708984375
0.17644042968749998
0.1893310546875
0.0217529296875
0.0217529296875
0.0217529296875
0.023364257812499997
0.022558593749999998
0.017724609375
0.018530273437499998
1.5605712890624999
2.8721923828125
3.0301025390625
3.0325195312499997
3.0284912109374997
3.027685546875
3.0268798828124996
3.0268798828124996
3.0325195312499997
3.027685546875
3.029296875
3.0301025390625
3.0252685546875
3.02607421875
3.0244628906249997
3.0252685546875
3.0325195312499997
3.0268798828124996
3.029296875
3.0301025390625
2.254248046875
0.8354736328125
0.0217529296875
0.019335937499999997
0.0217529296875
0.0217529296875
0.0217529296875
0.018530273437499998
0.023364257812499997
0.0169189453125
0.024169921875
0.022558593749999998
0.0878173828125
0.21914062499999998
0.34079589843749997
0.024169921875
0.020947265625
0.0249755859375
0.0217529296875
0.0217529296875
0.022558593749999998
0.0249755859375
1.7208984374999998
2.6449951171875
3.0268798828124996
3.0252685546875
3.0268798828124996
3.0309082031249996
3.0284912109374997
3.029296875
3.027685546875
3.029296875
3.0301025390625
3.0301025390625
3.027685546875
3.0284912109374997
3.027685546875
3.0268798828124996
3.0236572265625
3.027685546875
3.02607421875
3.0268798828124996
3.0244628906249997
1.5251220703125
0.17080078124999998
0.024169921875
0.018530273437499998
0.0217529296875
0.022558593749999998
0.022558593749999998
0.022558593749999998
0.0217529296875
0.02578125
0.042700195312499994
0.09829101562499999
0.2183349609375
0.3343505859375
0.022558593749999998
0.020947265625
0.018530273437499998
0.0217529296875
0.024169921875
0.022558593749999998
0.019335937499999997
0.165966796875
2.466943359375
3.029296875
3.0284912109374997
3.029296875
3.029296875
3.029296875
3.0268798828124996
3.0317138671875
3.0228515624999996
3.027685546875
3.029296875
3.027685546875
3.027685546875
3.0172119140625
3.027685546875
3.027685546875
3.0325195312499997
3.027685546875
3.029296875
3.0309082031249996
2.0044921875
0.6582275390625
0.0217529296875
0.024169921875
0.0249755859375
0.017724609375
0.0217529296875
0.022558593749999998
0.017724609375
0.0249755859375
0.020947265625
0.04833984375
0.091845703125
0.17885742187499998
0.1732177734375
0.0217529296875
0.0217529296875
0.0217529296875
0.017724609375
0.0249755859375
0.0217529296875
0.0217529296875
1.4574462890625
2.769873046875
3.0284912109374997
3.0268798828124996
3.02607421875
3.027685546875
3.0284912109374997
3.029296875
3.0268798828124996
3.029296875
3.0301025390625
3.027685546875
3.0309082031249996
3.02607421875
3.0309082031249996
3.0284912109374997
3.0284912109374997
3.0301025390625
3.0301025390625
3.0284912109374997
2.874609375
0.8991210937499999
0.024169921875
0.0217529296875
0.022558593749999998
0.0217529296875
0.024169921875
0.02900390625
0.023364257812499997
0.020947265625
0.0217529296875
0.072509765625
0.14018554687499998
0.22075195312499998
0.2900390625
0.018530273437499998
0.019335937499999997
0.0249755859375
0.019335937499999997
0.017724609375
0.022558593749999998
0.024169921875
1.5807128906249999
2.647412109375
3.0309082031249996
3.0301025390625
3.029296875
3.0309082031249996
3.02607421875
3.0284912109374997
3.027685546875
3.0309082031249996
3.027685546875
3.0268798828124996
3.027685546875
3.0284912109374997
3.027685546875
3.027685546875
3.0365478515624997
3.0268798828124996
3.027685546875
3.0317138671875
3.02607421875
1.5138427734375
0.23928222656249998
0.0217529296875
0.0217529296875
0.0249755859375
0.024169921875
0.0217529296875
0.0249755859375
0.024169921875
0.024169921875
0.046728515624999994
0.09023437499999999
0.21511230468749998
0.2900390625
0.0217529296875
0.0217529296875
0.0217529296875
0.0201416015625
0.018530273437499998
0.022558593749999998
0.0217529296875
0.020947265625
2.2695556640625
3.0284912109374997
3.027685546875
3.0268798828124996
3.02607421875
3.029296875
3.029296875
3.0268798828124996
3.0301025390625
3.0284912109374997
3.027685546875
3.0301025390625
3.02607421875
3.0244628906249997
3.029296875
3.0301025390625
3.029296875
3.0252685546875
3.0284912109374997
3.0244628906249997
2.1543457031249997
0.46083984375
0.024169921875
0.0217529296875
0.0217529296875
0.023364257812499997
0.020947265625
0.020947265625
0.017724609375
0.0217529296875
0.024169921875
0.023364257812499997
0.120849609375
0.22236328125
0.2634521484375
0.023364257812499997
0.020947265625
0.02578125
0.0217529296875
0.022558593749999998
0.022558593749999998
0.018530273437499998
2.160791015625
3.018017578125
3.0284912109374997
3.0309082031249996
3.0252685546875
3.0228515624999996
3.0284912109374997
3.0220458984375
3.0268798828124996
3.0244628906249997
3.027685546875
3.0309082031249996
3.029296875
3.0268798828124996
3.02607421875
3.0252685546875
3.0284912109374997
3.0236572265625
3.027685546875
3.029296875
2.0496093749999997
1.00224609375
0.022558593749999998
0.018530273437499998
0.023364257812499997
0.02578125
0.020947265625
0.020947265625
0.023364257812499997
0.022558593749999998
0.0249755859375
0.08056640625
0.088623046875
0.18852539062499998
0.2827880859375
0.0217529296875
0.020947265625
0.019335937499999997
0.019335937499999997
0.0201416015625
0.0217529296875
0.022558593749999998
1.506591796875
2.6127685546875
3.029296875
3.0284912109374997
3.02607421875
3.0252685546875
3.029296875
3.0252685546875
3.0268798828124996
3.0284912109374997
3.0309082031249996
3.0252685546875
3.029296875
3.0284912109374997
3.027685546875
3.029296875
3.029296875
3.0268798828124996
3.0301025390625
3.029296875
3.0236572265625
1.6322753906249998
0.0217529296875
0.022558593749999998
0.023364257812499997
0.024169921875
0.023364257812499997
0.0217529296875
0.018530273437499998
0.024169921875
0.023364257812499997
0.0217529296875
0.0217529296875
0.062841796875
0.1716064453125
0.0201416015625
0.022558593749999998
0.018530273437499998
0.019335937499999997
0.0217529296875
0.0201416015625
0.023364257812499997
0.02578125
2.5322021484375
3.02607421875
3.02607421875
3.029296875
3.0284912109374997
3.027685546875
3.027685546875
3.0268798828124996
3.029296875
3.0268798828124996
3.02607421875
3.0268798828124996
3.02607421875
2.9978759765625
3.029296875
3.0284912109374997
3.029296875
3.0284912109374997
3.02607421875
3.0268798828124996
2.1954345703125
0.4922607421875
0.020947265625
0.0169189453125
0.0201416015625
0.0217529296875
0.018530273437499998
0.020947265625
0.020947265625
0.0201416015625
0.023364257812499997
0.033032226562499996
0.09829101562499999
0.18449707031249998
0.2360595703125
0.0217529296875
0.0217529296875
0.024169921875
0.022558593749999998
0.024169921875
0.0217529296875
0.022558593749999998
2.2695556640625
3.0268798828124996
3.0301025390625
3.0252685546875
3.0309082031249996
3.0252685546875
3.029296875
3.0268798828124996
3.0268798828124996
3.0284912109374997
3.029296875
3.027685546875
3.027685546875
3.0268798828124996
3.0301025390625
3.029296875
3.029296875
3.02607421875
3.0252685546875
3.027685546875
2.3235351562499997
1.1021484375
0.0217529296875
0.0217529296875
0.0201416015625
0.0217529296875
0.020947265625
0.0217529296875
0.0217529296875
0.022558593749999998
0.0249755859375
0.0314208984375
0.08217773437499999
0.1812744140625
0.2296142578125
0.0201416015625
0.0217529296875
0.0249755859375
0.022558593749999998
0.023364257812499997
0.023364257812499997
0.0217529296875
1.5218994140625
2.6288818359375
3.0268798828124996
3.0284912109374997
3.029296875
3.0268798828124996
3.02607421875
3.0268798828124996
3.0284912109374997
3.0301025390625
3.0252685546875
3.027685546875
3.027685546875
3.0123779296874997
3.0244628906249997
3.027685546875
3.027685546875
3.0268798828124996
3.0301025390625
3.0268798828124996
3.0284912109374997
1.7660156249999999
0.04189453125
0.0217529296875
0.0217529296875
0.018530273437499998
0.0201416015625
0.023364257812499997
0.023364257812499997
0.022558593749999998
0.0217529296875
0.022558593749999998
0.023364257812499997
0.1007080078125
0.1071533203125
0.059619140625
0.0217529296875
0.022558593749999998
0.0217529296875
0.023364257812499997
0.0201416015625
0.019335937499999997
0.0217529296875
2.3235351562499997
3.003515625
3.0268798828124996
3.0268798828124996
3.0268798828124996
3.0301025390625
3.0317138671875
3.0309082031249996
3.02607421875
3.0309082031249996
3.0309082031249996
3.0268798828124996
3.034130859375
3.011572265625
3.0252685546875
3.02607421875
3.0309082031249996
3.02607421875
3.0309082031249996
3.027685546875
1.851416015625
0.56396484375
0.024169921875
0.018530273437499998
0.022558593749999998
0.018530273437499998
0.02578125
0.023364257812499997
0.020947265625
0.024169921875
0.023364257812499997
0.024169921875
0.07009277343749999
0.14018554687499998
0.1941650390625
0.0217529296875
0.020947265625
0.0217529296875
0.020947265625
0.02578125
0.0217529296875
0.0249755859375
2.1140624999999997
2.9640380859374997
3.02607421875
3.0301025390625
3.027685546875
3.0244628906249997
3.0268798828124996
3.029296875
3.0301025390625
3.029296875
3.029296875
3.0252685546875
3.0301025390625
3.01962890625
3.0284912109374997
3.0244628906249997
3.0284912109374997
3.029296875
3.029296875
3.0268798828124996
2.634521484375
1.21171875
0.020947265625
0.020947265625
0.024169921875
0.0217529296875
0.018530273437499998
0.02578125
0.022558593749999998
0.022558593749999998
0.0217529296875
0.0394775390625
0.0966796875
0.15227050781249998
0.20463867187499998
0.024169921875
0.019335937499999997
0.017724609375
0.0217529296875
0.023364257812499997
0.019335937499999997
0.022558593749999998
1.477587890625
2.4822509765625
3.0252685546875
3.029296875
3.027685546875
3.02607421875
3.0268798828124996
3.027685546875
3.0284912109374997
3.0301025390625
3.0284912109374997
3.0301025390625
3.0317138671875
2.99384765625
2.9656494140625
3.0301025390625
3.027685546875
3.0244628906249997
3.0284912109374997
3.0268798828124996
3.0284912109374997
1.851416015625
0.14421386718749998
0.022558593749999998
0.019335937499999997
0.0217529296875
0.0201416015625
0.0249755859375
0.022558593749999998
0.024169921875
0.0217529296875
0.023364257812499997
0.0749267578125
0.107958984375
0.2054443359375
0.2199462890625
0.019335937499999997
0.0217529296875
0.0217529296875
0.0217529296875
0.026586914062499998
0.019335937499999997
0.023364257812499997
2.2308837890624997
3.0010986328125
3.0252685546875
3.027685546875
3.029296875
3.02607421875
3.02607421875
3.0268798828124996
3.02607421875
3.029296875
3.02607421875
3.0268798828124996
3.0236572265625
2.9833740234375
3.0268798828124996
3.0284912109374997
3.0284912109374997
3.027685546875
3.0301025390625
3.0284912109374997
1.8409423828125
0.56396484375
0.018530273437499998
0.0201416015625
0.020947265625
0.023364257812499997
0.023364257812499997
0.0169189453125
0.022558593749999998
0.020947265625
0.02578125
0.03544921875
0.09345703124999999
0.15468749999999998
0.17885742187499998
0.020947265625
0.02578125
0.020947265625
0.0217529296875
0.022558593749999998
0.0217529296875
0.022558593749999998
1.7684326171875
2.6868896484375
3.029296875
3.027685546875
3.027685546875
3.0301025390625
3.02607421875
3.02607421875
3.0284912109374997
3.029296875
3.0268798828124996
3.0301025390625
3.027685546875
3.0123779296874997
3.029296875
3.02607421875
3.0284912109374997
3.0309082031249996
3.027685546875
3.0301025390625
2.6691650390625
1.2656982421874998
0.023364257812499997
0.0217529296875
0.023364257812499997
0.0217529296875
0.022558593749999998
0.0217529296875
0.023364257812499997
0.0201416015625
0.0217529296875
0.020947265625
0.04189453125
0.04189453125
0.11843261718749999
0.02578125
0.023364257812499997
0.020947265625
0.024169921875
0.0217529296875
0.0217529296875
0.0217529296875
0.6388916015624999
2.5168945312499997
3.0301025390625
3.0309082031249996
3.027685546875
3.027685546875
3.02607421875
3.027685546875
3.0252685546875
3.029296875
3.027685546875
3.027685546875
3.0268798828124996
2.9970703125
2.9720947265624997
3.029296875
3.0268798828124996
3.0252685546875
3.0284912109374997
3.02607421875
3.0268798828124996
1.8699462890624998
0.1538818359375
0.022558593749999998
0.022558593749999998
0.022558593749999998
0.022558593749999998
0.023364257812499997
0.022558593749999998
0.024169921875
0.018530273437499998
0.020947265625
0.0298095703125
0.06767578125
0.11037597656249999
0.15629882812499998
0.0217529296875
0.023364257812499997
0.020947265625
0.022558593749999998
0.022558593749999998
0.02900390625
0.022558593749999998
1.8224121093749999
2.6232421875
3.0284912109374997
3.0268798828124996
3.027685546875
3.027685546875
3.027685546875
3.029296875
3.0309082031249996
3.029296875
3.0309082031249996
3.027685546875
3.0252685546875
3.0284912109374997
3.0284912109374997
3.0284912109374997
3.0284912109374997
3.02607421875
3.029296875
3.0268798828124996
1.8868652343749999
0.7033447265624999
0.020947265625
0.022558593749999998
0.023364257812499997
0.0217529296875
0.022558593749999998
0.012890625
0.022558593749999998
0.0217529296875
0.0217529296875
0.019335937499999997
0.0733154296875
0.13857421875
0.1957763671875
0.0201416015625
0.0217529296875
0.0217529296875
0.020947265625
0.018530273437499998
0.022558593749999998
0.022558593749999998
1.5670166015625
2.5289794921874997
3.0301025390625
3.027685546875
3.0284912109374997
3.029296875
3.0268798828124996
3.029296875
3.0268798828124996
3.029296875
3.034130859375
3.0284912109374997
3.0228515624999996
3.0268798828124996
3.0268798828124996
3.0301025390625
3.027685546875
3.02607421875
3.0244628906249997
3.027685546875
2.92939453125
1.3688232421875
0.0217529296875
0.02578125
0.020947265625
0.022558593749999998
0.0217529296875
0.02578125
0.0217529296875
0.022558593749999998
0.0201416015625
0.030615234374999998
0.07009277343749999
0.136962890625
0.1716064453125
0.022558593749999998
0.0217529296875
0.022558593749999998
0.022558593749999998
0.022558593749999998
0.015307617187499999
0.022558593749999998
0.0217529296875
2.3887939453125
3.027685546875
3.027685546875
3.027685546875
3.0309082031249996
3.027685546875
3.02607421875
3.029296875
3.02607421875
3.027685546875
3.02607421875
3.029296875
3.0252685546875
3.027685546875
3.027685546875
3.02607421875
3.029296875
3.027685546875
3.0252685546875
3.027685546875
1.9634033203124999
0.27392578125
0.022558593749999998
0.0217529296875
0.023364257812499997
0.022558593749999998
0.0201416015625
0.022558593749999998
0.020947265625
0.0217529296875
0.0217529296875
0.0394775390625
0.072509765625
0.153076171875
0.18691406249999998
0.022558593749999998
0.020947265625
0.019335937499999997
0.020947265625
0.020947265625
0.0217529296875
0.022558593749999998
1.732177734375
2.62646484375
3.029296875
3.02607421875
3.0268798828124996
3.0244628906249997
3.0284912109374997
3.027685546875
3.0252685546875
3.0236572265625
3.027685546875
3.027685546875
3.0301025390625
3.01318359375
3.0268798828124996
3.0309082031249996
3.0284912109374997
3.029296875
3.0301025390625
3.0301025390625
1.861083984375
0.720263671875
0.0249755859375
0.0217529296875
0.022558593749999998
0.022558593749999998
0.0217529296875
0.020947265625
0.022558593749999998
0.022558593749999998
0.058813476562499994
0.072509765625
0.15468749999999998
0.21914062499999998
0.246533203125
0.019335937499999997
0.020947265625
0.023364257812499997
0.0217529296875
0.0217529296875
0.0217529296875
0.022558593749999998
1.3865478515624998
2.4081298828124997
3.027685546875
3.0309082031249996
3.029296875
3.027685546875
3.0357421875
3.027685546875
3.027685546875
3.0284912109374997
3.029296875
3.027685546875
3.029296875
3.0325195312499997
3.0284912109374997
3.0309082031249996
3.029296875
3.0284912109374997
3.027685546875
3.0236572265625
2.9833740234375
1.4501953125
0.019335937499999997
0.022558593749999998
0.022558593749999998
0.0217529296875
0.019335937499999997
0.022558593749999998
0.022558593749999998
0.0217529296875
0.024169921875
0.020947265625
0.019335937499999997
0.078955078125
0.1248779296875
0.017724609375
0.0217529296875
0.0201416015625
0.0217529296875
0.0217529296875
0.0217529296875
0.023364257812499997
0.023364257812499997
2.0794189453125
3.0228515624999996
3.029296875
3.0301025390625
3.0301025390625
3.02607421875
3.0268798828124996
3.029296875
3.027685546875
3.0268798828124996
3.027685546875
3.02607421875
3.029296875
3.02607421875
3.0244628906249997
3.0268798828124996
3.02607421875
3.0244628906249997
3.0284912109374997
3.0325195312499997
1.96904296875
0.2457275390625
0.02578125
0.0217529296875
0.022558593749999998
0.022558593749999998
0.0201416015625
0.023364257812499997
0.0217529296875
0.024169921875
0.033837890625
0.040283203125
0.0966796875
0.1732177734375
0.167578125
0.0217529296875
0.018530273437499998
0.02578125
0.023364257812499997
0.0217529296875
0.0201416015625
0.0217529296875
1.8151611328125
2.67158203125
3.029296875
3.029296875
3.027685546875
3.02607421875
3.029296875
3.0325195312499997
3.0252685546875
3.029296875
3.027685546875
3.0252685546875
3.0309082031249996
3.0301025390625
3.027685546875
3.02607421875
3.029296875
3.0284912109374997
3.027685546875
3.029296875
1.9223144531249998
0.8467529296874999
0.020947265625
0.020947265625
0.022558593749999998
0.022558593749999998
0.02578125
0.022558593749999998
0.0217529296875
0.018530273437499998
0.0249755859375
0.059619140625
0.12810058593749998
0.19013671875
0.2376708984375
0.0201416015625
0.022558593749999998
0.020947265625
0.0217529296875
0.0217529296875
0.0249755859375
0.019335937499999997
1.2640869140625
2.3783203125
3.0301025390625
3.0301025390625
3.029296875
3.027685546875
3.0268798828124996
3.027685546875
3.027685546875
3.0284912109374997
3.0284912109374997
3.0284912109374997
3.0301025390625
3.0284912109374997
3.0268798828124996
3.027685546875
3.0244628906249997
3.0284912109374997
3.027685546875
3.0284912109374997
2.8705810546875
1.5847412109374999
0.2038330078125
0.015307617187499999
0.024169921875
0.022558593749999998
0.0217529296875
0.0217529296875
0.0201416015625
0.020947265625
0.0249755859375
0.018530273437499998
0.024169921875
0.0958740234375
0.1998046875
0.020947265625
0.019335937499999997
0.020947265625
0.020947265625
0.019335937499999997
0.019335937499999997
0.022558593749999998
0.022558593749999998
1.8868652343749999
2.9156982421874997
3.029296875
3.0301025390625
3.0268798828124996
3.027685546875
3.027685546875
3.0284912109374997
3.0268798828124996
3.029296875
3.0284912109374997
3.02607421875
3.029296875
3.0284912109374997
3.029296875
3.029296875
3.029296875
3.0244628906249997
3.0317138671875
3.029296875
2.012548828125
0.2900390625
0.0217529296875
0.020947265625
0.023364257812499997
0.0217529296875
0.0217529296875
0.018530273437499998
0.0201416015625
0.022558593749999998
0.024169921875
0.027392578124999997
0.04833984375
0.127294921875
0.1313232421875
0.024169921875
0.0201416015625
0.0201416015625
0.019335937499999997
0.0201416015625
0.026586914062499998
0.023364257812499997
1.8618896484374998
2.7239501953125
3.027685546875
3.0309082031249996
3.02607421875
3.029296875
3.0325195312499997
3.02607421875
3.02607421875
3.0309082031249996
3.0325195312499997
3.029296875
3.0252685546875
3.0099609375
3.027685546875
3.029296875
3.0268798828124996
3.029296875
3.029296875
3.0309082031249996
1.9746826171874998
0.9434326171874999
0.019335937499999997
0.020947265625
0.022558593749999998
0.022558593749999998
0.0201416015625
0.020947265625
0.020947265625
0.020947265625
0.023364257812499997
0.0733154296875
0.103125
0.17080078124999998
0.17080078124999998
0.022558593749999998
0.019335937499999997
0.0217529296875
0.022558593749999998
0.022558593749999998
0.0217529296875
0.022558593749999998
1.2721435546875
2.344482421875
3.029296875
3.029296875
3.02607421875
3.027685546875
3.0268798828124996
3.0309082031249996
3.02607421875
3.0268798828124996
3.0284912109374997
3.029296875
3.027685546875
3.0268798828124996
3.0244628906249997
3.0268798828124996
3.029296875
3.0317138671875
3.027685546875
3.0268798828124996
2.856884765625
1.67578125
0.301318359375
0.0217529296875
0.019335937499999997
0.0281982421875
0.022558593749999998
0.022558593749999998
0.0217529296875
0.018530273437499998
0.0217529296875
0.020947265625
0.0217529296875
0.0797607421875
0.15227050781249998
0.022558593749999998
0.023364257812499997
0.022558593749999998
0.020947265625
0.023364257812499997
0.022558593749999998
0.022558593749999998
0.019335937499999997
1.98515625
3.0252685546875
3.029296875
3.029296875
3.0301025390625
3.0301025390625
3.02607421875
3.0301025390625
3.0268798828124996
3.029296875
3.0284912109374997
3.0268798828124996
3.0268798828124996
3.02607421875
3.029296875
3.0244628906249997
3.0268798828124996
3.0301025390625
3.0301025390625
3.029296875
2.012548828125
0.40122070312499997
0.0217529296875
0.02578125
0.0217529296875
0.020947265625
0.0217529296875
0.02578125
0.02900390625
0.023364257812499997
0.023364257812499997
0.0346435546875
0.1007080078125
0.16032714843749998
0.169189453125
0.0217529296875
0.0217529296875
0.0217529296875
0.023364257812499997
0.020947265625
0.024169921875
0.02578125
1.658056640625
2.56845703125
3.027685546875
3.0268798828124996
3.027685546875
3.0268798828124996
3.029296875
3.027685546875
3.0284912109374997
3.027685546875
3.0284912109374997
3.029296875
3.0236572265625
3.0268798828124996
3.029296875
3.0284912109374997
3.02607421875
3.027685546875
3.02607421875
3.029296875
2.031884765625
1.0594482421875
0.02578125
0.022558593749999998
0.0201416015625
0.022558593749999998
0.0217529296875
0.0217529296875
0.022558593749999998
0.022558593749999998
0.022558593749999998
0.023364257812499997
0.0845947265625
0.1313232421875
0.1506591796875
0.0217529296875
0.0217529296875
0.024169921875
0.022558593749999998
0.0217529296875
0.020947265625
0.018530273437499998
1.353515625
2.3138671875
3.0268798828124996
3.0284912109374997
3.029296875
3.0317138671875
3.0244628906249997
3.027685546875
3.0252685546875
3.0309082031249996
3.0252685546875
3.0309082031249996
3.0301025390625
3.0268798828124996
3.0268798828124996
3.029296875
3.02607421875
3.027685546875
3.0317138671875
3.0284912109374997
2.6594970703125
1.6161621093749998
0.0201416015625
0.018530273437499998
0.0249755859375
0.0217529296875
0.0201416015625
0.017724609375
0.0201416015625
0.020947265625
0.022558593749999998
0.023364257812499997
0.0281982421875
0.0797607421875
0.1264892578125
0.022558593749999998
0.0201416015625
0.0217529296875
0.022558593749999998
0.0217529296875
0.019335937499999997
0.02578125
0.0217529296875
2.102783203125
2.8874999999999997
3.0317138671875
3.0228515624999996
3.029296875
3.0284912109374997
3.029296875
3.029296875
3.029296875
3.0284912109374997
3.027685546875
3.0301025390625
3.0325195312499997
3.0252685546875
3.02607421875
3.02607421875
3.0268798828124996
3.0268798828124996
3.0268798828124996
3.0284912109374997
1.7442626953125
0.42136230468749997
0.022558593749999998
0.020947265625
0.02578125
0.020947265625
0.019335937499999997
0.019335937499999997
0.0249755859375
0.0217529296875
0.0362548828125
0.07009277343749999
0.1426025390625
0.1861083984375
0.0201416015625
0.024169921875
0.0217529296875
0.022558593749999998
0.020947265625
0.0201416015625
0.018530273437499998
0.023364257812499997
1.9440673828125
2.7948486328124997
3.0317138671875
3.027685546875
3.0317138671875
3.0309082031249996
3.02607421875
3.029296875
3.0317138671875
3.029296875
3.0252685546875
3.027685546875
3.0284912109374997
3.0252685546875
3.02607421875
3.029296875
3.0284912109374997
3.02607421875
3.0309082031249996
3.0268798828124996
2.0052978515624997
1.0465576171875
0.022558593749999998
0.020947265625
0.020947265625
0.017724609375
0.0217529296875
0.022558593749999998
0.020947265625
0.02578125
0.024169921875
0.024169921875
0.0717041015625
0.1264892578125
0.15468749999999998
0.02578125
0.018530273437499998
0.022558593749999998
0.024169921875
0.023364257812499997
0.022558593749999998
0.0217529296875
1.4622802734375
2.5636230468749996
3.0284912109374997
3.0284912109374997
3.029296875
3.027685546875
3.0357421875
3.0284912109374997
3.029296875
3.0268798828124996
3.0284912109374997
3.0268798828124996
3.0284912109374997
3.0236572265625
3.0244628906249997
3.0284912109374997
3.027685546875
3.0301025390625
3.0309082031249996
3.0309082031249996
3.01318359375
1.82724609375
0.08540039062499999
0.017724609375
0.02578125
0.0217529296875
0.022558593749999998
0.0217529296875
0.020947265625
0.017724609375
0.0217529296875
0.0217529296875
0.023364257812499997
0.030615234374999998
0.116015625
0.0249755859375
0.024169921875
0.020947265625
0.022558593749999998
0.019335937499999997
0.019335937499999997
0.023364257812499997
0.0797607421875
2.1277587890625
2.8883056640625
3.027685546875
3.0244628906249997
3.0284912109374997
3.0301025390625
3.0284912109374997
3.029296875
3.0317138671875
3.0252685546875
3.027685546875
3.0268798828124996
3.0268798828124996
3.0268798828124996
3.029296875
3.02607421875
3.029296875
3.0284912109374997
3.0317138671875
3.0333251953125
1.7764892578125
0.5003173828124999
0.0169189453125
0.020947265625
0.0217529296875
0.023364257812499997
0.022558593749999998
0.018530273437499998
0.022558593749999998
0.0217529296875
0.0314208984375
0.041088867187499996
0.0749267578125
0.1039306640625
0.09829101562499999
0.0249755859375
0.0217529296875
0.0201416015625
0.0217529296875
0.023364257812499997
0.02578125
0.022558593749999998
1.77568359375
2.6788330078125
3.0309082031249996
3.027685546875
3.029296875
3.0301025390625
3.0284912109374997
3.029296875
3.029296875
3.027685546875
3.0252685546875
3.0301025390625
3.0252685546875
3.0244628906249997
3.027685546875
3.02607421875
3.029296875
3.0333251953125
3.0301025390625
3.0268798828124996
2.1164794921875
1.18916015625
0.02578125
0.0217529296875
0.020947265625
0.0217529296875
0.022558593749999998
0.0217529296875
0.022558593749999998
0.02578125
0.018530273437499998
0.018530273437499998
0.02578125
0.0910400390625
0.1474365234375
0.0217529296875
0.022558593749999998
0.02578125
0.022558593749999998
0.022558593749999998
0.0217529296875
0.023364257812499997
1.0401123046875
2.5201171875
3.027685546875
3.0309082031249996
3.0244628906249997
3.027685546875
3.0268798828124996
3.027685546875
3.0268798828124996
3.0309082031249996
3.02607421875
3.0301025390625
3.0268798828124996
3.0309082031249996
3.0301025390625
3.027685546875
3.027685546875
3.029296875
3.0252685546875
3.0244628906249997
3.0284912109374997
1.2745605468749999
0.09426269531249999
0.0217529296875
0.020947265625
0.018530273437499998
0.018530273437499998
0.018530273437499998
0.0217529296875
0.022558593749999998
0.022558593749999998
0.024169921875
0.0668701171875
0.08540039062499999
0.11762695312499999
0.0217529296875
0.020947265625
0.0249755859375
0.023364257812499997
0.0217529296875
0.02578125
0.020947265625
0.9313476562499999
2.2453857421875
3.0067382812499996
3.0309082031249996
3.027685546875
3.0284912109374997
3.02607421875
3.0268798828124996
3.0301025390625
3.027685546875
3.02607421875
3.02607421875
3.0284912109374997
3.0236572265625
3.0252685546875
3.027685546875
3.027685546875
3.0268798828124996
3.0244628906249997
3.027685546875
3.0301025390625
1.7716552734375
0.575244140625
0.022558593749999998
0.024169921875
0.020947265625
0.022558593749999998
0.02578125
0.0217529296875
0.0217529296875
0.0217529296875
0.018530273437499998
0.022558593749999998
0.040283203125
0.13615722656249998
0.11923828125
0.024169921875
0.0249755859375
0.024169921875
0.0201416015625
0.024169921875
0.022558593749999998
0.026586914062499998
1.5517089843749998
2.5128662109374997
3.02607421875
3.0284912109374997
3.027685546875
3.027685546875
3.0268798828124996
3.027685546875
3.027685546875
3.029296875
3.029296875
3.0228515624999996
3.029296875
3.02607421875
3.0268798828124996
3.02607421875
3.027685546875
3.0301025390625
3.0284912109374997
3.0284912109374997
2.165625
1.1698242187499999
0.020947265625
0.019335937499999997
0.0217529296875
0.02578125
0.0201416015625
0.0201416015625
0.0217529296875
0.018530273437499998
0.020947265625
0.01611328125
0.057202148437499996
0.1377685546875
0.19497070312499998
0.02578125
0.022558593749999998
0.022558593749999998
0.020947265625
0.023364257812499997
0.024169921875
0.0217529296875
0.5325439453124999
2.415380859375
3.0268798828124996
3.0268798828124996
3.02607421875
3.0301025390625
3.027685546875
3.027685546875
3.0284912109374997
3.029296875
3.029296875
3.0268798828124996
3.029296875
3.0284912109374997
3.027685546875
3.027685546875
3.027685546875
3.02607421875
3.0309082031249996
3.0244628906249997
3.0284912109374997
1.426025390625
0.17080078124999998
0.0201416015625
0.0217529296875
0.0217529296875
0.022558593749999998
0.019335937499999997
0.022558593749999998
0.020947265625
0.0217529296875
0.0217529296875
0.0668701171875
0.2118896484375
0.24895019531249998
0.0217529296875
0.008056640625
0.0217529296875
0.0201416015625
0.0217529296875
0.022558593749999998
0.022558593749999998
1.351904296875
2.2437744140625
3.0059326171875
3.0268798828124996
3.029296875
3.027685546875
3.0268798828124996
3.0284912109374997
3.0301025390625
3.029296875
3.0268798828124996
3.0284912109374997
3.0301025390625
3.0325195312499997
3.0220458984375
3.0236572265625
3.029296875
3.0268798828124996
3.027685546875
3.0284912109374997
3.0268798828124996
1.89169921875
0.58974609375
0.0217529296875
0.0201416015625
0.0217529296875
0.024169921875
0.0217529296875
0.020947265625
0.0217529296875
0.020947265625
0.019335937499999997
0.02900390625
0.1071533203125
0.20947265625
0.2513671875
0.0217529296875
0.022558593749999998
0.0217529296875
0.0217529296875
0.0217529296875
0.02578125
0.020947265625
1.6765869140624998
2.8496337890624996
3.0317138671875
3.0284912109374997
3.0284912109374997
3.027685546875
3.027685546875
3.0284912109374997
3.0252685546875
3.0301025390625
3.027685546875
3.027685546875
3.029296875
3.027685546875
3.027685546875
3.027685546875
3.0309082031249996
3.0309082031249996
3.027685546875
3.0244628906249997
2.2832519531249997
1.2455566406249998
0.022558593749999998
0.0217529296875
0.0217529296875
0.018530273437499998
0.020947265625
0.024169921875
0.022558593749999998
0.0217529296875
0.020947265625
0.022558593749999998
0.0708984375
0.08137207031249999
0.1313232421875
0.024169921875
0.0217529296875
0.022558593749999998
0.020947265625
0.0249755859375
0.024169921875
0.0217529296875
1.2157470703125
2.5789306640625
3.0284912109374997
3.0244628906249997
3.0284912109374997
3.02607421875
3.0284912109374997
3.0301025390625
3.0268798828124996
3.0301025390625
3.0268798828124996
3.027685546875
3.0301025390625
3.02607421875
3.02607421875
3.027685546875
3.029296875
3.0244628906249997
3.0317138671875
3.029296875
3.0309082031249996
1.4896728515625
0.20866699218749998
0.020947265625
0.0217529296875
0.0217529296875
0.022558593749999998
0.022558593749999998
0.01611328125
0.020947265625
0.0217529296875
0.022558593749999998
0.042700195312499994
0.09426269531249999
0.159521484375
0.0249755859375
0.018530273437499998
0.0249755859375
0.022558593749999998
0.0217529296875
0.018530273437499998
0.023364257812499997
1.3414306640625
2.2550537109374997
2.9930419921875
3.0309082031249996
3.0309082031249996
3.027685546875
3.0309082031249996
3.0284912109374997
3.0325195312499997
3.027685546875
3.029296875
3.0268798828124996
3.027685546875
3.02607421875
3.027685546875
3.0268798828124996
3.0268798828124996
3.02607421875
3.027685546875
3.027685546875
3.027685546875
1.9489013671875
0.704150390625
0.022558593749999998
0.0217529296875
0.020947265625
0.0201416015625
0.018530273437499998
0.019335937499999997
0.022558593749999998
0.019335937499999997
0.022558593749999998
0.09990234375
0.143408203125
0.1812744140625
0.2384765625
0.0217529296875
0.0217529296875
0.0217529296875
0.0217529296875
0.024169921875
0.023364257812499997
0.022558593749999998
1.8868652343749999
2.9640380859374997
3.0268798828124996
3.02607421875
3.027685546875
3.027685546875
3.0268798828124996
3.02607421875
3.027685546875
3.0244628906249997
3.0284912109374997
3.029296875
3.0252685546875
3.02607421875
3.0220458984375
3.0309082031249996
3.0252685546875
3.029296875
3.027685546875
3.027685546875
2.2671386718749997
0.74443359375
0.020947265625
0.0249755859375
0.024169921875
0.022558593749999998
0.024169921875
0.022558593749999998
0.022558593749999998
0.024169921875
0.024169921875
0.0217529296875
0.069287109375
0.10231933593749999
0.127294921875
0.022558593749999998
0.020947265625
0.0217529296875
0.023364257812499997
0.0217529296875
0.023364257812499997
0.0249755859375
1.340625
2.4435791015625
3.0301025390625
3.029296875
3.02607421875
3.0301025390625
3.027685546875
3.0284912109374997
3.02607421875
3.0268798828124996
3.02607421875
3.027685546875
3.0284912109374997
3.0244628906249997
3.027685546875
3.0284912109374997
3.0244628906249997
3.02607421875
3.029296875
3.027685546875
2.640966796875
1.49853515625
0.22880859374999998
0.0217529296875
0.022558593749999998
0.023364257812499997
0.019335937499999997
0.020947265625
0.0249755859375
0.022558593749999998
0.020947265625
0.023364257812499997
0.0845947265625
0.107958984375
0.10957031249999999
0.0217529296875
0.0169189453125
0.0249755859375
0.018530273437499998
0.02578125
0.023364257812499997
0.0249755859375
0.8403076171874999
2.1922119140625
3.0317138671875
3.0284912109374997
3.027685546875
3.029296875
3.0301025390625
3.029296875
3.0252685546875
3.029296875
3.0284912109374997
3.027685546875
3.0252685546875
3.02607421875
3.027685546875
3.0268798828124996
3.0301025390625
3.027685546875
3.027685546875
3.0301025390625
3.0268798828124996
2.0294677734374997
0.6920654296875
0.0217529296875
0.0217529296875
0.019335937499999997
0.022558593749999998
0.020947265625
0.0217529296875
0.0217529296875
0.017724609375
0.024169921875
0.019335937499999997
0.037060546874999996
0.0684814453125
0.0878173828125
0.0217529296875
0.026586914062499998
0.0217529296875
0.018530273437499998
0.022558593749999998
0.022558593749999998
0.018530273437499998
1.3849365234375
2.7481201171875
3.0284912109374997
3.0301025390625
3.0244628906249997
3.027685546875
3.0309082031249996
3.02607421875
3.029296875
3.0252685546875
3.0244628906249997
3.0317138671875
3.0301025390625
3.0236572265625
3.0309082031249996
3.0268798828124996
3.029296875
3.0284912109374997
3.027685546875
3.0284912109374997
2.1986572265624997
0.742822265625
0.022558593749999998
0.026586914062499998
0.0217529296875
0.0217529296875
0.022558593749999998
0.0217529296875
0.0217529296875
0.022558593749999998
0.022558593749999998
0.024169921875
0.091845703125
0.12246093749999999
0.18449707031249998
0.019335937499999997
0.020947265625
0.0201416015625
0.023364257812499997
0.0249755859375
0.0249755859375
0.0249755859375
1.284228515625
2.4202148437499997
3.0236572265625
3.029296875
3.02607421875
3.02607421875
3.0244628906249997
3.0309082031249996
3.0309082031249996
3.029296875
3.0252685546875
3.0284912109374997
3.0284912109374997
3.0268798828124996
3.027685546875
3.0301025390625
3.0268798828124996
3.029296875
3.027685546875
3.0236572265625
2.9261718749999996
1.3833251953124999
0.1893310546875
0.0217529296875
0.022558593749999998
0.018530273437499998
0.023364257812499997
0.02578125
0.02578125
0.0217529296875
0.022558593749999998
0.020947265625
0.040283203125
0.1409912109375
0.21511230468749998
0.020947265625
0.022558593749999998
0.020947265625
0.0217529296875
0.0217529296875
0.0217529296875
0.0201416015625
0.37382812499999996
2.2147705078124997
3.027685546875
3.0244628906249997
3.029296875
3.027685546875
3.0244628906249997
3.0309082031249996
3.0284912109374997
3.029296875
3.0317138671875
3.0309082031249996
3.0236572265625
3.0325195312499997
3.0252685546875
3.0268798828124996
3.0301025390625
3.0244628906249997
3.02607421875
3.0268798828124996
3.027685546875
2.0149658203125
0.30615234375
0.0249755859375
0.0217529296875
0.0201416015625
0.022558593749999998
0.0217529296875
0.024169921875
0.0217529296875
0.0217529296875
0.019335937499999997
0.0217529296875
0.023364257812499997
0.062841796875
0.11279296875
0.0217529296875
0.0217529296875
0.022558593749999998
0.022558593749999998
0.0217529296875
0.022558593749999998
0.019335937499999997
1.297119140625
2.7779296875
3.0268798828124996
3.0268798828124996
3.02607421875
3.0236572265625
3.029296875
3.02607421875
3.0284912109374997
3.0301025390625
3.0301025390625
3.0236572265625
3.02607421875
3.029296875
3.0268798828124996
3.0268798828124996
3.02607421875
3.0301025390625
3.0244628906249997
3.0268798828124996
2.263916015625
0.9063720703125
0.02578125
0.022558593749999998
0.024169921875
0.0217529296875
0.0217529296875
0.020947265625
0.020947265625
0.0249755859375
0.019335937499999997
0.023364257812499997
0.049951171875
0.111181640625
0.104736328125
0.0217529296875
0.01611328125
0.022558593749999998
0.0217529296875
0.0217529296875
0.0249755859375
0.018530273437499998
1.4558349609374999
2.6208251953125
3.0188232421874996
3.0317138671875
3.027685546875
3.027685546875
3.02607421875
3.027685546875
3.0309082031249996
3.0284912109374997
3.029296875
3.0268798828124996
3.029296875
3.027685546875
3.027685546875
3.0244628906249997
3.0284912109374997
3.029296875
3.0268798828124996
3.027685546875
3.0156005859375
1.5267333984375
0.2876220703125
0.023364257812499997
0.0217529296875
0.020947265625
0.023364257812499997
0.0201416015625
0.022558593749999998
0.0249755859375
0.020947265625
0.023364257812499997
0.057202148437499996
0.09345703124999999
0.12246093749999999
0.019335937499999997
0.0201416015625
0.01611328125
0.014501953125
0.020947265625
0.022558593749999998
0.0217529296875
0.023364257812499997
2.077001953125
3.0268798828124996
3.0317138671875
3.027685546875
3.027685546875
3.027685546875
3.029296875
3.029296875
3.02607421875
3.0284912109374997
3.0284912109374997
3.0284912109374997
3.0284912109374997
3.0099609375
3.02607421875
3.0244628906249997
3.0325195312499997
3.0244628906249997
3.0252685546875
3.02607421875
2.0197998046875
0.7412109375
0.024169921875
0.0217529296875
0.023364257812499997
0.0217529296875
0.0217529296875
0.0217529296875
0.019335937499999997
0.0217529296875
0.022558593749999998
0.022558593749999998
0.1506591796875
0.18288574218749998
0.14501953125
0.0201416015625
0.02578125
0.022558593749999998
0.022558593749999998
0.018530273437499998
0.02578125
0.022558593749999998
1.4228027343749998
2.8254638671874996
3.02607421875
3.027685546875
3.02607421875
3.027685546875
3.029296875
3.0284912109374997
3.0284912109374997
3.029296875
3.027685546875
3.0284912109374997
3.0284912109374997
3.027685546875
3.0284912109374997
3.02607421875
3.0317138671875
3.0309082031249996
3.0284912109374997
3.0325195312499997
2.38154296875
0.8950927734374999
0.024169921875
0.022558593749999998
0.019335937499999997
0.0217529296875
0.0249755859375
0.020947265625
0.0217529296875
0.022558593749999998
0.020947265625
0.0314208984375
0.0708984375
0.1248779296875
0.1812744140625
0.0217529296875
0.022558593749999998
0.0217529296875
0.022558593749999998
0.0249755859375
0.022558593749999998
0.020947265625
1.611328125
2.8045166015625
3.0301025390625
3.0268798828124996
3.0252685546875
3.027685546875
3.029296875
3.029296875
3.0317138671875
3.027685546875
3.029296875
3.029296875
3.027685546875
3.0268798828124996
3.0309082031249996
3.027685546875
3.0284912109374997
3.02607421875
3.0309082031249996
3.0268798828124996
3.02607421875
1.4735595703125
0.20625
0.022558593749999998
0.0217529296875
0.0217529296875
0.0217529296875
0.0217529296875
0.022558593749999998
0.0217529296875
0.0217529296875
0.026586914062499998
0.0346435546875
0.1232666015625
0.18691406249999998
0.0217529296875
0.022558593749999998
0.0249755859375
0.022558593749999998
0.022558593749999998
0.0217529296875
0.022558593749999998
0.02578125
1.91748046875
3.02607421875
3.027685546875
3.0301025390625
3.0244628906249997
3.027685546875
3.027685546875
3.0317138671875
3.027685546875
3.0284912109374997
3.0301025390625
3.0268798828124996
3.0244628906249997
3.0301025390625
3.0252685546875
3.027685546875
3.0301025390625
3.02607421875
3.029296875
3.027685546875
2.1019775390624997
0.24492187499999998
0.0104736328125
0.022558593749999998
0.0217529296875
0.0201416015625
0.022558593749999998
0.022558593749999998
0.0217529296875
0.0217529296875
0.0298095703125
0.020947265625
0.027392578124999997
0.075732421875
0.0636474609375
0.0217529296875
0.022558593749999998
0.0217529296875
0.017724609375
0.019335937499999997
0.0217529296875
0.023364257812499997
1.803076171875
2.744091796875
3.0325195312499997
3.0284912109374997
3.027685546875
3.027685546875
3.0333251953125
3.029296875
3.027685546875
3.0236572265625
3.027685546875
3.029296875
3.0268798828124996
3.0236572265625
3.0244628906249997
3.029296875
3.0244628906249997
3.02607421875
3.029296875
3.02607421875
1.8659179687499998
0.554296875
0.02578125
0.0217529296875
0.020947265625
0.024169921875
0.022558593749999998
0.017724609375
0.018530273437499998
0.023364257812499997
0.062841796875
0.0523681640625
0.1071533203125
0.17241210937499998
0.193359375
0.022558593749999998
0.020947265625
0.022558593749999998
0.01611328125
0.022558593749999998
0.024169921875
0.022558593749999998
1.474365234375
2.6860839843749997
3.029296875
3.02607421875
3.0309082031249996
3.029296875
3.0309082031249996
3.02607421875
3.02607421875
3.029296875
3.0252685546875
3.0252685546875
3.029296875
3.027685546875
3.029296875
3.0284912109374997
3.0301025390625
3.0244628906249997
3.0268798828124996
3.027685546875
2.9382568359374996
0.813720703125
0.022558593749999998
0.022558593749999998
0.022558593749999998
0.0217529296875
0.0217529296875
0.02578125
0.020947265625
0.020947265625
0.0217529296875
0.06767578125
0.08137207031249999
0.159521484375
0.19658203124999998
0.0281982421875
0.01611328125
0.022558593749999998
0.020947265625
0.0201416015625
0.02578125
0.0217529296875
0.022558593749999998
2.3533447265625
3.0268798828124996
3.029296875
3.029296875
3.027685546875
3.0309082031249996
3.029296875
3.029296875
3.0252685546875
3.0268798828124996
3.02607421875
3.027685546875
3.0284912109374997
3.027685546875
3.0309082031249996
3.02607421875
3.0284912109374997
3.0268798828124996
3.02607421875
3.027685546875
1.590380859375
0.022558593749999998
0.0217529296875
0.0217529296875
0.0249755859375
0.0249755859375
0.019335937499999997
0.022558593749999998
0.0217529296875
0.0217529296875
0.0249755859375
0.022558593749999998
0.0281982421875
0.14501953125
0.17885742187499998
0.0201416015625
0.018530273437499998
0.0201416015625
0.022558593749999998
0.0217529296875
0.020947265625
0.023364257812499997
1.4501953125
2.666748046875
3.0268798828124996
3.0284912109374997
3.0268798828124996
3.02607421875
3.02607421875
3.029296875
3.0268798828124996
3.027685546875
3.029296875
3.02607421875
3.027685546875
3.029296875
3.029296875
3.0333251953125
3.02607421875
3.02607421875
3.029296875
3.0268798828124996
1.1158447265625
0.0249755859375
0.0217529296875
0.01611328125
0.0217529296875
0.020947265625
0.020947265625
0.0217529296875
0.0217529296875
0.0217529296875
0.14824218749999998
0.18369140625
0.31904296875
0.44956054687499997
0.5035400390625
0.0217529296875
0.022558593749999998
0.0217529296875
0.0249755859375
0.0201416015625
0.020947265625
0.020947265625
1.7732666015624998
3.027685546875
3.02607421875
3.0244628906249997
3.0252685546875
3.029296875
3.0309082031249996
3.0244628906249997
3.0309082031249996
3.029296875
3.029296875
3.0236572265625
3.029296875
3.027685546875
3.027685546875
3.0268798828124996
3.029296875
3.0284912109374997
3.027685546875
3.0349365234374996
2.76826171875
0.8145263671874999
0.020947265625
0.0217529296875
0.022558593749999998
0.023364257812499997
0.023364257812499997
0.0217529296875
0.020947265625
0.023364257812499997
0.027392578124999997
0.050756835937499994
0.023364257812499997
0.0765380859375
0.169189453125
0.018530273437499998
0.0217529296875
0.0217529296875
0.024169921875
0.018530273437499998
0.019335937499999997
0.0217529296875
0.019335937499999997
2.9946533203124996
3.027685546875
3.027685546875
3.0268798828124996
3.02607421875
3.02607421875
3.0301025390625
3.0252685546875
3.0309082031249996
3.0317138671875
3.0284912109374997
3.0284912109374997
3.029296875
3.0301025390625
3.027685546875
3.0284912109374997
3.029296875
3.027685546875
3.0333251953125
3.02607421875
1.5492919921875
0.018530273437499998
0.0217529296875
0.023364257812499997
0.0217529296875
0.019335937499999997
0.024169921875
0.0217529296875
0.026586914062499998
0.020947265625
0.037060546874999996
0.07412109374999999
0.175634765625
0.32871093749999997
0.33837890625
0.022558593749999998
0.0201416015625
0.02578125
0.022558593749999998
0.024169921875
0.020947265625
0.024169921875
2.9020019531249996
3.027685546875
3.029296875
3.0333251953125
3.0284912109374997
3.0309082031249996
3.0309082031249996
3.027685546875
3.027685546875
3.02607421875
3.0268798828124996
3.0284912109374997
3.0284912109374997
3.0268798828124996
3.0309082031249996
3.029296875
3.02607421875
3.029296875
3.0284912109374997
3.0236572265625
1.2769775390625
0.0580078125
0.019335937499999997
0.02578125
0.022558593749999998
0.5341552734375
0.5180419921875
0.7968017578125
0.5067626953125
0.9772705078124999
1.3599609375
1.5218994140625
1.670947265625
1.8659179687499998
1.9295654296875
0.022558593749999998
0.018530273437499998
0.0281982421875
0.0281982421875
0.0249755859375
0.020947265625
3.0268798828124996
3.029296875
3.0268798828124996
3.027685546875
3.0301025390625
3.02607421875
3.0284912109374997
3.0228515624999996
3.0284912109374997
3.0252685546875
3.0284912109374997
3.0301025390625
3.0268798828124996
3.0252685546875
3.0309082031249996
3.0268798828124996
3.0284912109374997
3.0309082031249996
3.029296875
3.029296875
2.81982421875
2.1857666015625
0.31743164062499996
0.023364257812499997
0.022558593749999998
0.0201416015625
0.023364257812499997
0.017724609375
0.1200439453125
0.0217529296875
0.40605468749999996
0.84111328125
1.2777832031249998
1.67900390625
2.0415527343749997
2.15595703125
0.646142578125
0.0217529296875
0.0765380859375
0.2553955078125
0.43505859375
1.1222900390625
2.0302734375
3.0252685546875
3.027685546875
3.027685546875
3.0301025390625
3.0268798828124996
3.02607421875
3.0325195312499997
2.7851806640624996
2.9116699218749997
2.6683593749999996
2.3485107421875
2.0818359374999997
1.9666259765624998
1.7668212890625
2.0987548828125
3.027685546875
3.027685546875
2.8858886718749996
2.69736328125
2.2365234375
1.24716796875
0.0281982421875
0.023364257812499997
0.022558593749999998
0.0217529296875
0.024169921875
0.0201416015625
0.022558593749999998
0.0201416015625
0.40605468749999996
0.42619628906249996
0.6630615234374999
0.865283203125
0.9676025390624999
1.058642578125
1.010302734375
0.018530273437499998
0.0217529296875
0.44230957031249996
0.5768554687499999
0.887841796875
1.5428466796875
3.0228515624999996
3.02607421875
3.0252685546875
3.01962890625
2.8496337890624996
2.657080078125
2.6296874999999997
2.30419921875
2.4919189453125
1.98193359375
1.7370117187499998
1.6371093749999999
1.5218994140625
1.3591552734374999
1.219775390625
3.0301025390625
3.029296875
2.8069335937499997
2.5740966796875
2.238134765625
1.3551269531249999
0.0217529296875
0.0201416015625
0.018530273437499998
0.0217529296875
0.02900390625
0.02578125
0.026586914062499998
0.2457275390625
0.15468749999999998
0.4970947265625
0.8846191406249999
1.0207763671874999
1.1690185546875
1.3317626953125
1.3792968749999999
0.022558593749999998
0.017724609375
0.5969970703124999
0.5083740234374999
0.8483642578124999
1.55009765625
3.029296875
3.0284912109374997
3.0244628906249997
3.0357421875
2.91650390625
2.7626220703124997
2.69736328125
2.408935546875
2.064111328125
2.2623046875
1.9666259765624998
1.8417480468749998
1.6725585937499998
1.5251220703125
1.4284423828125
3.027685546875
3.0309082031249996
2.7884033203125
2.7972656249999996
2.4016845703125
1.6991455078125
0.781494140625
0.024169921875
0.022558593749999998
0.022558593749999998
0.0249755859375
0.019335937499999997
0.018530273437499998
0.1490478515625
0.023364257812499997
0.46245117187499996
0.8064697265624999
1.0159423828125
1.26328125
1.4437499999999999
1.5025634765625
0.53173828125
0.0201416015625
0.4793701171875
0.7275146484374999
1.0078857421875
1.63388671875
2.2792236328124997
3.0252685546875
3.0284912109374997
3.0252685546875
3.0268798828124996
2.8689697265625
2.8149902343749997
2.753759765625
2.40732421875
2.544287109375
2.241357421875
1.9746826171874998
1.767626953125
1.6443603515624998
1.5380126953125
1.764404296875
3.0268798828124996
2.8834716796874997
2.76826171875
2.5072265624999996
2.075390625
1.2318603515625
0.02578125
0.020947265625
0.0201416015625
0.023364257812499997
0.018530273437499998
0.033837890625
0.049145507812499996
0.0217529296875
0.6082763671875
0.6251953124999999
0.9547119140625
1.1666015625
1.327734375
1.4518066406249999
1.4381103515625
0.0217529296875
0.024169921875
0.5849121093749999
0.9079833984375
1.198828125
1.7176757812499999
3.029296875
3.02607421875
3.029296875
3.02607421875
2.9342285156249996
2.776318359375
2.6997802734375
2.5128662109374997
2.7884033203125
2.1986572265624997
1.9956298828124999
1.9021728515624998
1.7764892578125
1.6177734375
1.5009521484375
3.0301025390625
3.0268798828124996
2.8125732421875
2.6192138671875
2.3211181640625
1.4920898437499999
0.022558593749999998
0.0201416015625
0.022558593749999998
0.0217529296875
0.02578125
0.027392578124999997
0.024169921875
0.2183349609375
0.32065429687499997
0.5889404296874999
0.984521484375
1.1480712890625
1.2947021484374999
1.5315673828124998
1.571044921875
0.020947265625
0.024169921875
0.668701171875
0.5808837890624999
1.00546875
1.6532226562499999
3.02607421875
3.0317138671875
3.029296875
3.0284912109374997
2.9769287109375
2.898779296875
2.7650390624999996
2.4766113281249997
2.260693359375
2.3396484374999997
2.09150390625
1.9271484374999999
1.7934082031249998
1.6153564453125
1.4767822265625
2.6594970703125
3.029296875
2.7320068359375
2.69736328125
2.37509765625
1.8103271484374999
0.9418212890625
0.022558593749999998
0.0217529296875
0.023364257812499997
0.0249755859375
0.022558593749999998
0.022558593749999998
0.21269531249999998
0.0169189453125
0.5768554687499999
0.9192626953124999
1.0513916015625
1.2439453125
1.3502929687499998
1.4187744140624998
0.0217529296875
0.0201416015625
0.491455078125
0.6807861328125
0.9305419921875
1.4493896484375
2.10439453125
3.0268798828124996
3.0309082031249996
3.0244628906249997
2.9970703125
2.8472167968749997
2.7336181640625
2.70703125
2.70380859375
2.4758056640625
2.30419921875
2.012548828125
1.8796142578125
1.7635986328125
1.6532226562499999
1.6048828124999999
3.0309082031249996
2.9044189453125
2.56845703125
2.5168945312499997
2.11728515625
1.0385009765625
0.022558593749999998
0.0217529296875
0.023364257812499997
0.023364257812499997
0.023364257812499997
0.030615234374999998
0.024169921875
0.20302734374999998
0.59619140625
0.605859375
1.0497802734375
1.2318603515625
1.4034667968749999
1.5364013671874999
1.5412353515625
0.020947265625
0.17482910156249998
0.6574218749999999
0.8668945312499999
1.142431640625
2.0778076171874997
3.02607421875
3.0301025390625
3.027685546875
3.0043212890624997
2.8544677734375
2.6901123046874997
2.618408203125
2.5201171875
2.7996826171875
2.1954345703125
1.9593749999999999
1.869140625
1.764404296875
1.5887695312499999
1.5267333984375
3.027685546875
2.995458984375
2.784375
2.6304931640625
2.1946289062499997
1.5799072265624998
0.022558593749999998
0.023364257812499997
0.019335937499999997
0.023364257812499997
0.0201416015625
0.026586914062499998
0.023364257812499997
0.3311279296875
0.36979980468749996
0.662255859375
0.9466552734375
1.1214843749999999
1.31162109375
1.5460693359375
1.6201904296874998
0.022558593749999998
0.0668701171875
0.704150390625
0.678369140625
1.036083984375
1.638720703125
3.027685546875
3.0268798828124996
3.027685546875
3.027685546875
3.0027099609374996
2.7988769531249997
2.76826171875
2.487890625
2.872998046875
2.354150390625
2.1052001953125
1.9271484374999999
1.7394287109375
1.6081054687499998
1.5162597656249999
3.029296875
3.029296875
2.7134765625
2.7078369140625
2.2985595703125
1.7700439453124999
0.9627685546875
0.023364257812499997
0.019335937499999997
0.018530273437499998
0.020947265625
0.0249755859375
0.023364257812499997
0.19255371093749998
0.610693359375
0.5365722656249999
0.85400390625
1.05380859375
1.22783203125
1.368017578125
1.4928955078125
0.023364257812499997
0.023364257812499997
0.491455078125
0.655810546875
0.945849609375
1.5025634765625
2.2751953124999997
3.02607421875
3.029296875
3.0268798828124996
2.985791015625
2.8641357421875
2.7166992187499996
2.5805419921875
2.785986328125
2.410546875
2.2824462890625
1.9537353515625
1.8199951171875
1.706396484375
1.5476806640624998
1.456640625
3.0284912109374997
2.8681640625
2.5096435546875
2.4749999999999996
2.0576660156249997
1.013525390625
0.02578125
0.023364257812499997
0.023364257812499997
0.0201416015625
0.026586914062499998
0.049951171875
0.0910400390625
0.38510742187499997
0.6670898437499999
0.6751464843749999
1.0787841796875
1.2302490234374999
1.3752685546874999
1.5025634765625
1.5605712890624999
0.019335937499999997
0.4310302734375
0.6010253906249999
0.8854248046875
1.1279296875
2.0689453125
3.029296875
3.0301025390625
3.029296875
3.0268798828124996
2.8609130859375
2.6683593749999996
2.5708740234375
2.4951416015624996
2.8399658203125
2.1744873046874997
1.9867675781249998
1.8908935546874999
1.72412109375
1.6024658203125
1.5299560546875
3.0268798828124996
2.9841796874999997
2.7666503906249997
2.7263671874999997
2.2131591796875
1.619384765625
0.020947265625
0.020947265625
0.020947265625
0.0201416015625
0.022558593749999998
0.0362548828125
0.0475341796875
0.38510742187499997
0.4833984375
0.7307373046875
1.0006347656249999
1.1561279296875
1.3768798828125
1.477587890625
1.513037109375
0.0201416015625
0.022558593749999998
0.639697265625
0.6421142578125
1.0642822265625
1.6894775390624999
2.6441894531249996
3.029296875
3.029296875
3.034130859375
2.995458984375
2.81982421875
2.8206298828125
2.5499267578125
2.8456054687499996
2.39443359375
2.03671875
1.8788085937499999
1.7692382812499998
1.574267578125
1.4791992187499998
3.029296875
3.027685546875
2.6844726562499996
2.624853515625
2.231689453125
1.714453125
0.9224853515625
0.026586914062499998
0.023364257812499997
0.020947265625
0.0249755859375
0.026586914062499998
0.0459228515625
0.22316894531249998
0.7234863281249999
0.5365722656249999
0.9821044921875
1.1512939453125
1.2914794921875
1.3986328124999998
1.5605712890624999
0.022558593749999998
0.019335937499999997
0.46567382812499997
0.7339599609374999
1.0465576171875
1.50498046875
2.43310546875
3.029296875
3.0301025390625
3.0301025390625
3.0067382812499996
2.7980712890625
2.6820556640624997
2.5128662109374997
2.8560791015625
2.28486328125
1.9843505859375
1.9215087890625
1.8224121093749999
1.6773925781249999
1.533984375
1.4630859374999998
3.029296875
2.7739013671875
2.5491210937499997
2.5209228515624997
1.8014648437499998
1.0433349609375
0.02578125
0.022558593749999998
0.0169189453125
0.0249755859375
0.020947265625
0.053173828124999996
0.15629882812499998
0.5615478515625
0.6662841796875
0.8209716796875
1.1786865234375
1.3333740234375
1.5041748046874999
1.6218017578125
1.6725585937499998
0.023364257812499997
0.46647949218749996
0.6775634765624999
0.958740234375
1.445361328125
2.10439453125
3.027685546875
3.0309082031249996
3.0284912109374997
3.0236572265625
2.8625244140625
2.6127685546875
2.4991699218749996
2.40732421875
2.0536376953124997
1.964208984375
1.7764892578125
1.6588623046875
1.5057861328125
1.40185546875
1.3188720703124999
3.029296875
2.7223388671874997
2.47822265625
2.1358154296875
1.82080078125
1.2262207031249999
0.023364257812499997
0.022558593749999998
0.022558593749999998
0.024169921875
0.193359375
0.330322265625
0.37302246093749997
0.752490234375
0.7081787109375
1.2093017578125
1.3897705078125
1.5895751953125
1.658056640625
1.7450683593749998
1.7668212890625
0.022558593749999998
0.262646484375
0.839501953125
1.095703125
1.4719482421874999
2.0359130859375
3.0244628906249997
3.0301025390625
3.02607421875
2.9624267578124996
2.69736328125
2.49755859375
2.360595703125
2.27197265625
2.205908203125
2.012548828125
1.6129394531249999
1.542041015625
1.442138671875
1.3551269531249999
1.297119140625
3.0268798828124996
3.0309082031249996
2.4226318359375
2.383154296875
1.9223144531249998
1.3059814453124998
0.020947265625
0.020947265625
0.020947265625
0.022558593749999998
0.149853515625
0.2771484375
0.33193359375
0.6735351562499999
1.0650878906249999
0.926513671875
1.4074951171874999
1.5186767578125
1.6346923828125
1.7184814453125
1.7668212890625
0.022558593749999998
0.022558593749999998
0.6904541015625
0.94423828125
1.3108154296874999
2.0197998046875
2.7626220703124997
3.0268798828124996
3.0309082031249996
2.9334228515625
2.7303955078124997
2.45888671875
2.2840576171875
2.1704589843749997
2.5885986328125
1.996435546875
1.6669189453125
1.59521484375
1.5323730468749999
1.4461669921875
1.3849365234375
1.3398193359375
3.02607421875
2.647412109375
2.2840576171875
2.0439697265625
1.538818359375
0.7291259765625
0.023364257812499997
0.019335937499999997
0.0201416015625
0.1248779296875
0.249755859375
0.42539062499999997
0.6114990234375
1.00546875
0.9837158203124999
1.2125244140625
1.5186767578125
1.6322753906249998
1.7942138671874999
1.844970703125
1.8175781249999998
0.0217529296875
0.5615478515625
0.8121093749999999
1.2721435546875
1.7088134765624998
2.43310546875
3.029296875
3.0268798828124996
3.0268798828124996
2.802099609375
2.5305908203125
2.3372314453125
2.2107421874999997
2.2679443359375
1.8240234375
1.8336914062499998
1.5484863281249999
1.5202880859374999
1.43408203125
1.3599609375
1.2616699218749998
3.029296875
2.673193359375
2.3074218749999997
2.1785156249999997
1.8280517578125
1.2383056640624999
0.022558593749999998
0.024169921875
0.027392578124999997
0.1007080078125
0.21672363281249998
0.39638671875
0.4245849609375
0.8064697265624999
0.7782714843749999
1.3067871093749999
1.5170654296875
1.6234130859375
1.6765869140624998
1.8361083984375
1.783740234375
0.0201416015625
0.259423828125
0.91201171875
1.148876953125
1.480810546875
2.2051025390625
3.0244628906249997
3.0252685546875
3.027685546875
2.8335205078124996
2.6756103515625
2.4081298828124997
2.254248046875
2.1664306640624997
2.031884765625
1.80791015625
1.59521484375
1.5082031249999999
1.4356933593749999
1.35673828125
1.30517578125
3.027685546875
2.882666015625
2.3477050781249997
2.3549560546875
1.8981445312499998
1.313232421875
0.043505859375
0.018530273437499998
0.022558593749999998
0.022558593749999998
0.22719726562499998
0.40927734374999997
0.4197509765625
0.7194580078124999
1.123095703125
1.1786865234375
1.4276367187499999
1.5984375
1.7337890624999999
1.77890625
1.78857421875
0.0298095703125
0.033032226562499996
0.7806884765625
1.0513916015625
1.4429443359374998
1.9907958984374998
2.705419921875
3.0301025390625
3.0284912109374997
2.8697753906249996
2.6844726562499996
2.3597900390624997
2.212353515625
2.1213134765625
1.7088134765624998
1.8892822265625
1.6290527343749999
1.5573486328125
1.4437499999999999
1.4010498046875
1.3502929687499998
3.027685546875
3.0268798828124996
2.60068359375
2.3009765625
1.9529296875
1.4606689453125
0.7863281249999999
0.022558593749999998
0.017724609375
0.0249755859375
0.2296142578125
0.36577148437499996
0.45439453124999996
0.6171386718749999
0.8096923828125
1.1077880859375
1.2906738281249999
1.6185791015625
1.7450683593749998
1.8489990234375
1.8151611328125
0.2344482421875
0.020947265625
0.5953857421875
1.0610595703124999
1.3470703124999999
1.67578125
2.737646484375
3.0268798828124996
3.0284912109374997
3.0252685546875
2.682861328125
2.43955078125
2.2212158203125
2.1180908203124997
1.9513183593749999
1.8409423828125
1.6935058593749999
1.5686279296874999
1.4800048828124999
1.4268310546874998
1.3301513671874998
1.3317626953125
3.0325195312499997
2.624853515625
2.2921142578125
2.080224609375
1.522705078125
0.8934814453125
0.022558593749999998
0.022558593749999998
0.023364257812499997
0.11762695312499999
0.2666748046875
0.52529296875
0.6276123046875
0.8306396484374999
0.7420166015624999
1.3269287109374999
1.4767822265625
1.6451660156249999
1.7531249999999998
1.8062988281249999
1.8465820312499999
0.0201416015625
0.6509765624999999
1.0433349609375
1.13115234375
1.6830322265625
2.1938232421875
3.027685546875
3.0268798828124996
3.029296875
2.779541015625
2.5797363281249996
2.196240234375
2.1140624999999997
2.0471923828125
2.0826416015625
1.7700439453124999
1.5565429687499999
1.4429443359374998
1.3607666015625
1.313232421875
1.2826171874999999
3.0268798828124996
2.9020019531249996
2.2880859375
2.0552490234375
1.719287109375
1.1770751953125
0.02578125
0.024169921875
0.022558593749999998
0.022558593749999998
0.322265625
0.5438232421875
0.57041015625
0.8789794921874999
0.9796874999999999
1.3261230468749998
1.6000488281249998
1.73056640625
1.8796142578125
1.877197265625
1.8312744140625
0.022558593749999998
0.1119873046875
0.7855224609375
1.139208984375
1.542041015625
2.0625
3.029296875
3.027685546875
3.02607421875
2.8834716796874997
2.55234375
2.2727783203125
2.1052001953125
1.8361083984375
1.5766845703124999
1.8344970703124999
1.5791015625
1.4413330078125
1.380908203125
1.3599609375
1.2616699218749998
2.721533203125
3.0301025390625
2.338037109375
2.1849609375
1.8465820312499999
1.4074951171874999
0.5035400390625
0.0217529296875
0.01611328125
0.0217529296875
0.25217285156249997
0.4125
0.5808837890624999
0.8991210937499999
0.75087890625
1.2673095703125
1.52109375
1.6371093749999999
1.7362060546875
1.799853515625
1.8820312499999998
0.87333984375
0.023364257812499997
0.8596435546875
1.1609619140625
1.3631835937499999
2.0568603515625
2.650634765625
3.0252685546875
3.0268798828124996
2.9108642578125
2.650634765625
2.3912109375
2.165625
2.08828125
1.8183837890624999
1.8876708984375
1.7378173828124999
1.482421875
1.4276367187499999
1.3551269531249999
1.27939453125
1.21494140625
3.0252685546875
2.553955078125
2.2365234375
1.9706542968749998
1.461474609375
0.8572265625
0.02578125
0.022558593749999998
0.020947265625
0.1538818359375
0.33757324218749996
0.594580078125
0.736376953125
0.8991210937499999
1.33740234375
1.445361328125
1.5847412109374999
1.6951171875
1.7901855468749999
1.85302734375
1.8006591796875
0.0201416015625
0.6388916015624999
0.9676025390624999
1.3905761718749998
1.7007568359374998
2.1865722656249997
3.027685546875
3.0309082031249996
3.0268798828124996
2.76181640625
2.43310546875
2.176904296875
2.075390625
1.95615234375
2.14951171875
1.7015624999999999
1.5323730468749999
1.4542236328125
1.380908203125
1.33740234375
1.2938964843749998
3.0317138671875
2.9116699218749997
2.4242431640624997
2.1084228515625
1.780517578125
1.2270263671875
0.019335937499999997
0.024169921875
0.0217529296875
0.033032226562499996
0.34562988281249996
0.530126953125
0.5615478515625
0.9071777343749999
1.026416015625
1.2447509765625
1.5863525390625
1.7208984374999998
1.8095214843749998
1.9263427734374998
1.791796875
0.0217529296875
0.058813476562499994
1.0626708984375
1.1432373046875
1.52109375
2.173681640625
3.02607421875
3.0268798828124996
3.0301025390625
2.7996826171875
2.5072265624999996
2.215576171875
2.070556640625
1.7877685546875
1.5057861328125
1.8248291015625
1.458251953125
1.4219970703125
1.3728515625
1.3285400390625
1.2858398437499998
2.2405517578125
3.0236572265625
2.386376953125
2.193017578125
1.9231201171874999
1.147265625
0.4761474609375
0.020947265625
0.023364257812499997
0.020947265625
0.28359375
0.4310302734375
0.5808837890624999
0.9531005859374999
0.7065673828125
1.2890625
1.6072998046875
1.7249267578124998
1.843359375
1.8868652343749999
1.8908935546874999
1.2544189453124999
0.022558593749999998
0.87978515625
1.235888671875
1.662890625
2.1406494140625
2.7650390624999996
3.027685546875
3.02607421875
2.8367431640625
2.52978515625
2.173681640625
1.9472900390624999
1.915869140625
1.8989501953124999
1.654833984375
1.5992431640625
1.3825195312499998
1.3092041015625
1.2850341796875
1.22783203125
1.2898681640624998
3.029296875
2.5265625
1.948095703125
1.783740234375
1.3962158203125
0.7951904296875
0.0217529296875
0.022558593749999998
0.022558593749999998
0.3069580078125
0.5285156249999999
0.7315429687499999
0.8161376953124999
1.0868408203125
1.4437499999999999
1.6427490234375
1.8006591796875
1.843359375
1.9134521484375
1.899755859375
1.8385253906249999
0.0217529296875
0.6993164062499999
1.106982421875
1.5162597656249999
1.7829345703125
2.5547607421875
3.0284912109374997
3.0317138671875
2.81982421875
2.5483154296875
2.241357421875
1.9682373046875
1.84013671875
1.77890625
2.0407470703125
1.4767822265625
1.3784912109374998
1.3527099609375
1.3043701171875
1.2705322265624999
1.2640869140625
3.027685546875
2.5128662109374997
2.225244140625
1.9891845703125
1.490478515625
0.9402099609375
0.0217529296875
0.019335937499999997
0.0217529296875
0.23283691406249998
0.5293212890625
0.7742431640624999
