0.008056640625
0.0120849609375
0.011279296874999999
0.008056640625
0.0104736328125
0.009667968749999999
0.009667968749999999
0.0072509765625
0.0104736328125
0.009667968749999999
0.0104736328125
0.009667968749999999
0.009667968749999999
0.009667968749999999
0.0088623046875
0.0088623046875
0.008056640625
0.0104736328125
0.0072509765625
0.0064453125
0.009667968749999999
0.011279296874999999
0.0120849609375
0.008056640625
0.0088623046875
0.011279296874999999
0.0088623046875
0.0088623046875
0.009667968749999999
0.0120849609375
0.009667968749999999
0.0104736328125
0.0088623046875
0.0120849609375
0.0088623046875
0.0104736328125
0.009667968749999999
0.013696289062499999
0.011279296874999999
0.009667968749999999
0.009667968749999999
0.011279296874999999
0.0120849609375
0.009667968749999999
0.0088623046875
0.0088623046875
0.011279296874999999
0.0104736328125
0.0104736328125
0.0088623046875
0.0104736328125
0.0104736328125
0.0104736328125
0.0104736328125
0.011279296874999999
0.0072509765625
0.0072509765625
0.0072509765625
0.0104736328125
0.011279296874999999
0.009667968749999999
0.009667968749999999
0.0088623046875
0.009667968749999999
0.0064453125
0.009667968749999999
0.009667968749999999
0.0088623046875
0.009667968749999999
0.0088623046875
0.0072509765625
0.0072509765625
0.009667968749999999
0.009667968749999999
0.0064453125
0.0104736328125
0.009667968749999999
0.009667968749999999
0.012890625
0.0088623046875
0.009667968749999999
0.0064453125
0.0088623046875
0.008056640625
0.009667968749999999
0.0
0.0104736328125
0.0072509765625
0.0088623046875
0.009667968749999999
0.0088623046875
0.0104736328125
0.009667968749999999
0.011279296874999999
0.0088623046875
0.009667968749999999
0.0072509765625
0.009667968749999999
0.0072509765625
0.008056640625
0.0088623046875
0.0088623046875
0.009667968749999999
0.011279296874999999
0.008056640625
0.0104736328125
0.0088623046875
0.0088623046875
0.009667968749999999
0.0104736328125
0.0088623046875
0.009667968749999999
0.0088623046875
0.0088623046875
0.009667968749999999
0.0088623046875
0.008056640625
0.009667968749999999
0.009667968749999999
0.0088623046875
0.009667968749999999
0.009667968749999999
0.009667968749999999
0.011279296874999999
0.0088623046875
0.0120849609375
0.0056396484374999995
0.0104736328125
0.0072509765625
0.009667968749999999
0.011279296874999999
0.009667968749999999
0.0104736328125
0.0064453125
0.009667968749999999
0.008056640625
0.009667968749999999
0.0104736328125
0.011279296874999999
0.0088623046875
0.0072509765625
0.008056640625
0.009667968749999999
0.009667968749999999
0.008056640625
0.009667968749999999
0.0088623046875
0.009667968749999999
0.008056640625
0.011279296874999999
0.009667968749999999
0.0072509765625
0.0088623046875
0.0072509765625
0.008056640625
0.0120849609375
0.008056640625
0.0088623046875
0.0088623046875
0.011279296874999999
0.008056640625
0.0064453125
0.008056640625
0.0104736328125
0.008056640625
0.008056640625
0.0056396484374999995
0.0088623046875
0.0088623046875
0.009667968749999999
0.0104736328125
0.011279296874999999
0.0088623046875
0.0088623046875
0.0104736328125
0.0104736328125
0.008056640625
0.0104736328125
0.011279296874999999
0.0088623046875
0.0088623046875
0.008056640625
0.009667968749999999
0.009667968749999999
0.0088623046875
0.008056640625
0.0088623046875
0.009667968749999999
0.0040283203125
0.0072509765625
0.008056640625
0.009667968749999999
0.0072509765625
0.0120849609375
0.0064453125
0.008056640625
0.009667968749999999
0.009667968749999999
0.0064453125
0.0104736328125
0.0088623046875
0.008056640625
0.0104736328125
0.008056640625
0.0064453125
0.009667968749999999
0.011279296874999999
0.012890625
0.009667968749999999
0.009667968749999999
0.0120849609375
0.0064453125
0.008056640625
0.0088623046875
0.009667968749999999
0.0064453125
0.0088623046875
0.008056640625
0.0088623046875
0.0088623046875
0.0088623046875
0.0088623046875
0.0088623046875
0.009667968749999999
0.0088623046875
0.0072509765625
0.0104736328125
0.009667968749999999
0.011279296874999999
0.0088623046875
0.009667968749999999
0.0088623046875
0.012890625
0.011279296874999999
0.0088623046875
0.0104736328125
0.009667968749999999
0.0072509765625
0.0088623046875
0.0088623046875
0.0088623046875
0.0072509765625
0.0088623046875
0.0088623046875
0.0104736328125
0.008056640625
0.011279296874999999
0.009667968749999999
0.0088623046875
0.0088623046875
0.0088623046875
0.004833984374999999
0.009667968749999999
0.0064453125
0.0104736328125
0.008056640625
0.0088623046875
0.008056640625
0.011279296874999999
0.011279296874999999
0.011279296874999999
0.008056640625
0.0088623046875
0.0088623046875
0.009667968749999999
0.009667968749999999
0.0064453125
0.0072509765625
0.008056640625
0.0104736328125
0.008056640625
0.008056640625
0.009667968749999999
0.0072509765625
0.0064453125
0.0088623046875
0.008056640625
0.0088623046875
0.008056640625
0.0088623046875
0.0056396484374999995
0.0024169921874999997
0.008056640625
0.0088623046875
0.0104736328125
0.0088623046875
0.0088623046875
0.0088623046875
0.0088623046875
0.0088623046875
0.0104736328125
0.008056640625
0.009667968749999999
0.0088623046875
0.008056640625
0.0088623046875
0.009667968749999999
0.009667968749999999
0.008056640625
0.0088623046875
0.0104736328125
0.0088623046875
0.008056640625
0.0104736328125
0.0088623046875
0.0072509765625
0.008056640625
0.0088623046875
0.008056640625
0.009667968749999999
0.0064453125
0.008056640625
0.008056640625
0.008056640625
0.0088623046875
0.008056640625
0.009667968749999999
0.0088623046875
0.0088623046875
0.008056640625
0.0072509765625
0.014501953125
0.0072509765625
0.011279296874999999
0.0064453125
0.0064453125
0.0088623046875
0.0088623046875
0.009667968749999999
0.0120849609375
0.0088623046875
0.012890625
0.004833984374999999
0.0064453125
0.008056640625
0.008056640625
0.008056640625
0.009667968749999999
0.0088623046875
0.0072509765625
0.0088623046875
0.0088623046875
0.009667968749999999
0.0072509765625
0.0064453125
0.0088623046875
0.0104736328125
0.008056640625
0.011279296874999999
0.008056640625
0.0104736328125
0.0088623046875
0.008056640625
0.0088623046875
0.0072509765625
0.004833984374999999
0.0072509765625
0.0088623046875
0.008056640625
0.008056640625
0.0072509765625
0.0088623046875
0.008056640625
0.009667968749999999
0.008056640625
0.008056640625
0.0072509765625
0.008056640625
0.008056640625
0.0104736328125
0.0088623046875
0.009667968749999999
0.008056640625
0.0088623046875
0.0088623046875
0.008056640625
0.008056640625
0.0088623046875
0.008056640625
0.0072509765625
0.0072509765625
0.008056640625
0.008056640625
0.0088623046875
0.0088623046875
0.0040283203125
0.008056640625
0.0072509765625
0.0072509765625
0.009667968749999999
0.009667968749999999
0.0072509765625
0.008056640625
0.0088623046875
0.008056640625
0.0088623046875
0.011279296874999999
0.0088623046875
0.0104736328125
0.0072509765625
0.0072509765625
0.0072509765625
0.0064453125
0.008056640625
0.0104736328125
0.008056640625
0.0088623046875
0.009667968749999999
0.008056640625
0.008056640625
0.0088623046875
0.004833984374999999
0.004833984374999999
0.008056640625
0.0088623046875
0.0088623046875
0.0064453125
0.008056640625
0.008056640625
0.0072509765625
0.0072509765625
0.009667968749999999
0.008056640625
0.0072509765625
0.0072509765625
0.0088623046875
0.012890625
0.0104736328125
0.0064453125
0.0088623046875
0.008056640625
0.0056396484374999995
0.008056640625
0.0088623046875
0.0064453125
0.0088623046875
0.0088623046875
0.009667968749999999
0.0072509765625
0.008056640625
0.008056640625
0.0072509765625
0.0088623046875
0.0072509765625
0.0088623046875
0.0064453125
0.0064453125
0.0088623046875
0.0088623046875
0.0104736328125
0.009667968749999999
0.0088623046875
0.008056640625
0.004833984374999999
0.009667968749999999
0.0072509765625
0.009667968749999999
0.008056640625
0.009667968749999999
0.0104736328125
0.009667968749999999
0.0120849609375
0.0072509765625
0.0072509765625
0.0064453125
0.0088623046875
0.008056640625
0.008056640625
0.0088623046875
0.0088623046875
0.0072509765625
0.009667968749999999
0.0072509765625
0.009667968749999999
0.0088623046875
0.008056640625
0.011279296874999999
0.008056640625
0.008056640625
0.009667968749999999
0.0072509765625
0.0072509765625
0.008056640625
0.011279296874999999
0.0088623046875
0.0072509765625
0.0104736328125
0.008056640625
0.008056640625
0.0088623046875
0.009667968749999999
0.0088623046875
0.008056640625
0.0072509765625
0.0088623046875
0.0064453125
0.008056640625
0.0104736328125
0.0088623046875
0.0072509765625
0.008056640625
0.0064453125
0.011279296874999999
0.008056640625
0.0072509765625
0.008056640625
0.008056640625
0.0072509765625
0.008056640625
0.0088623046875
0.0072509765625
0.0072509765625
0.008056640625
0.0056396484374999995
0.0088623046875
0.0088623046875
0.008056640625
0.0072509765625
0.008056640625
0.009667968749999999
0.008056640625
0.0104736328125
0.013696289062499999
0.009667968749999999
0.0056396484374999995
0.0104736328125
0.009667968749999999
0.009667968749999999
0.0104736328125
0.0064453125
0.009667968749999999
0.0088623046875
0.008056640625
0.008056640625
0.0088623046875
0.008056640625
0.009667968749999999
0.009667968749999999
0.0008056640625
0.0072509765625
0.009667968749999999
0.0120849609375
0.009667968749999999
0.0088623046875
0.008056640625
0.0088623046875
0.0064453125
0.0088623046875
0.0072509765625
0.014501953125
0.009667968749999999
0.0088623046875
0.0088623046875
0.008056640625
0.008056640625
0.0072509765625
0.0072509765625
0.008056640625
0.0088623046875
0.009667968749999999
0.011279296874999999
0.008056640625
0.008056640625
0.008056640625
0.0088623046875
0.009667968749999999
0.0088623046875
0.008056640625
0.0088623046875
0.0088623046875
0.0056396484374999995
0.014501953125
0.0088623046875
0.008056640625
0.0056396484374999995
0.008056640625
0.0088623046875
0.009667968749999999
0.0056396484374999995
0.0104736328125
0.0072509765625
0.0064453125
0.0072509765625
0.011279296874999999
0.0088623046875
0.0088623046875
0.0088623046875
0.008056640625
0.0056396484374999995
0.008056640625
0.0072509765625
0.0088623046875
0.008056640625
0.009667968749999999
0.0072509765625
0.0088623046875
0.0088623046875
0.009667968749999999
0.0072509765625
0.008056640625
0.0072509765625
0.0072509765625
0.0072509765625
0.0072509765625
0.008056640625
0.008056640625
0.0104736328125
0.0088623046875
0.0072509765625
0.0064453125
0.009667968749999999
0.009667968749999999
0.0088623046875
0.0064453125
0.0072509765625
0.0104736328125
0.00322265625
0.0064453125
0.008056640625
0.008056640625
0.008056640625
0.009667968749999999
0.0072509765625
0.0072509765625
0.008056640625
0.0072509765625
0.0072509765625
0.008056640625
0.008056640625
0.0104736328125
0.008056640625
0.0088623046875
0.0064453125
0.0088623046875
0.008056640625
0.0088623046875
0.008056640625
0.008056640625
0.008056640625
0.0088623046875
0.008056640625
0.009667968749999999
0.0064453125
0.0064453125
0.009667968749999999
0.0088623046875
0.0064453125
0.008056640625
0.0064453125
0.009667968749999999
0.008056640625
0.009667968749999999
0.0088623046875
0.0088623046875
0.0088623046875
0.008056640625
0.0072509765625
0.0064453125
0.008056640625
0.008056640625
0.0064453125
0.0104736328125
0.008056640625
0.0064453125
0.009667968749999999
0.0072509765625
0.0064453125
0.008056640625
0.009667968749999999
0.008056640625
0.008056640625
0.0088623046875
0.0088623046875
0.0088623046875
0.008056640625
0.0072509765625
0.0104736328125
0.009667968749999999
0.0088623046875
0.00322265625
0.008056640625
0.0088623046875
0.0088623046875
0.0056396484374999995
0.008056640625
0.0056396484374999995
0.011279296874999999
0.0088623046875
0.0072509765625
0.008056640625
0.0064453125
0.0072509765625
0.008056640625
0.008056640625
0.0088623046875
0.0088623046875
0.008056640625
0.0072509765625
0.009667968749999999
0.0088623046875
0.0088623046875
0.008056640625
0.008056640625
0.0056396484374999995
0.008056640625
0.0056396484374999995
0.0072509765625
0.0088623046875
0.0088623046875
0.0072509765625
0.008056640625
0.009667968749999999
0.0104736328125
0.008056640625
0.008056640625
0.0064453125
0.008056640625
0.008056640625
0.009667968749999999
0.0104736328125
0.0088623046875
0.0088623046875
0.0064453125
0.0056396484374999995
0.008056640625
0.011279296874999999
0.0072509765625
0.0064453125
0.009667968749999999
0.0072509765625
0.0056396484374999995
0.0104736328125
0.011279296874999999
0.008056640625
0.0056396484374999995
0.008056640625
0.0104736328125
0.009667968749999999
0.0088623046875
0.009667968749999999
0.0056396484374999995
0.0088623046875
0.009667968749999999
0.0088623046875
0.0088623046875
0.0072509765625
0.0088623046875
0.0088623046875
0.0088623046875
0.0104736328125
0.008056640625
0.0088623046875
0.009667968749999999
0.0088623046875
0.0072509765625
0.0088623046875
0.008056640625
0.008056640625
0.0072509765625
0.009667968749999999
0.008056640625
0.008056640625
0.008056640625
0.0104736328125
0.004833984374999999
0.0064453125
0.0064453125
0.0088623046875
0.008056640625
0.0088623046875
0.0072509765625
0.0088623046875
0.008056640625
0.008056640625
0.0072509765625
0.008056640625
0.008056640625
0.0024169921874999997
0.0072509765625
0.009667968749999999
0.011279296874999999
0.009667968749999999
0.008056640625
0.0072509765625
0.008056640625
0.013696289062499999
0.008056640625
0.0088623046875
0.008056640625
0.008056640625
0.0104736328125
0.0072509765625
0.0088623046875
0.0088623046875
0.0056396484374999995
0.009667968749999999
0.0056396484374999995
0.0088623046875
0.0064453125
0.0064453125
0.0088623046875
0.0088623046875
0.0056396484374999995
0.0088623046875
0.0088623046875
0.0064453125
0.008056640625
0.0088623046875
0.008056640625
0.009667968749999999
0.0088623046875
0.0072509765625
0.0104736328125
0.009667968749999999
0.009667968749999999
0.008056640625
0.008056640625
0.004833984374999999
0.008056640625
0.0088623046875
0.008056640625
0.0104736328125
0.009667968749999999
0.0088623046875
0.0088623046875
0.0088623046875
0.0104736328125
0.009667968749999999
0.0088623046875
0.0088623046875
0.0088623046875
0.008056640625
0.009667968749999999
0.008056640625
0.0088623046875
0.0088623046875
0.0056396484374999995
0.0072509765625
0.008056640625
0.008056640625
0.008056640625
0.0064453125
0.009667968749999999
0.009667968749999999
0.0064453125
0.0088623046875
0.004833984374999999
0.011279296874999999
0.008056640625
0.0088623046875
0.008056640625
0.0088623046875
0.0072509765625
0.0072509765625
0.008056640625
0.008056640625
0.0072509765625
0.0064453125
0.0064453125
0.0072509765625
0.009667968749999999
0.0064453125
0.0064453125
0.0088623046875
0.009667968749999999
0.009667968749999999
0.0064453125
0.0064453125
0.0088623046875
0.0088623046875
0.008056640625
0.0072509765625
0.009667968749999999
0.009667968749999999
0.009667968749999999
0.009667968749999999
0.009667968749999999
0.008056640625
0.008056640625
0.0088623046875
0.0088623046875
0.0064453125
0.008056640625
0.0088623046875
0.0088623046875
0.008056640625
0.0104736328125
0.009667968749999999
0.0088623046875
0.0088623046875
0.0072509765625
0.008056640625
0.008056640625
0.0104736328125
0.0088623046875
0.009667968749999999
0.008056640625
0.0104736328125
0.0104736328125
0.008056640625
0.0064453125
0.008056640625
0.0064453125
0.008056640625
0.0104736328125
0.008056640625
0.008056640625
0.009667968749999999
0.009667968749999999
0.0088623046875
0.008056640625
0.0072509765625
0.0104736328125
0.0088623046875
0.0072509765625
0.0088623046875
0.009667968749999999
0.0088623046875
0.001611328125
0.004833984374999999
0.0088623046875
0.0088623046875
0.0088623046875
0.011279296874999999
0.008056640625
0.008056640625
0.0072509765625
0.0064453125
0.0072509765625
0.0088623046875
0.0088623046875
0.0088623046875
0.0072509765625
0.011279296874999999
0.0056396484374999995
0.008056640625
0.008056640625
0.008056640625
0.009667968749999999
0.0120849609375
0.0104736328125
0.009667968749999999
0.0088623046875
0.0088623046875
0.0088623046875
0.0072509765625
0.0072509765625
0.0072509765625
0.008056640625
0.009667968749999999
0.008056640625
0.008056640625
0.0064453125
0.008056640625
0.009667968749999999
0.0072509765625
0.0072509765625
0.0088623046875
0.008056640625
0.0064453125
0.0056396484374999995
0.0088623046875
0.0088623046875
0.0088623046875
0.009667968749999999
0.0072509765625
0.0088623046875
0.0064453125
0.0088623046875
0.008056640625
0.008056640625
0.0064453125
0.008056640625
0.0104736328125
0.0064453125
0.008056640625
0.0088623046875
0.0072509765625
0.008056640625
0.009667968749999999
0.0064453125
0.0088623046875
0.0088623046875
0.0088623046875
0.008056640625
0.009667968749999999
0.017724609375
0.004833984374999999
0.009667968749999999
0.0072509765625
0.011279296874999999
0.009667968749999999
0.009667968749999999
0.008056640625
0.0088623046875
0.0088623046875
0.009667968749999999
0.009667968749999999
0.0088623046875
0.0056396484374999995
0.0056396484374999995
0.008056640625
0.0088623046875
0.0088623046875
0.0072509765625
0.0104736328125
0.0088623046875
0.009667968749999999
0.009667968749999999
0.008056640625
0.0088623046875
0.0088623046875
0.0072509765625
0.0064453125
0.008056640625
0.008056640625
0.0064453125
0.0088623046875
0.0064453125
0.0088623046875
0.0088623046875
0.0088623046875
0.008056640625
0.0072509765625
0.008056640625
0.0072509765625
0.0088623046875
0.008056640625
0.008056640625
0.0088623046875
0.0088623046875
0.0088623046875
0.0064453125
0.009667968749999999
0.0088623046875
0.0064453125
0.0072509765625
0.0088623046875
0.0072509765625
0.008056640625
0.008056640625
0.0056396484374999995
0.008056640625
0.0072509765625
0.0088623046875
0.0064453125
0.0088623046875
0.008056640625
0.008056640625
0.0072509765625
0.009667968749999999
0.008056640625
0.0088623046875
0.0088623046875
0.0072509765625
0.0088623046875
0.008056640625
0.008056640625
0.0056396484374999995
0.011279296874999999
0.0104736328125
0.0104736328125
0.0064453125
0.0088623046875
0.0072509765625
0.0056396484374999995
0.0104736328125
0.008056640625
0.0088623046875
0.0024169921874999997
0.0088623046875
0.008056640625
0.009667968749999999
0.008056640625
0.0088623046875
0.0056396484374999995
0.009667968749999999
0.0064453125
0.0064453125
0.008056640625
0.009667968749999999
0.0072509765625
0.008056640625
0.008056640625
0.008056640625
0.008056640625
0.009667968749999999
0.0088623046875
0.012890625
0.0088623046875
0.0072509765625
0.009667968749999999
0.0064453125
0.0056396484374999995
0.0072509765625
0.0088623046875
0.0104736328125
0.0072509765625
0.008056640625
0.0104736328125
0.0072509765625
0.009667968749999999
0.0088623046875
0.0072509765625
0.008056640625
0.0072509765625
0.0088623046875
0.008056640625
0.0064453125
0.0088623046875
0.0088623046875
0.0072509765625
0.008056640625
0.0072509765625
0.008056640625
0.0064453125
0.0104736328125
0.008056640625
0.009667968749999999
0.0104736328125
0.0088623046875
0.0088623046875
0.0088623046875
0.0072509765625
0.0064453125
0.0072509765625
0.0104736328125
0.0072509765625
0.008056640625
0.008056640625
0.0104736328125
0.0088623046875
0.0064453125
0.0072509765625
0.0104736328125
0.008056640625
0.0088623046875
0.0072509765625
0.0088623046875
0.0056396484374999995
0.004833984374999999
0.012890625
0.0088623046875
0.008056640625
0.008056640625
0.008056640625
0.008056640625
0.008056640625
0.012890625
0.008056640625
0.0088623046875
0.0104736328125
0.008056640625
0.008056640625
0.0072509765625
0.0064453125
0.0072509765625
0.008056640625
0.011279296874999999
0.008056640625
0.009667968749999999
0.0120849609375
0.009667968749999999
0.0104736328125
0.0104736328125
0.0088623046875
0.0088623046875
0.008056640625
0.0088623046875
0.0072509765625
0.008056640625
0.0088623046875
0.0072509765625
0.0056396484374999995
0.0064453125
0.0088623046875
0.0088623046875
0.008056640625
0.0056396484374999995
0.0064453125
0.011279296874999999
0.0088623046875
0.008056640625
0.009667968749999999
0.009667968749999999
0.011279296874999999
0.008056640625
0.0072509765625
0.0088623046875
0.0104736328125
0.011279296874999999
0.0064453125
0.009667968749999999
0.0088623046875
0.008056640625
0.008056640625
0.008056640625
0.0088623046875
0.009667968749999999
0.008056640625
0.0056396484374999995
0.008056640625
0.0072509765625
0.011279296874999999
0.0088623046875
0.0088623046875
0.0056396484374999995
0.0088623046875
0.0088623046875
0.0088623046875
0.0088623046875
0.009667968749999999
0.009667968749999999
0.008056640625
0.008056640625
0.008056640625
0.0064453125
0.008056640625
0.009667968749999999
0.008056640625
0.0088623046875
0.0040283203125
0.0088623046875
0.008056640625
0.0120849609375
0.0088623046875
0.0088623046875
0.0072509765625
0.0088623046875
0.0056396484374999995
0.008056640625
0.008056640625
0.009667968749999999
0.0088623046875
0.0056396484374999995
0.0064453125
0.0104736328125
0.0088623046875
0.008056640625
0.0072509765625
0.0104736328125
0.008056640625
0.008056640625
0.0088623046875
0.009667968749999999
0.0024169921874999997
0.011279296874999999
0.0088623046875
0.0088623046875
0.008056640625
0.0088623046875
0.0088623046875
0.0104736328125
0.0088623046875
0.0088623046875
0.0088623046875
0.0056396484374999995
0.008056640625
0.0088623046875
0.0072509765625
0.0064453125
0.008056640625
0.011279296874999999
0.0072509765625
0.0064453125
0.008056640625
0.0104736328125
0.0
0.009667968749999999
0.0072509765625
0.008056640625
0.008056640625
0.008056640625
0.0072509765625
0.0088623046875
0.0064453125
0.0088623046875
0.0064453125
0.009667968749999999
0.0088623046875
0.0072509765625
0.008056640625
0.0088623046875
0.009667968749999999
0.0120849609375
0.0072509765625
0.0064453125
0.009667968749999999
0.0088623046875
0.008056640625
0.0072509765625
0.0088623046875
0.0104736328125
0.0072509765625
0.0072509765625
0.0088623046875
0.0088623046875
0.0072509765625
0.013696289062499999
0.011279296874999999
0.008056640625
0.0104736328125
0.008056640625
0.0064453125
0.0088623046875
0.0072509765625
0.0072509765625
0.0088623046875
0.0088623046875
0.009667968749999999
0.009667968749999999
0.0072509765625
0.0072509765625
0.008056640625
0.0072509765625
0.0088623046875
0.0072509765625
0.0064453125
0.0056396484374999995
0.0072509765625
0.009667968749999999
0.0064453125
0.0064453125
0.0088623046875
0.008056640625
0.0088623046875
0.011279296874999999
0.0064453125
0.0056396484374999995
0.008056640625
0.011279296874999999
0.008056640625
0.0088623046875
0.0088623046875
0.0104736328125
0.009667968749999999
0.0104736328125
0.0088623046875
0.008056640625
0.0056396484374999995
0.0104736328125
0.013696289062499999
0.00322265625
0.0072509765625
0.008056640625
0.0088623046875
0.0104736328125
0.0104736328125
0.008056640625
0.00322265625
0.008056640625
0.0088623046875
0.009667968749999999
0.008056640625
0.0088623046875
0.0064453125
0.009667968749999999
0.0088623046875
0.0104736328125
0.009667968749999999
0.008056640625
0.008056640625
0.009667968749999999
0.0064453125
0.009667968749999999
0.008056640625
0.0120849609375
0.009667968749999999
0.0088623046875
0.008056640625
0.0040283203125
0.0104736328125
0.009667968749999999
0.0072509765625
0.0072509765625
0.009667968749999999
0.008056640625
0.008056640625
0.0072509765625
0.008056640625
0.008056640625
0.008056640625
0.008056640625
0.009667968749999999
0.013696289062499999
0.004833984374999999
0.0088623046875
0.0072509765625
0.008056640625
0.0088623046875
0.011279296874999999
0.008056640625
0.008056640625
0.008056640625
0.0104736328125
0.0104736328125
0.008056640625
0.008056640625
0.0072509765625
0.008056640625
0.0064453125
0.008056640625
0.009667968749999999
0.0064453125
0.0072509765625
0.0088623046875
0.0056396484374999995
0.008056640625
0.0072509765625
0.008056640625
0.008056640625
0.0088623046875
0.009667968749999999
0.008056640625
0.0088623046875
0.0064453125
0.009667968749999999
0.008056640625
0.0072509765625
0.008056640625
0.008056640625
0.008056640625
0.008056640625
0.008056640625
0.0088623046875
0.0056396484374999995
0.013696289062499999
0.0104736328125
0.008056640625
0.009667968749999999
0.0104736328125
0.0088623046875
0.0088623046875
0.0072509765625
0.0104736328125
0.008056640625
0.0072509765625
0.008056640625
0.008056640625
0.0064453125
0.0088623046875
0.008056640625
0.0104736328125
0.004833984374999999
0.008056640625
0.0072509765625
0.008056640625
0.011279296874999999
0.008056640625
0.0088623046875
0.009667968749999999
0.0088623046875
0.008056640625
0.008056640625
0.0088623046875
0.0072509765625
0.0104736328125
0.0088623046875
0.0056396484374999995
0.009667968749999999
0.0120849609375
0.0056396484374999995
0.008056640625
0.0088623046875
0.0072509765625
0.008056640625
0.0072509765625
0.008056640625
0.009667968749999999
0.0072509765625
0.008056640625
0.008056640625
0.009667968749999999
0.0056396484374999995
0.009667968749999999
0.0064453125
0.009667968749999999
0.0104736328125
0.0088623046875
0.009667968749999999
0.008056640625
0.009667968749999999
0.008056640625
0.0064453125
0.008056640625
0.008056640625
0.0056396484374999995
0.0088623046875
0.0104736328125
0.0088623046875
0.008056640625
0.009667968749999999
0.008056640625
0.009667968749999999
0.0056396484374999995
0.008056640625
0.0056396484374999995
0.0088623046875
0.0088623046875
0.0088623046875
0.0064453125
0.0072509765625
0.0088623046875
0.0088623046875
0.0088623046875
0.0088623046875
0.0104736328125
0.0072509765625
0.012890625
0.0088623046875
0.009667968749999999
0.0072509765625
0.009667968749999999
0.0088623046875
0.00322265625
0.0088623046875
0.008056640625
0.008056640625
0.011279296874999999
0.008056640625
0.0072509765625
0.0064453125
0.00322265625
0.0072509765625
0.0088623046875
0.0072509765625
0.008056640625
0.008056640625
0.008056640625
0.0120849609375
0.008056640625
0.0064453125
0.0056396484374999995
0.0088623046875
0.008056640625
0.008056640625
0.0064453125
0.0072509765625
0.008056640625
0.008056640625
0.0088623046875
0.0088623046875
0.009667968749999999
0.0088623046875
0.0088623046875
0.0064453125
0.009667968749999999
0.0104736328125
0.0056396484374999995
0.008056640625
0.0088623046875
0.0088623046875
0.009667968749999999
0.0088623046875
0.0072509765625
0.008056640625
0.008056640625
0.009667968749999999
0.009667968749999999
0.0088623046875
0.0088623046875
0.008056640625
0.009667968749999999
0.008056640625
0.0088623046875
0.008056640625
0.0088623046875
0.0088623046875
0.012890625
0.008056640625
0.0104736328125
0.0056396484374999995
0.0072509765625
0.0088623046875
0.0056396484374999995
0.0104736328125
0.008056640625
0.009667968749999999
0.0088623046875
0.008056640625
0.0104736328125
0.009667968749999999
0.008056640625
0.0088623046875
0.008056640625
0.0072509765625
0.0088623046875
0.0072509765625
0.0056396484374999995
0.008056640625
0.0072509765625
0.008056640625
0.0072509765625
0.008056640625
0.0056396484374999995
0.008056640625
0.008056640625
0.0064453125
0.008056640625
0.0104736328125
0.008056640625
0.0088623046875
0.008056640625
0.0104736328125
0.0064453125
0.008056640625
0.0040283203125
0.0072509765625
0.008056640625
0.008056640625
0.008056640625
0.0072509765625
0.0072509765625
0.0104736328125
0.0088623046875
0.008056640625
0.0064453125
0.0064453125
0.0104736328125
0.008056640625
0.0064453125
0.0088623046875
0.009667968749999999
0.0088623046875
0.0088623046875
0.008056640625
0.0088623046875
0.008056640625
0.0040283203125
0.008056640625
0.011279296874999999
0.008056640625
0.008056640625
0.0088623046875
0.0088623046875
0.0088623046875
0.0056396484374999995
0.0120849609375
0.008056640625
0.008056640625
0.0104736328125
0.009667968749999999
0.009667968749999999
0.0088623046875
0.0072509765625
0.008056640625
0.0072509765625
0.011279296874999999
0.0064453125
0.009667968749999999
0.009667968749999999
0.0064453125
0.0072509765625
0.0072509765625
0.0072509765625
0.008056640625
0.0088623046875
0.0104736328125
0.0104736328125
0.0072509765625
0.009667968749999999
0.0072509765625
0.009667968749999999
0.008056640625
0.008056640625
0.008056640625
0.0072509765625
0.008056640625
0.0104736328125
0.0072509765625
0.0088623046875
0.009667968749999999
0.0088623046875
0.009667968749999999
0.009667968749999999
0.011279296874999999
0.0072509765625
0.0088623046875
0.009667968749999999
0.009667968749999999
0.0064453125
0.011279296874999999
0.008056640625
0.009667968749999999
0.008056640625
0.0104736328125
0.0072509765625
0.008056640625
0.008056640625
0.008056640625
0.0104736328125
0.0120849609375
0.008056640625
0.008056640625
0.009667968749999999
0.008056640625
0.008056640625
0.009667968749999999
0.008056640625
0.0088623046875
0.0088623046875
0.008056640625
0.0072509765625
0.008056640625
0.008056640625
0.008056640625
0.008056640625
0.0088623046875
0.0072509765625
0.004833984374999999
0.0088623046875
0.009667968749999999
0.0088623046875
0.008056640625
0.008056640625
0.011279296874999999
0.0104736328125
0.0056396484374999995
0.0120849609375
0.0056396484374999995
0.0088623046875
0.008056640625
0.008056640625
0.0104736328125
0.0088623046875
0.0072509765625
0.0088623046875
0.009667968749999999
0.0088623046875
0.0056396484374999995
0.004833984374999999
0.0088623046875
0.0088623046875
0.0088623046875
0.0072509765625
0.008056640625
0.008056640625
0.009667968749999999
0.0064453125
0.0056396484374999995
0.009667968749999999
0.0072509765625
0.008056640625
0.0072509765625
0.0072509765625
0.0088623046875
0.0104736328125
0.0104736328125
0.0088623046875
0.0088623046875
0.0088623046875
0.008056640625
0.0024169921874999997
0.0064453125
0.008056640625
0.0104736328125
0.008056640625
0.011279296874999999
0.008056640625
0.0072509765625
0.0088623046875
0.008056640625
0.0088623046875
0.0088623046875
0.0088623046875
0.009667968749999999
0.0088623046875
0.0072509765625
0.009667968749999999
0.009667968749999999
0.0104736328125
0.008056640625
0.008056640625
0.0072509765625
0.0064453125
0.0088623046875
0.0088623046875
0.008056640625
0.008056640625
0.008056640625
0.0072509765625
0.008056640625
0.008056640625
0.0072509765625
0.0064453125
0.008056640625
0.0104736328125
0.0040283203125
0.0056396484374999995
0.009667968749999999
0.0088623046875
0.0088623046875
0.011279296874999999
0.0056396484374999995
0.0056396484374999995
0.0088623046875
0.011279296874999999
0.008056640625
0.009667968749999999
0.0088623046875
0.008056640625
0.0104736328125
0.0064453125
0.009667968749999999
0.0072509765625
0.008056640625
0.0064453125
0.0088623046875
0.0064453125
0.008056640625
0.0104736328125
0.0072509765625
0.0088623046875
0.0072509765625
0.0120849609375
0.008056640625
0.009667968749999999
0.0056396484374999995
0.008056640625
0.0064453125
0.0104736328125
0.008056640625
0.0088623046875
0.008056640625
0.0088623046875
0.0072509765625
0.0072509765625
0.0064453125
0.0064453125
0.009667968749999999
0.0072509765625
0.008056640625
0.008056640625
0.0088623046875
0.0088623046875
0.0104736328125
0.0064453125
0.0056396484374999995
0.0088623046875
0.011279296874999999
0.00322265625
0.009667968749999999
0.001611328125
0.008056640625
0.0088623046875
0.009667968749999999
0.0088623046875
0.0072509765625
0.0064453125
0.008056640625
0.0104736328125
0.0064453125
0.008056640625
0.0072509765625
0.0088623046875
0.009667968749999999
0.0064453125
0.0064453125
0.0088623046875
0.0104736328125
0.008056640625
0.0088623046875
0.008056640625
0.0104736328125
0.008056640625
0.009667968749999999
0.009667968749999999
0.0072509765625
0.0072509765625
0.008056640625
0.0088623046875
0.0072509765625
0.009667968749999999
0.0072509765625
0.008056640625
0.0088623046875
0.0088623046875
0.008056640625
0.0056396484374999995
0.0088623046875
0.009667968749999999
0.0088623046875
0.0088623046875
0.0064453125
0.0064453125
0.0056396484374999995
0.0088623046875
0.0088623046875
0.0088623046875
0.0088623046875
0.0072509765625
0.0056396484374999995
0.0056396484374999995
0.0104736328125
0.0072509765625
0.008056640625
0.0088623046875
0.0088623046875
0.008056640625
0.008056640625
0.009667968749999999
0.0088623046875
0.0104736328125
0.008056640625
0.008056640625
0.0072509765625
0.0088623046875
0.0072509765625
0.0088623046875
0.0064453125
0.01611328125
0.008056640625
0.008056640625
0.008056640625
0.008056640625
0.008056640625
0.009667968749999999
0.0072509765625
0.009667968749999999
0.009667968749999999
0.0072509765625
0.008056640625
0.009667968749999999
0.0088623046875
0.008056640625
0.008056640625
0.0064453125
0.009667968749999999
0.008056640625
0.0072509765625
0.008056640625
0.0088623046875
0.008056640625
0.0088623046875
0.0072509765625
0.008056640625
0.0088623046875
0.0072509765625
0.00322265625
0.008056640625
0.0056396484374999995
0.008056640625
0.0088623046875
0.011279296874999999
0.0072509765625
0.008056640625
0.0088623046875
0.0088623046875
0.008056640625
0.0088623046875
0.004833984374999999
0.0072509765625
0.0104736328125
0.0088623046875
0.009667968749999999
0.0072509765625
0.0088623046875
0.008056640625
0.0072509765625
0.008056640625
0.0088623046875
0.0088623046875
0.008056640625
0.0064453125
0.0088623046875
0.009667968749999999
0.009667968749999999
0.0104736328125
0.0064453125
0.0072509765625
0.0064453125
0.0088623046875
0.008056640625
0.014501953125
0.0088623046875
0.008056640625
0.0064453125
0.008056640625
0.008056640625
0.0064453125
0.0056396484374999995
0.0104736328125
0.0088623046875
0.0088623046875
0.008056640625
0.009667968749999999
0.009667968749999999
0.0088623046875
0.0104736328125
0.008056640625
0.008056640625
0.0088623046875
0.008056640625
0.0072509765625
0.0088623046875
0.0072509765625
0.008056640625
0.008056640625
0.008056640625
0.008056640625
0.0064453125
0.0088623046875
0.0064453125
0.0088623046875
0.008056640625
0.0104736328125
0.0072509765625
0.0088623046875
0.008056640625
0.0064453125
0.0104736328125
0.008056640625
0.0072509765625
0.0
0.004833984374999999
0.009667968749999999
0.008056640625
0.008056640625
0.008056640625
0.008056640625
0.008056640625
0.008056640625
0.0104736328125
0.0088623046875
0.0056396484374999995
0.0072509765625
0.0088623046875
0.0088623046875
0.0072509765625
0.008056640625
0.0040283203125
0.009667968749999999
0.008056640625
0.008056640625
0.0088623046875
0.0088623046875
0.008056640625
0.008056640625
0.009667968749999999
0.008056640625
0.0064453125
0.0104736328125
0.0072509765625
0.0104736328125
0.0064453125
0.011279296874999999
0.0072509765625
0.008056640625
0.0
0.011279296874999999
0.0064453125
0.008056640625
0.0088623046875
0.008056640625
0.009667968749999999
0.0072509765625
0.0088623046875
0.0088623046875
0.0056396484374999995
0.0088623046875
0.0072509765625
0.008056640625
0.0064453125
0.0008056640625
0.004833984374999999
0.013696289062499999
0.0088623046875
0.0088623046875
0.0104736328125
0.008056640625
0.009667968749999999
0.008056640625
0.0104736328125
0.008056640625
0.008056640625
0.004833984374999999
0.0072509765625
0.011279296874999999
0.008056640625
0.0064453125
0.008056640625
0.0088623046875
0.008056640625
0.0088623046875
0.008056640625
0.008056640625
0.0072509765625
0.011279296874999999
0.0072509765625
0.0072509765625
0.0104736328125
0.009667968749999999
0.0104736328125
0.0104736328125
0.0104736328125
0.008056640625
0.008056640625
0.008056640625
0.009667968749999999
0.0088623046875
0.0056396484374999995
0.0064453125
0.0088623046875
0.0104736328125
0.0088623046875
0.008056640625
0.0104736328125
0.009667968749999999
0.0056396484374999995
0.0088623046875
0.008056640625
0.0088623046875
0.0088623046875
0.009667968749999999
0.008056640625
0.009667968749999999
0.0072509765625
0.0064453125
0.008056640625
0.008056640625
0.0064453125
0.0088623046875
0.0088623046875
0.011279296874999999
0.0088623046875
0.0072509765625
0.0088623046875
0.009667968749999999
0.008056640625
0.011279296874999999
0.0088623046875
0.0072509765625
0.0072509765625
0.0064453125
0.0088623046875
0.0088623046875
0.008056640625
0.008056640625
0.009667968749999999
0.0056396484374999995
0.009667968749999999
0.0056396484374999995
0.008056640625
0.008056640625
0.0064453125
0.009667968749999999
0.0088623046875
0.0072509765625
0.0088623046875
0.0088623046875
0.0064453125
0.008056640625
0.0088623046875
0.008056640625
0.008056640625
0.008056640625
0.008056640625
0.0088623046875
0.0088623046875
0.0088623046875
0.009667968749999999
0.0072509765625
0.0008056640625
0.011279296874999999
0.0088623046875
0.009667968749999999
0.012890625
0.0064453125
0.008056640625
0.0104736328125
0.0088623046875
0.0088623046875
0.0088623046875
0.0064453125
0.008056640625
0.0072509765625
0.0072509765625
0.0088623046875
0.0104736328125
0.0072509765625
0.0088623046875
0.0072509765625
0.0088623046875
0.0072509765625
0.008056640625
0.008056640625
0.0072509765625
0.0072509765625
0.008056640625
0.0072509765625
0.0088623046875
0.0088623046875
0.0072509765625
0.001611328125
0.008056640625
0.0072509765625
0.009667968749999999
0.008056640625
0.0088623046875
0.0120849609375
0.0088623046875
0.0088623046875
0.0088623046875
0.008056640625
0.0072509765625
0.012890625
0.008056640625
0.0072509765625
0.0088623046875
0.008056640625
0.0064453125
0.0088623046875
0.0072509765625
0.008056640625
0.0088623046875
0.0088623046875
0.0072509765625
0.0088623046875
0.009667968749999999
0.008056640625
0.0088623046875
0.009667968749999999
0.009667968749999999
0.0072509765625
0.004833984374999999
0.0088623046875
0.0088623046875
0.0064453125
0.0088623046875
0.0088623046875
0.0088623046875
0.008056640625
0.008056640625
0.008056640625
0.0088623046875
0.009667968749999999
0.008056640625
0.008056640625
0.009667968749999999
0.0072509765625
0.0064453125
0.009667968749999999
0.009667968749999999
0.0072509765625
0.0064453125
0.0088623046875
0.0088623046875
0.0056396484374999995
0.009667968749999999
0.0088623046875
0.0072509765625
0.0064453125
0.0088623046875
0.0104736328125
0.009667968749999999
0.0072509765625
0.008056640625
0.0064453125
0.0072509765625
0.008056640625
0.008056640625
0.0088623046875
0.008056640625
0.009667968749999999
0.0120849609375
0.0088623046875
0.008056640625
0.008056640625
0.0064453125
0.009667968749999999
0.011279296874999999
0.0072509765625
0.0064453125
0.008056640625
0.0072509765625
0.0088623046875
0.0088623046875
0.0088623046875
0.011279296874999999
0.0064453125
0.009667968749999999
0.0088623046875
0.008056640625
0.0088623046875
0.008056640625
0.008056640625
0.0088623046875
0.008056640625
0.0064453125
0.0088623046875
0.008056640625
0.0088623046875
0.0104736328125
0.0072509765625
0.0072509765625
0.0088623046875
0.0088623046875
0.008056640625
0.008056640625
0.009667968749999999
0.0072509765625
0.0056396484374999995
0.008056640625
0.0056396484374999995
0.008056640625
0.0040283203125
0.0104736328125
0.0088623046875
0.0056396484374999995
0.0088623046875
0.008056640625
0.011279296874999999
0.008056640625
0.0088623046875
0.0088623046875
0.008056640625
0.008056640625
0.008056640625
0.008056640625
0.0104736328125
0.0088623046875
0.0088623046875
0.0072509765625
0.0072509765625
0.008056640625
0.0072509765625
0.0088623046875
0.0064453125
0.004833984374999999
0.008056640625
0.0104736328125
0.0104736328125
0.008056640625
0.008056640625
0.023364257812499997
0.0088623046875
0.008056640625
0.0088623046875
0.0072509765625
0.0088623046875
0.0088623046875
0.009667968749999999
0.0064453125
0.008056640625
0.008056640625
0.008056640625
0.008056640625
0.008056640625
0.0104736328125
0.0088623046875
0.0088623046875
0.0088623046875
0.0056396484374999995
0.0072509765625
0.0064453125
0.0072509765625
0.011279296874999999
0.0088623046875
0.0056396484374999995
0.008056640625
0.0088623046875
0.011279296874999999
0.0088623046875
0.0104736328125
0.008056640625
0.0056396484374999995
0.008056640625
0.0064453125
0.0072509765625
0.0120849609375
0.009667968749999999
0.0072509765625
0.0088623046875
0.0088623046875
0.0088623046875
0.008056640625
0.0064453125
0.0072509765625
0.0072509765625
0.0104736328125
0.0072509765625
0.0104736328125
0.0104736328125
0.008056640625
0.0064453125
0.0088623046875
0.0104736328125
0.008056640625
0.009667968749999999
0.009667968749999999
0.009667968749999999
0.008056640625
0.008056640625
0.008056640625
0.0064453125
0.0088623046875
0.008056640625
0.0088623046875
0.0064453125
0.0088623046875
0.008056640625
0.0064453125
0.008056640625
0.008056640625
0.008056640625
0.011279296874999999
0.008056640625
0.0072509765625
0.0088623046875
0.0088623046875
0.0088623046875
0.008056640625
0.0088623046875
0.0072509765625
0.008056640625
0.0104736328125
0.0072509765625
0.0072509765625
0.0072509765625
0.0064453125
0.0072509765625
0.0072509765625
0.0104736328125
0.0104736328125
0.008056640625
0.0088623046875
0.008056640625
0.008056640625
0.0088623046875
0.009667968749999999
0.0072509765625
0.0088623046875
0.0088623046875
0.0088623046875
0.0064453125
0.0088623046875
0.008056640625
0.008056640625
0.0088623046875
0.008056640625
0.008056640625
0.0064453125
0.008056640625
0.009667968749999999
0.0088623046875
0.011279296874999999
0.0072509765625
0.0088623046875
0.009667968749999999
0.0056396484374999995
0.0088623046875
0.004833984374999999
0.0088623046875
0.004833984374999999
0.011279296874999999
0.0088623046875
0.009667968749999999
0.0072509765625
0.011279296874999999
0.008056640625
0.008056640625
0.0064453125
0.009667968749999999
0.008056640625
0.008056640625
0.0088623046875
0.008056640625
0.008056640625
0.008056640625
0.0072509765625
0.008056640625
0.008056640625
0.0072509765625
0.0072509765625
0.0104736328125
0.011279296874999999
0.0088623046875
0.0088623046875
0.008056640625
0.008056640625
0.008056640625
0.008056640625
0.0088623046875
0.0064453125
0.0104736328125
0.0072509765625
0.0088623046875
0.0064453125
0.0088623046875
0.0088623046875
0.009667968749999999
0.011279296874999999
0.0072509765625
0.0064453125
0.0104736328125
0.009667968749999999
0.0088623046875
0.0088623046875
0.011279296874999999
0.013696289062499999
0.009667968749999999
0.008056640625
0.009667968749999999
0.0088623046875
0.0072509765625
0.008056640625
0.008056640625
0.0088623046875
0.0088623046875
0.0088623046875
0.008056640625
0.009667968749999999
0.0064453125
0.0072509765625
0.0072509765625
0.008056640625
0.008056640625
0.0104736328125
0.0104736328125
0.008056640625
0.0088623046875
0.009667968749999999
0.008056640625
0.008056640625
0.008056640625
0.009667968749999999
0.008056640625
0.008056640625
0.0064453125
0.0072509765625
0.009667968749999999
0.0072509765625
0.0088623046875
0.0104736328125
0.0072509765625
0.0088623046875
0.0064453125
0.0088623046875
0.011279296874999999
0.008056640625
0.0072509765625
0.008056640625
0.008056640625
0.0088623046875
0.008056640625
0.004833984374999999
0.0072509765625
0.0104736328125
0.0056396484374999995
0.009667968749999999
0.008056640625
0.011279296874999999
0.0088623046875
0.008056640625
0.0072509765625
0.0064453125
0.0088623046875
0.009667968749999999
0.008056640625
0.008056640625
0.008056640625
0.009667968749999999
0.008056640625
0.0072509765625
0.0088623046875
0.009667968749999999
0.0064453125
0.0088623046875
0.0088623046875
0.0064453125
0.0056396484374999995
0.0088623046875
0.009667968749999999
0.0088623046875
0.008056640625
0.0088623046875
0.0088623046875
0.0088623046875
0.004833984374999999
0.008056640625
0.008056640625
0.008056640625
0.0072509765625
0.008056640625
0.011279296874999999
0.0104736328125
0.008056640625
0.011279296874999999
0.0104736328125
0.0104736328125
0.009667968749999999
0.008056640625
0.008056640625
0.0072509765625
0.011279296874999999
0.0088623046875
0.0088623046875
0.004833984374999999
0.0072509765625
0.008056640625
0.008056640625
0.0072509765625
0.009667968749999999
0.0056396484374999995
0.0104736328125
0.0024169921874999997
0.008056640625
0.008056640625
0.0064453125
0.0088623046875
0.008056640625
0.008056640625
0.0088623046875
0.008056640625
0.0104736328125
0.0072509765625
0.008056640625
0.0088623046875
0.0104736328125
0.0064453125
0.0088623046875
0.009667968749999999
0.0072509765625
0.0104736328125
0.008056640625
0.008056640625
0.0088623046875
0.0088623046875
0.020947265625
0.008056640625
0.008056640625
0.0217529296875
0.008056640625
0.0088623046875
0.008056640625
0.009667968749999999
0.0056396484374999995
0.0088623046875
0.0088623046875
0.0072509765625
0.004833984374999999
0.008056640625
0.0064453125
0.0088623046875
0.0072509765625
0.009667968749999999
0.0088623046875
0.0064453125
0.0088623046875
0.008056640625
0.008056640625
0.0072509765625
0.008056640625
0.009667968749999999
0.0072509765625
0.008056640625
0.008056640625
0.0064453125
0.008056640625
0.0056396484374999995
0.0104736328125
0.0104736328125
0.004833984374999999
0.0064453125
0.0088623046875
0.0072509765625
0.0088623046875
0.008056640625
0.0072509765625
0.0064453125
0.0072509765625
0.0120849609375
0.008056640625
0.0056396484374999995
0.0088623046875
0.008056640625
0.0088623046875
0.009667968749999999
0.0088623046875
0.0104736328125
0.0088623046875
0.008056640625
0.0072509765625
0.0072509765625
0.008056640625
0.0088623046875
0.008056640625
0.008056640625
0.009667968749999999
0.0104736328125
0.008056640625
0.0088623046875
0.009667968749999999
0.0104736328125
0.0088623046875
0.01611328125
0.008056640625
0.008056640625
0.009667968749999999
0.0072509765625
0.008056640625
0.009667968749999999
0.0072509765625
0.0072509765625
0.009667968749999999
0.009667968749999999
0.009667968749999999
0.0088623046875
0.009667968749999999
0.0064453125
0.008056640625
0.009667968749999999
0.0088623046875
0.0088623046875
0.013696289062499999
0.008056640625
0.009667968749999999
0.0064453125
0.008056640625
0.0072509765625
0.0064453125
0.009667968749999999
0.0072509765625
0.0072509765625
0.0088623046875
0.0088623046875
0.0064453125
0.0072509765625
0.0040283203125
0.0104736328125
0.0088623046875
0.0064453125
0.0072509765625
0.009667968749999999
0.0088623046875
0.0088623046875
0.0088623046875
0.0064453125
0.012890625
0.0064453125
0.0072509765625
0.0088623046875
0.008056640625
0.008056640625
0.0104736328125
0.009667968749999999
0.011279296874999999
0.008056640625
0.0104736328125
0.009667968749999999
0.008056640625
0.0064453125
0.0064453125
0.0064453125
0.008056640625
0.009667968749999999
0.0104736328125
0.009667968749999999
0.0072509765625
0.009667968749999999
0.0088623046875
0.0088623046875
0.0088623046875
0.0064453125
0.008056640625
0.008056640625
0.011279296874999999
0.009667968749999999
0.009667968749999999
0.0064453125
0.009667968749999999
0.0104736328125
0.0088623046875
0.008056640625
0.0072509765625
0.011279296874999999
0.0104736328125
0.008056640625
0.0088623046875
0.0064453125
0.0064453125
0.0088623046875
0.0072509765625
0.01611328125
0.0072509765625
0.0088623046875
0.008056640625
0.0064453125
0.011279296874999999
0.008056640625
0.008056640625
0.0088623046875
0.0104736328125
0.0056396484374999995
0.008056640625
0.0072509765625
0.0064453125
0.008056640625
0.0104736328125
0.0072509765625
0.008056640625
0.013696289062499999
0.011279296874999999
0.0064453125
0.0072509765625
0.0064453125
0.0064453125
0.008056640625
0.009667968749999999
0.008056640625
0.0088623046875
0.0056396484374999995
0.008056640625
0.008056640625
0.0072509765625
0.0072509765625
0.008056640625
0.008056640625
0.0104736328125
0.008056640625
0.0072509765625
0.0064453125
0.008056640625
0.0064453125
0.0072509765625
0.009667968749999999
0.0088623046875
0.011279296874999999
0.009667968749999999
0.008056640625
0.0072509765625
0.009667968749999999
0.008056640625
0.0104736328125
0.009667968749999999
0.009667968749999999
0.0088623046875
0.0072509765625
0.008056640625
0.0056396484374999995
0.0088623046875
0.0072509765625
0.0072509765625
0.0088623046875
0.0072509765625
0.0072509765625
0.0088623046875
0.008056640625
0.0088623046875
0.0064453125
0.008056640625
0.009667968749999999
0.0024169921874999997
0.008056640625
0.0072509765625
0.0064453125
0.0072509765625
0.008056640625
0.008056640625
0.009667968749999999
0.0088623046875
0.0072509765625
0.0088623046875
0.0064453125
0.0072509765625
0.008056640625
0.0064453125
0.0064453125
0.0064453125
0.0104736328125
0.0056396484374999995
0.0120849609375
0.0088623046875
0.0056396484374999995
0.008056640625
0.009667968749999999
0.0072509765625
0.0072509765625
0.0064453125
0.008056640625
0.0064453125
0.008056640625
0.009667968749999999
0.0088623046875
0.015307617187499999
0.0088623046875
0.0072509765625
0.009667968749999999
0.0072509765625
0.0072509765625
0.009667968749999999
0.0056396484374999995
0.009667968749999999
0.008056640625
0.0088623046875
0.0072509765625
0.0088623046875
0.0088623046875
0.009667968749999999
0.011279296874999999
0.008056640625
0.0072509765625
0.008056640625
0.0072509765625
0.0120849609375
0.0072509765625
0.0088623046875
0.0088623046875
0.008056640625
0.008056640625
0.0072509765625
0.0088623046875
0.0064453125
0.0072509765625
0.0088623046875
0.0056396484374999995
0.0088623046875
0.0064453125
0.0056396484374999995
0.008056640625
0.0072509765625
0.0064453125
0.0088623046875
0.0064453125
0.008056640625
0.008056640625
0.0088623046875
0.009667968749999999
0.0088623046875
0.0072509765625
0.008056640625
0.009667968749999999
0.009667968749999999
0.0064453125
0.008056640625
0.004833984374999999
0.0064453125
0.0072509765625
0.0088623046875
0.0064453125
0.0072509765625
0.009667968749999999
0.009667968749999999
0.008056640625
0.008056640625
0.008056640625
0.008056640625
0.009667968749999999
0.008056640625
0.0088623046875
0.008056640625
0.0072509765625
0.008056640625
0.0064453125
0.0088623046875
0.008056640625
0.009667968749999999
0.0088623046875
0.0088623046875
0.008056640625
0.0072509765625
0.009667968749999999
0.009667968749999999
0.0072509765625
0.008056640625
0.0056396484374999995
0.0064453125
0.0088623046875
0.0064453125
0.009667968749999999
0.009667968749999999
0.008056640625
0.0064453125
0.0072509765625
0.009667968749999999
0.008056640625
0.0088623046875
0.014501953125
0.0064453125
0.0072509765625
0.0072509765625
0.0088623046875
0.0088623046875
0.009667968749999999
0.0072509765625
0.0088623046875
0.0072509765625
0.0072509765625
0.0104736328125
0.0056396484374999995
0.009667968749999999
0.0072509765625
0.0064453125
0.009667968749999999
0.004833984374999999
0.0064453125
0.009667968749999999
0.009667968749999999
0.0104736328125
0.0056396484374999995
0.009667968749999999
0.0056396484374999995
0.0072509765625
0.0072509765625
0.0072509765625
0.008056640625
0.0088623046875
0.009667968749999999
0.008056640625
0.0088623046875
0.0088623046875
0.0056396484374999995
0.0064453125
0.008056640625
0.009667968749999999
0.008056640625
0.0088623046875
0.009667968749999999
0.008056640625
0.008056640625
0.0072509765625
0.0088623046875
0.008056640625
0.012890625
0.0088623046875
0.022558593749999998
0.0056396484374999995
0.0088623046875
0.008056640625
0.0088623046875
0.008056640625
0.008056640625
0.0072509765625
0.0072509765625
0.008056640625
0.0088623046875
0.0072509765625
0.0088623046875
0.008056640625
0.00322265625
0.009667968749999999
0.0056396484374999995
0.0056396484374999995
0.0072509765625
0.0072509765625
0.0072509765625
0.008056640625
0.008056640625
0.0088623046875
0.0072509765625
0.0064453125
0.008056640625
0.0088623046875
0.0088623046875
0.008056640625
0.0056396484374999995
0.0072509765625
0.008056640625
0.0056396484374999995
0.0064453125
0.009667968749999999
0.008056640625
0.008056640625
0.0088623046875
0.008056640625
0.0104736328125
0.0088623046875
0.0072509765625
0.0104736328125
0.0104736328125
0.008056640625
0.009667968749999999
0.0088623046875
0.0064453125
0.0088623046875
0.0072509765625
0.009667968749999999
0.0072509765625
0.0072509765625
0.0088623046875
0.009667968749999999
0.0040283203125
0.0104736328125
0.0088623046875
0.0088623046875
0.009667968749999999
0.008056640625
0.009667968749999999
0.0064453125
0.0104736328125
0.0064453125
0.0072509765625
0.008056640625
0.0064453125
0.008056640625
0.009667968749999999
0.008056640625
0.0088623046875
0.0088623046875
0.008056640625
0.009667968749999999
0.0104736328125
0.008056640625
0.0088623046875
0.008056640625
0.0088623046875
0.0072509765625
0.008056640625
0.0088623046875
0.0088623046875
0.0088623046875
0.0072509765625
0.008056640625
0.0088623046875
0.0072509765625
0.0072509765625
0.008056640625
0.004833984374999999
0.0072509765625
0.0064453125
0.008056640625
0.008056640625
0.0072509765625
0.004833984374999999
0.0072509765625
0.0088623046875
0.0072509765625
0.0088623046875
0.0104736328125
0.0024169921874999997
0.00322265625
0.0088623046875
0.009667968749999999
0.0104736328125
0.009667968749999999
0.0088623046875
0.0072509765625
0.008056640625
0.009667968749999999
0.011279296874999999
0.0056396484374999995
0.012890625
0.008056640625
0.0088623046875
0.0104736328125
0.0088623046875
0.008056640625
0.008056640625
0.0088623046875
0.011279296874999999
0.008056640625
0.009667968749999999
0.011279296874999999
0.0072509765625
0.008056640625
0.0088623046875
0.008056640625
0.008056640625
0.009667968749999999
0.008056640625
0.011279296874999999
0.009667968749999999
0.0120849609375
0.0072509765625
0.0056396484374999995
0.0056396484374999995
0.008056640625
0.0056396484374999995
0.0088623046875
0.008056640625
0.0088623046875
0.008056640625
0.0088623046875
0.0072509765625
0.008056640625
0.0104736328125
0.0088623046875
0.0088623046875
0.0064453125
0.0088623046875
0.0072509765625
0.008056640625
0.009667968749999999
0.0064453125
0.0064453125
0.014501953125
0.0104736328125
0.009667968749999999
0.0088623046875
0.011279296874999999
0.0072509765625
0.0088623046875
0.0088623046875
0.009667968749999999
0.0088623046875
0.009667968749999999
0.008056640625
0.011279296874999999
0.0056396484374999995
0.0088623046875
0.0104736328125
0.0072509765625
0.008056640625
0.008056640625
0.008056640625
0.0088623046875
0.008056640625
0.0088623046875
0.008056640625
0.0072509765625
0.009667968749999999
0.0088623046875
0.008056640625
0.0088623046875
0.0056396484374999995
0.0072509765625
0.0088623046875
0.0088623046875
0.009667968749999999
0.011279296874999999
0.0072509765625
0.0072509765625
0.0072509765625
0.0072509765625
0.0088623046875
0.0088623046875
0.0072509765625
0.008056640625
0.0064453125
0.009667968749999999
0.009667968749999999
0.0064453125
0.0120849609375
0.0056396484374999995
0.008056640625
0.0088623046875
0.0088623046875
0.009667968749999999
0.008056640625
0.008056640625
0.008056640625
0.0064453125
0.0072509765625
0.0088623046875
0.0072509765625
0.004833984374999999
0.0088623046875
0.008056640625
0.009667968749999999
0.0072509765625
0.0040283203125
0.0088623046875
0.0088623046875
0.0104736328125
0.009667968749999999
0.0088623046875
0.011279296874999999
0.008056640625
0.0072509765625
0.008056640625
0.0064453125
0.0088623046875
0.009667968749999999
0.0072509765625
0.009667968749999999
0.0088623046875
0.0072509765625
0.008056640625
0.008056640625
0.0088623046875
0.008056640625
0.008056640625
0.0072509765625
0.0056396484374999995
0.0088623046875
0.008056640625
0.0072509765625
0.0064453125
0.0072509765625
0.009667968749999999
0.0088623046875
0.011279296874999999
0.0088623046875
0.0072509765625
0.0088623046875
0.004833984374999999
0.008056640625
0.008056640625
0.0088623046875
0.0072509765625
0.008056640625
0.009667968749999999
0.0088623046875
0.008056640625
0.0064453125
0.012890625
0.0072509765625
0.013696289062499999
0.008056640625
0.0088623046875
0.008056640625
0.008056640625
0.008056640625
0.0088623046875
0.0072509765625
0.0056396484374999995
0.0104736328125
0.0064453125
0.0072509765625
0.0056396484374999995
0.008056640625
0.008056640625
0.0056396484374999995
0.0088623046875
0.0056396484374999995
0.009667968749999999
0.0104736328125
0.008056640625
0.008056640625
0.008056640625
0.008056640625
0.009667968749999999
0.0088623046875
0.0088623046875
0.0072509765625
0.0072509765625
0.0088623046875
0.0064453125
0.0072509765625
0.009667968749999999
0.0064453125
0.0072509765625
0.008056640625
0.011279296874999999
0.008056640625
0.0088623046875
0.0064453125
0.0120849609375
0.009667968749999999
0.008056640625
0.009667968749999999
0.0088623046875
0.011279296874999999
0.008056640625
0.0088623046875
0.0064453125
0.0072509765625
0.009667968749999999
0.0064453125
0.0088623046875
0.0088623046875
0.008056640625
0.0072509765625
0.009667968749999999
0.0072509765625
0.008056640625
0.0072509765625
0.011279296874999999
0.008056640625
0.0072509765625
0.0088623046875
0.008056640625
0.0088623046875
0.008056640625
0.0088623046875
0.0088623046875
0.008056640625
0.008056640625
0.004833984374999999
0.0104736328125
0.0056396484374999995
0.008056640625
0.0120849609375
0.0088623046875
0.0088623046875
0.0064453125
0.0088623046875
0.0072509765625
0.0088623046875
0.009667968749999999
0.0072509765625
0.008056640625
0.008056640625
0.008056640625
0.0088623046875
0.0088623046875
0.0072509765625
0.008056640625
0.0088623046875
0.015307617187499999
0.0104736328125
0.008056640625
0.008056640625
0.008056640625
0.008056640625
0.008056640625
0.008056640625
0.0064453125
0.008056640625
0.0120849609375
0.0064453125
0.008056640625
0.0072509765625
0.0064453125
0.009667968749999999
0.0088623046875
0.0088623046875
0.011279296874999999
0.0088623046875
0.0088623046875
0.0088623046875
0.008056640625
0.0088623046875
0.0088623046875
0.0064453125
0.0040283203125
0.008056640625
0.008056640625
0.0072509765625
0.0072509765625
0.008056640625
0.0088623046875
0.0120849609375
0.008056640625
0.0104736328125
0.0064453125
0.0072509765625
0.009667968749999999
0.008056640625
0.0064453125
0.0072509765625
0.008056640625
0.0064453125
0.008056640625
0.008056640625
0.0104736328125
0.0072509765625
0.0088623046875
0.0088623046875
0.0104736328125
0.0088623046875
0.0104736328125
0.0064453125
0.0072509765625
0.0088623046875
0.0056396484374999995
0.011279296874999999
0.0072509765625
0.0088623046875
0.0088623046875
0.0104736328125
0.0072509765625
0.008056640625
0.008056640625
0.008056640625
0.0072509765625
0.0064453125
0.0064453125
0.0072509765625
0.008056640625
0.0088623046875
0.0072509765625
0.008056640625
0.0064453125
0.0088623046875
0.0064453125
0.0088623046875
0.0072509765625
0.0072509765625
0.0064453125
0.0064453125
0.0064453125
0.008056640625
0.0104736328125
0.0064453125
0.0088623046875
0.0088623046875
0.008056640625
0.0072509765625
0.008056640625
0.0072509765625
0.008056640625
0.011279296874999999
0.0072509765625
0.008056640625
0.0056396484374999995
0.0064453125
0.008056640625
0.0072509765625
0.008056640625
0.011279296874999999
0.008056640625
0.011279296874999999
0.008056640625
0.0104736328125
0.008056640625
0.0072509765625
0.0072509765625
0.0056396484374999995
0.009667968749999999
0.008056640625
0.0104736328125
0.0064453125
0.0088623046875
0.009667968749999999
0.0088623046875
0.0088623046875
0.0072509765625
0.0088623046875
0.0064453125
0.0104736328125
0.0088623046875
0.009667968749999999
0.0064453125
0.0088623046875
0.009667968749999999
0.008056640625
0.0088623046875
0.008056640625
0.009667968749999999
0.008056640625
0.0064453125
0.009667968749999999
0.008056640625
0.00322265625
0.008056640625
0.008056640625
0.0088623046875
0.008056640625
0.0072509765625
0.0072509765625
0.0072509765625
0.0072509765625
0.0088623046875
0.008056640625
0.0120849609375
0.0072509765625
0.0072509765625
0.0056396484374999995
0.0088623046875
0.0088623046875
0.009667968749999999
0.0088623046875
0.008056640625
0.009667968749999999
0.008056640625
0.008056640625
0.009667968749999999
0.0104736328125
0.009667968749999999
0.0072509765625
0.008056640625
0.008056640625
0.008056640625
0.008056640625
0.0088623046875
0.0064453125
0.009667968749999999
0.008056640625
0.0088623046875
0.008056640625
0.009667968749999999
0.009667968749999999
0.008056640625
0.008056640625
0.0088623046875
0.009667968749999999
0.0072509765625
0.0056396484374999995
0.0072509765625
0.0072509765625
0.008056640625
0.0088623046875
0.0064453125
0.0088623046875
0.008056640625
0.0104736328125
0.013696289062499999
0.0072509765625
0.0088623046875
0.008056640625
0.0056396484374999995
0.008056640625
0.01611328125
0.008056640625
0.0072509765625
0.008056640625
0.008056640625
0.008056640625
0.008056640625
0.009667968749999999
0.0088623046875
0.0088623046875
0.009667968749999999
0.009667968749999999
0.0088623046875
0.0088623046875
0.008056640625
0.008056640625
0.0088623046875
0.0072509765625
0.0088623046875
0.0072509765625
0.008056640625
0.004833984374999999
0.0072509765625
0.0056396484374999995
0.0064453125
0.0064453125
0.0088623046875
0.008056640625
0.004833984374999999
0.0088623046875
0.0064453125
0.0072509765625
0.009667968749999999
0.0056396484374999995
0.0072509765625
0.011279296874999999
0.0072509765625
0.009667968749999999
0.009667968749999999
0.0088623046875
0.0072509765625
0.008056640625
0.0088623046875
0.0064453125
0.0056396484374999995
0.009667968749999999
0.0088623046875
0.0064453125
0.0088623046875
0.0088623046875
0.0088623046875
0.0064453125
0.0088623046875
0.009667968749999999
0.008056640625
0.0072509765625
0.009667968749999999
0.0088623046875
0.008056640625
0.0064453125
0.011279296874999999
0.0056396484374999995
0.0088623046875
0.0104736328125
0.008056640625
0.0072509765625
0.008056640625
0.0072509765625
0.0056396484374999995
0.0072509765625
0.008056640625
0.0088623046875
0.0104736328125
0.0088623046875
0.0104736328125
0.008056640625
0.011279296874999999
0.0104736328125
0.0104736328125
0.0088623046875
0.0088623046875
0.0064453125
0.008056640625
0.0072509765625
0.009667968749999999
0.004833984374999999
0.0088623046875
0.00322265625
0.0120849609375
0.0056396484374999995
0.004833984374999999
0.0064453125
0.008056640625
0.008056640625
0.0088623046875
0.0072509765625
0.0088623046875
0.008056640625
0.0104736328125
0.0088623046875
0.0072509765625
0.0072509765625
0.008056640625
0.008056640625
0.008056640625
0.0056396484374999995
0.0088623046875
0.009667968749999999
0.008056640625
0.0088623046875
0.008056640625
0.0056396484374999995
0.008056640625
0.0072509765625
0.008056640625
0.0072509765625
0.0088623046875
0.0104736328125
0.008056640625
0.0104736328125
0.0040283203125
0.009667968749999999
0.0088623046875
0.008056640625
0.0056396484374999995
0.0088623046875
0.0
0.004833984374999999
0.0072509765625
0.008056640625
0.008056640625
0.008056640625
0.0064453125
0.0056396484374999995
0.008056640625
0.0088623046875
0.0064453125
0.0064453125
0.0064453125
0.008056640625
0.0104736328125
0.0088623046875
0.0088623046875
0.0072509765625
0.0088623046875
0.0056396484374999995
0.0104736328125
0.008056640625
0.008056640625
0.0088623046875
0.0072509765625
0.0088623046875
0.0072509765625
0.0088623046875
0.009667968749999999
0.009667968749999999
0.0072509765625
0.0064453125
0.0072509765625
0.009667968749999999
0.008056640625
0.0056396484374999995
0.0104736328125
0.008056640625
0.0064453125
0.0056396484374999995
0.008056640625
0.0056396484374999995
0.0072509765625
0.008056640625
0.0088623046875
0.008056640625
0.0088623046875
0.009667968749999999
0.0104736328125
0.008056640625
0.0088623046875
0.0072509765625
0.008056640625
0.0064453125
0.009667968749999999
0.0072509765625
0.0104736328125
0.0056396484374999995
0.008056640625
0.0072509765625
0.009667968749999999
0.008056640625
0.0104736328125
0.0072509765625
0.008056640625
0.008056640625
0.009667968749999999
0.0088623046875
0.0088623046875
0.0088623046875
0.0088623046875
0.0088623046875
0.0088623046875
0.0072509765625
0.0056396484374999995
0.0072509765625
0.0104736328125
0.0064453125
0.008056640625
0.0088623046875
0.0064453125
0.0088623046875
0.0072509765625
0.0072509765625
0.008056640625
0.0104736328125
0.0072509765625
0.009667968749999999
0.0072509765625
0.0072509765625
0.0088623046875
0.0072509765625
0.008056640625
0.008056640625
0.008056640625
0.0104736328125
0.0064453125
0.008056640625
0.009667968749999999
0.008056640625
0.0088623046875
0.0088623046875
0.0072509765625
0.008056640625
0.0064453125
0.008056640625
0.0064453125
0.008056640625
0.008056640625
0.0072509765625
0.011279296874999999
0.0104736328125
0.008056640625
0.0072509765625
0.0064453125
0.008056640625
0.008056640625
0.009667968749999999
0.0104736328125
0.009667968749999999
0.0104736328125
0.0056396484374999995
0.0104736328125
0.009667968749999999
0.0072509765625
0.0088623046875
0.008056640625
0.0088623046875
0.0104736328125
0.0104736328125
0.009667968749999999
0.0088623046875
0.0056396484374999995
0.008056640625
0.008056640625
0.0072509765625
0.0064453125
0.0088623046875
0.0056396484374999995
0.0072509765625
0.009667968749999999
0.0104736328125
0.0072509765625
0.0056396484374999995
0.0088623046875
0.008056640625
0.0088623046875
0.009667968749999999
0.0072509765625
0.008056640625
0.008056640625
0.008056640625
0.0072509765625
0.0088623046875
0.008056640625
0.004833984374999999
0.0064453125
0.0064453125
0.0104736328125
0.0064453125
0.009667968749999999
0.0088623046875
0.0072509765625
0.0088623046875
0.0088623046875
0.0104736328125
0.0056396484374999995
0.0088623046875
0.004833984374999999
0.0072509765625
0.0072509765625
0.0064453125
0.0088623046875
0.0088623046875
0.0088623046875
0.011279296874999999
0.0064453125
0.004833984374999999
0.0088623046875
0.0064453125
0.0056396484374999995
0.0088623046875
0.0088623046875
0.0120849609375
0.0072509765625
0.0088623046875
0.0088623046875
0.008056640625
0.0072509765625
0.008056640625
0.0064453125
0.012890625
0.0072509765625
0.0072509765625
0.0088623046875
0.0056396484374999995
0.0088623046875
0.014501953125
0.0120849609375
0.008056640625
0.009667968749999999
0.0072509765625
0.008056640625
0.0072509765625
0.0088623046875
0.0088623046875
0.009667968749999999
0.0104736328125
0.008056640625
0.0104736328125
0.0072509765625
0.008056640625
0.0072509765625
0.008056640625
0.008056640625
0.0120849609375
0.008056640625
0.0056396484374999995
0.0088623046875
0.008056640625
0.0072509765625
0.0072509765625
0.011279296874999999
0.008056640625
0.0104736328125
0.008056640625
0.0072509765625
0.0104736328125
0.0040283203125
0.0072509765625
0.0072509765625
0.0072509765625
0.0088623046875
0.008056640625
0.008056640625
0.0064453125
0.008056640625
0.004833984374999999
0.0072509765625
0.0088623046875
0.0088623046875
0.008056640625
0.0072509765625
0.0072509765625
0.009667968749999999
0.008056640625
0.0064453125
0.0104736328125
0.011279296874999999
0.0088623046875
0.0104736328125
0.008056640625
0.009667968749999999
0.0064453125
0.008056640625
0.004833984374999999
0.0088623046875
0.009667968749999999
0.008056640625
0.0072509765625
0.0072509765625
0.0064453125
0.0088623046875
0.0088623046875
0.008056640625
0.0104736328125
0.008056640625
0.008056640625
0.008056640625
0.0088623046875
0.008056640625
0.008056640625
0.0072509765625
0.009667968749999999
0.0064453125
0.0088623046875
0.0072509765625
0.0088623046875
0.008056640625
0.008056640625
0.0104736328125
0.008056640625
0.0104736328125
0.008056640625
0.0088623046875
0.0064453125
0.0088623046875
0.008056640625
0.0064453125
0.008056640625
0.009667968749999999
0.009667968749999999
0.0104736328125
0.008056640625
0.0088623046875
0.0088623046875
0.008056640625
0.0088623046875
0.0072509765625
0.008056640625
0.0064453125
0.0088623046875
0.009667968749999999
0.0088623046875
0.008056640625
0.0104736328125
0.0088623046875
0.008056640625
0.0088623046875
0.0072509765625
0.0088623046875
0.0088623046875
0.0088623046875
0.0088623046875
0.0088623046875
0.0088623046875
0.0072509765625
0.0056396484374999995
0.009667968749999999
0.008056640625
0.008056640625
0.0088623046875
0.0056396484374999995
0.008056640625
0.0088623046875
0.0088623046875
0.008056640625
0.0120849609375
0.008056640625
0.008056640625
0.009667968749999999
0.0104736328125
0.0056396484374999995
0.0104736328125
0.0104736328125
0.008056640625
0.0072509765625
0.008056640625
0.0104736328125
0.008056640625
0.008056640625
0.0064453125
0.008056640625
0.0072509765625
0.0088623046875
0.009667968749999999
0.0088623046875
0.0072509765625
0.0120849609375
0.009667968749999999
0.008056640625
0.008056640625
0.008056640625
0.0088623046875
0.0056396484374999995
0.0064453125
0.0088623046875
0.0088623046875
0.011279296874999999
0.008056640625
0.0064453125
0.0056396484374999995
0.0088623046875
0.0088623046875
0.008056640625
0.008056640625
0.0088623046875
0.0088623046875
0.0088623046875
0.008056640625
0.008056640625
0.008056640625
0.0072509765625
0.009667968749999999
0.0088623046875
0.0088623046875
0.009667968749999999
0.009667968749999999
0.011279296874999999
0.0072509765625
0.0040283203125
0.0088623046875
0.0088623046875
0.008056640625
0.009667968749999999
0.0088623046875
0.0088623046875
0.0088623046875
0.0088623046875
0.008056640625
0.0104736328125
