1.5347900390625
1.7362060546875
1.764404296875
1.5944091796875
1.5654052734375
1.5202880859374999
1.5033691406249998
1.47275390625
1.4195800781249999
1.3913818359374999
1.442138671875
1.50498046875
1.5162597656249999
1.5283447265624999
1.5621826171875
1.5355957031249998
1.546875
1.5412353515625
1.5799072265624998
1.5847412109374999
1.5662109375
1.5444580078124999
1.3341796874999998
1.3833251953124999
1.5557373046874998
1.53720703125
1.5702392578125
1.574267578125
1.667724609375
1.8457763671874998
1.7128417968749998
1.622607421875
1.5831298828125
1.5605712890624999
1.5750732421875
1.5380126953125
1.5887695312499999
1.5726562499999999
1.5517089843749998
1.5412353515625
1.5315673828124998
1.5412353515625
1.5565429687499999
1.71123046875
1.751513671875
1.6201904296874998
1.5686279296874999
1.5702392578125
1.5275390624999998
1.4373046875
1.3897705078125
1.3543212890624998
1.4381103515625
1.4912841796874998
1.5202880859374999
1.525927734375
1.5758789062499998
1.5807128906249999
1.5476806640624998
1.5396240234374998
1.56943359375
1.5670166015625
1.56298828125
1.5645996093749999
1.3390136718749999
1.287451171875
1.5218994140625
1.5533203125
1.5428466796875
1.6290527343749999
1.66611328125
1.880419921875
1.7603759765625
1.609716796875
1.5718505859374998
1.538818359375
1.56943359375
1.554931640625
1.5557373046874998
1.5831298828125
1.5839355468749998
1.5678222656249998
1.5686279296874999
1.5404296874999999
1.5235107421874998
1.4864501953125
1.78857421875
1.651611328125
1.587158203125
1.5589599609375
1.5138427734375
1.46953125
1.3768798828125
1.3688232421875
1.426025390625
1.4993408203124998
1.5331787109375
1.5573486328125
1.5476806640624998
1.5436523437499998
1.5323730468749999
1.5355957031249998
1.4518066406249999
1.5476806640624998
1.5476806640624998
1.5573486328125
1.405078125
1.297119140625
1.49853515625
1.5573486328125
1.5428466796875
1.5726562499999999
1.6056884765625
1.880419921875
1.77890625
1.6749755859375
1.5944091796875
1.5565429687499999
1.56943359375
1.585546875
1.53076171875
1.529150390625
1.5541259765625
1.5509033203125
1.545263671875
1.529150390625
1.542041015625
1.545263671875
1.848193359375
1.625830078125
1.5927978515624999
1.55009765625
1.5847412109374999
1.4703369140625
1.3905761718749998
1.393798828125
1.4518066406249999
1.4945068359375
1.5017578125
1.5251220703125
1.5347900390625
1.5758789062499998
1.5557373046874998
1.5750732421875
1.52109375
1.5589599609375
1.5750732421875
1.5758789062499998
1.546875
1.2866455078124999
1.456640625
1.5283447265624999
1.5637939453124998
1.60166015625
1.60166015625
1.7668212890625
1.77568359375
1.6862548828125
1.60166015625
1.5589599609375
1.5645996093749999
1.5444580078124999
1.5299560546875
1.5283447265624999
1.5678222656249998
1.56943359375
1.558154296875
1.5347900390625
1.554931640625
1.5605712890624999
1.8473876953125
1.72412109375
1.5919921874999998
1.5879638671874998
1.5082031249999999
1.4888671875
1.3583496093749998
1.368017578125
1.4107177734374998
1.4767822265625
1.5001464843749999
1.5218994140625
1.5243164062499999
1.5766845703124999
1.5839355468749998
1.5517089843749998
1.533984375
1.5597656249999998
1.5605712890624999
1.5380126953125
1.5517089843749998
1.239111328125
1.40185546875
1.5573486328125
1.5662109375
1.5807128906249999
1.6185791015625
1.7499023437499999
1.8361083984375
1.6572509765624999
1.606494140625
1.5791015625
1.5573486328125
1.5791015625
1.5323730468749999
1.5525146484374999
1.5799072265624998
1.5525146484374999
1.5887695312499999
1.542041015625
1.542041015625
1.545263671875
1.7410400390624998
1.6765869140624998
1.5847412109374999
1.5726562499999999
1.5275390624999998
1.5146484375
1.4187744140624998
1.3913818359374999
1.416357421875
1.464697265625
1.477587890625
1.5235107421874998
1.5243164062499999
1.5436523437499998
1.5654052734375
1.5678222656249998
1.5347900390625
1.5597656249999998
1.554931640625
1.5645996093749999
1.5509033203125
1.2399169921875
1.41796875
1.525927734375
1.561376953125
1.5734619140625
1.590380859375
1.7176757812499999
1.8506103515624999
1.7184814453125
1.6185791015625
1.5919921874999998
1.5492919921875
1.5525146484374999
1.5662109375
1.558154296875
1.5678222656249998
1.561376953125
1.5492919921875
1.5597656249999998
1.5557373046874998
1.53076171875
1.7088134765624998
1.7611816406249998
1.619384765625
1.5879638671874998
1.5146484375
1.5001464843749999
1.44052734375
1.4091064453125
1.3897705078125
1.4413330078125
1.493701171875
1.509814453125
1.5484863281249999
1.5758789062499998
1.56298828125
1.5541259765625
1.5750732421875
1.5678222656249998
1.5243164062499999
1.538818359375
1.5404296874999999
1.329345703125
1.3857421875
1.5243164062499999
1.5412353515625
1.577490234375
1.6153564453125
1.6459716796875
1.8626953124999999
1.7531249999999998
1.6564453124999998
1.5766845703124999
1.53076171875
1.5436523437499998
1.5460693359375
1.5396240234374998
1.56298828125
1.5621826171875
1.561376953125
1.545263671875
1.5654052734375
1.5444580078124999
1.7055908203124999
1.7716552734375
1.6451660156249999
1.5984375
1.5541259765625
1.50498046875
1.4848388671875
1.40185546875
1.380908203125
1.4316650390624999
1.4800048828124999
1.493701171875
1.525927734375
1.5315673828124998
1.55009765625
1.5597656249999998
1.561376953125
1.533984375
1.554931640625
1.5396240234374998
1.5380126953125
1.3921875
1.32451171875
1.506591796875
1.525927734375
1.56943359375
1.6000488281249998
1.6483886718749998
1.8538330078124998
1.7732666015624998
1.6218017578125
1.5968261718749999
1.5557373046874998
1.5380126953125
1.5347900390625
1.558154296875
1.5541259765625
1.545263671875
1.5428466796875
1.5541259765625
1.5645996093749999
1.5323730468749999
1.546875
1.780517578125
1.6177734375
1.5718505859374998
1.5476806640624998
1.525927734375
1.4920898437499999
1.4107177734374998
1.3768798828125
1.41796875
1.5057861328125
1.5565429687499999
1.5267333984375
1.5364013671874999
1.55009765625
1.5396240234374998
1.542041015625
1.5678222656249998
1.5251220703125
1.5525146484374999
1.53720703125
1.4074951171874999
1.31162109375
1.51787109375
1.5525146484374999
1.5863525390625
1.611328125
1.6169677734374999
1.861083984375
1.7579589843749999
1.6379150390625
1.58232421875
1.558154296875
1.51787109375
1.5396240234374998
1.5525146484374999
1.52109375
1.5484863281249999
1.522705078125
1.5404296874999999
1.5380126953125
1.5678222656249998
1.5670166015625
1.8409423828125
1.6910888671875
1.590380859375
1.5718505859374998
1.5444580078124999
1.4711425781249998
1.353515625
1.3728515625
1.4622802734375
1.5162597656249999
1.5090087890625
1.5106201171875
1.5218994140625
1.5686279296874999
1.5654052734375
1.5492919921875
1.5509033203125
1.5484863281249999
1.5654052734375
1.5766845703124999
1.5662109375
1.2383056640624999
1.4711425781249998
1.5533203125
1.5243164062499999
1.606494140625
1.6483886718749998
1.7466796875
1.8014648437499998
1.6572509765624999
1.6008544921874999
1.5637939453124998
1.5323730468749999
1.5589599609375
1.542041015625
1.5557373046874998
1.5686279296874999
1.5283447265624999
1.5396240234374998
1.546875
1.5541259765625
1.5541259765625
1.844970703125
1.6927001953124998
1.6089111328124999
1.538818359375
1.5299560546875
1.50498046875
1.40185546875
1.3792968749999999
1.4316650390624999
1.4671142578124998
1.5017578125
1.52109375
1.5138427734375
1.5355957031249998
1.5670166015625
1.5509033203125
1.554931640625
1.5750732421875
1.56943359375
1.5492919921875
1.5887695312499999
1.2576416015624998
1.4026611328124998
1.546875
1.561376953125
1.561376953125
1.6072998046875
1.7217041015624999
1.8280517578125
1.71123046875
1.58232421875
1.5678222656249998
1.5758789062499998
1.5541259765625
1.5476806640624998
1.5557373046874998
1.558154296875
1.5637939453124998
1.5782958984375
1.5799072265624998
1.538818359375
1.558154296875
1.7781005859374999
1.690283203125
1.58232421875
1.5911865234375
1.5202880859374999
1.4848388671875
1.456640625
1.384130859375
1.3929931640625
1.4356933593749999
1.4816162109375
1.5202880859374999
1.5162597656249999
1.5404296874999999
1.56943359375
1.5726562499999999
1.58232421875
1.593603515625
1.5525146484374999
1.5509033203125
1.5283447265624999
1.2262207031249999
1.4147460937499998
1.522705078125
1.52109375
1.58232421875
1.6290527343749999
1.67578125
1.85947265625
1.69189453125
1.6290527343749999
1.5815185546875
1.5799072265624998
1.5863525390625
1.529150390625
1.5533203125
1.542041015625
1.53076171875
1.56943359375
1.56943359375
1.5218994140625
1.5444580078124999
1.754736328125
1.7990478515625
1.58232421875
1.5525146484374999
1.5364013671874999
1.4864501953125
1.458251953125
1.42119140625
1.4219970703125
1.464697265625
1.4703369140625
1.5218994140625
1.52109375
1.53076171875
1.5766845703124999
1.5662109375
1.5565429687499999
1.538818359375
1.5718505859374998
1.5557373046874998
1.5517089843749998
1.345458984375
1.3825195312499998
1.506591796875
1.5347900390625
1.587158203125
1.6048828124999999
1.6564453124999998
1.893310546875
1.735400390625
1.6620849609375
1.5750732421875
1.5323730468749999
1.53076171875
1.5654052734375
1.5758789062499998
1.56298828125
1.5670166015625
1.522705078125
1.5186767578125
1.5509033203125
1.574267578125
1.7289550781249998
1.8022705078124999
1.6209960937499999
1.5726562499999999
1.533984375
1.5275390624999998
1.47275390625
1.3857421875
1.3664062499999998
1.4300537109375
1.4679199218749999
1.5202880859374999
1.51787109375
1.5565429687499999
1.5597656249999998
1.5573486328125
1.554931640625
1.5750732421875
1.55009765625
1.554931640625
1.5492919921875
1.38896484375
1.340625
1.51787109375
1.5202880859374999
1.5541259765625
1.5984375
1.6685302734374998
1.8925048828125
1.7877685546875
1.6443603515624998
1.5799072265624998
1.558154296875
1.5428466796875
1.561376953125
1.5235107421874998
1.5597656249999998
1.5605712890624999
1.5476806640624998
1.5476806640624998
1.5565429687499999
1.5654052734375
1.545263671875
1.77568359375
1.6290527343749999
1.6040771484374998
1.5662109375
1.5218994140625
1.4888671875
1.3639892578125
1.3728515625
1.42119140625
1.45341796875
1.5218994140625
1.51787109375
1.5162597656249999
1.5436523437499998
1.571044921875
1.5726562499999999
1.5791015625
1.5702392578125
1.5645996093749999
1.5315673828124998
1.4252197265625
1.2866455078124999
1.4783935546875
1.5476806640624998
1.5799072265624998
1.5815185546875
1.6089111328124999
1.8062988281249999
1.7684326171875
1.690283203125
1.6000488281249998
1.5235107421874998
1.5364013671874999
1.574267578125
1.5927978515624999
1.574267578125
1.5766845703124999
1.53076171875
1.5396240234374998
1.5428466796875
1.538818359375
1.561376953125
1.8296630859374998
1.6951171875
1.5944091796875
1.5476806640624998
1.4896728515625
1.4848388671875
1.380908203125
1.3954101562499999
1.4364990234375
1.4920898437499999
1.5114257812499998
1.529150390625
1.538818359375
1.5492919921875
1.5541259765625
1.577490234375
1.577490234375
1.5525146484374999
1.546875
1.533984375
1.5492919921875
1.2157470703125
1.4872558593749998
1.545263671875
1.5541259765625
1.59521484375
1.6403320312499998
1.7668212890625
1.8071044921875
1.6540283203125
1.5919921874999998
1.55009765625
1.574267578125
1.5766845703124999
1.5484863281249999
1.5444580078124999
1.5380126953125
1.5380126953125
1.5476806640624998
1.5766845703124999
1.545263671875
1.5267333984375
1.8409423828125
1.6822265625
1.6056884765625
1.577490234375
1.5114257812499998
1.4896728515625
1.393798828125
1.4034667968749999
1.4219970703125
1.5162597656249999
1.5082031249999999
1.5243164062499999
1.4864501953125
1.525927734375
1.533984375
1.5347900390625
1.5621826171875
1.5460693359375
1.5645996093749999
1.5476806640624998
1.5492919921875
1.2455566406249998
1.4252197265625
1.533984375
1.5299560546875
1.574267578125
1.6008544921874999
1.706396484375
1.867529296875
1.6967285156249998
1.5879638671874998
1.5484863281249999
1.5863525390625
1.587158203125
1.5887695312499999
1.5863525390625
1.56943359375
1.5484863281249999
1.5492919921875
1.5476806640624998
1.55009765625
1.5484863281249999
1.7611816406249998
1.6991455078125
1.60166015625
1.5726562499999999
1.53720703125
1.4920898437499999
1.4526123046875
1.3607666015625
1.3591552734374999
1.4308593749999998
1.456640625
1.4920898437499999
1.5138427734375
1.5428466796875
1.587158203125
1.6129394531249999
1.5863525390625
1.590380859375
1.5919921874999998
1.5412353515625
1.561376953125
1.2544189453124999
1.3744628906249998
1.4928955078125
1.522705078125
1.5621826171875
1.61455078125
1.635498046875
1.8739746093749998
1.719287109375
1.611328125
1.546875
1.5492919921875
1.5654052734375
1.5799072265624998
1.593603515625
1.5791015625
1.5436523437499998
1.5347900390625
1.5396240234374998
1.55009765625
1.5428466796875
1.72734375
1.7877685546875
1.5839355468749998
1.571044921875
1.5444580078124999
1.4953124999999998
1.4219970703125
1.3849365234375
1.4010498046875
1.4872558593749998
1.5033691406249998
1.5146484375
1.5057861328125
1.5517089843749998
1.587158203125
1.5645996093749999
1.5645996093749999
1.5637939453124998
1.533984375
1.545263671875
1.5718505859374998
1.3728515625
1.3817138671875
1.5162597656249999
1.554931640625
1.574267578125
1.609716796875
1.6395263671875
1.8707519531249999
1.706396484375
1.6314697265625
1.574267578125
1.5484863281249999
1.5702392578125
1.5654052734375
1.5637939453124998
1.5758789062499998
1.5686279296874999
1.546875
1.5283447265624999
1.5428466796875
1.5404296874999999
1.6765869140624998
1.7901855468749999
1.5992431640625
1.5637939453124998
1.5412353515625
1.5017578125
1.48564453125
1.4066894531249998
1.409912109375
1.480810546875
1.5122314453124999
1.53720703125
1.5492919921875
1.525927734375
1.577490234375
1.5138427734375
1.545263671875
1.587158203125
1.571044921875
1.5484863281249999
1.554931640625
1.3881591796875
1.2826171874999999
1.4977294921875
1.5621826171875
1.5533203125
1.5533203125
1.6556396484375
1.8683349609375
1.80791015625
1.6693359374999999
1.5847412109374999
1.5380126953125
1.5404296874999999
1.5879638671874998
1.571044921875
1.5791015625
1.53076171875
1.525927734375
1.4953124999999998
1.5404296874999999
1.5758789062499998
1.5436523437499998
1.786962890625
1.6234130859375
1.5791015625
1.538818359375
1.4888671875
1.4961181640624999
1.3921875
1.4091064453125
1.4767822265625
1.5138427734375
1.525927734375
1.5476806640624998
1.5202880859374999
1.5315673828124998
1.5492919921875
1.558154296875
1.5218994140625
1.51787109375
1.52109375
1.5428466796875
1.474365234375
1.2737548828124998
1.4477783203124999
1.5283447265624999
1.5565429687499999
1.6072998046875
1.651611328125
1.8465820312499999
1.803076171875
1.6604736328124998
1.5839355468749998
1.561376953125
1.529150390625
1.55009765625
1.5194824218749998
1.5396240234374998
1.554931640625
1.5380126953125
1.587158203125
1.6072998046875
1.5718505859374998
1.525927734375
1.82724609375
1.654833984375
1.558154296875
1.5605712890624999
1.5138427734375
1.477587890625
1.3736572265625
1.351904296875
1.3978271484375
1.482421875
1.509814453125
1.546875
1.5436523437499998
1.5605712890624999
1.525927734375
1.5525146484374999
1.6411376953124999
1.6081054687499998
1.5557373046874998
1.5758789062499998
1.554931640625
1.1931884765625
1.4123291015625
1.5025634765625
1.5517089843749998
1.5807128906249999
1.6105224609375
1.754736328125
1.8715576171875
1.738623046875
1.63388671875
1.5662109375
1.5170654296875
1.522705078125
1.538818359375
1.5807128906249999
1.5960205078124998
1.6153564453125
1.5533203125
1.571044921875
1.55009765625
1.5315673828124998
1.8892822265625
1.72734375
1.6250244140624999
1.5573486328125
1.5202880859374999
1.496923828125
1.3752685546874999
1.3631835937499999
1.35673828125
1.4228027343749998
1.4928955078125
1.5315673828124998
1.5541259765625
1.5492919921875
1.5984375
1.58232421875
1.5347900390625
1.506591796875
1.496923828125
1.53720703125
1.5686279296874999
1.152099609375
1.3583496093749998
1.5565429687499999
1.56943359375
1.6588623046875
1.6669189453125
1.7418457031249999
1.9142578124999998
1.7821289062499999
1.6806152343749998
1.6008544921874999
1.55009765625
1.56943359375
1.538818359375
1.5509033203125
1.5670166015625
1.5525146484374999
1.5033691406249998
1.50498046875
1.509814453125
1.554931640625
1.7821289062499999
1.7595703125
1.6242187499999998
1.622607421875
1.56943359375
1.4920898437499999
1.4139404296875
1.2850341796875
1.36962890625
1.4381103515625
1.4711425781249998
1.496923828125
1.48564453125
1.5597656249999998
1.5299560546875
1.5283447265624999
1.5525146484374999
1.5380126953125
1.5807128906249999
1.5662109375
1.5404296874999999
1.0658935546875
1.2205810546875
1.4034667968749999
1.4542236328125
1.5404296874999999
1.6024658203125
1.67578125
2.0818359374999997
1.883642578125
1.72734375
1.6290527343749999
1.6250244140624999
1.603271484375
1.6024658203125
1.590380859375
1.5799072265624998
1.5718505859374998
1.4993408203124998
1.50498046875
1.58232421875
1.5122314453124999
1.7531249999999998
1.9360107421875
1.7015624999999999
1.6330810546874999
1.5750732421875
1.5154541015624998
1.3784912109374998
1.1666015625
1.1021484375
1.2383056640624999
1.3317626953125
1.4526123046875
1.5323730468749999
1.6209960937499999
1.658056640625
1.5412353515625
1.538818359375
1.522705078125
1.545263671875
1.546875
1.5509033203125
1.229443359375
1.0505859375
1.287451171875
1.3881591796875
1.4872558593749998
1.7257324218749999
1.7603759765625
2.147900390625
2.17529296875
1.9521240234375
1.7579589843749999
1.6209960937499999
1.5525146484374999
1.577490234375
1.56298828125
1.49853515625
1.4437499999999999
1.4872558593749998
1.4872558593749998
1.52109375
1.5380126953125
1.8385253906249999
2.09150390625
1.8659179687499998
1.6991455078125
1.593603515625
1.4751708984374998
1.3704345703124998
1.1279296875
0.9676025390624999
1.042529296875
1.2238037109375
1.3607666015625
1.3921875
1.4800048828124999
1.52109375
1.4413330078125
1.533984375
1.448583984375
1.4356933593749999
1.3575439453125
1.3027587890624999
0.7669921875
0.36093749999999997
0.6098876953125
0.9482666015625
1.252001953125
1.5444580078124999
1.944873046875
2.6272705078125
2.8681640625
2.505615234375
2.14306640625
1.738623046875
1.4332763671875
1.213330078125
1.126318359375
0.8113037109375
0.8290283203125
1.094091796875
1.345458984375
1.6048828124999999
1.7313720703125
1.7289550781249998
2.8053222656249996
3.0462158203125
3.0478271484375
3.04541015625
3.0470214843749996
3.0470214843749996
2.5571777343749997
1.819189453125
1.4155517578124999
1.1222900390625
0.9007324218749999
0.6614501953124999
0.5808837890624999
0.5583251953125
0.39396972656249996
0.47050781249999996
0.42861328125
0.49951171875
0.4874267578125
0.5486572265624999
0.6582275390625
0.04189453125
0.0378662109375
0.0555908203125
0.04189453125
0.038671874999999994
0.038671874999999994
0.572021484375
1.6346923828125
2.018994140625
2.254248046875
2.3114501953124997
2.4774169921875
2.5225341796875
2.62646484375
2.6675537109375
2.695751953125
2.657080078125
2.6385498046875
2.5724853515625
2.5322021484375
2.4911132812499996
3.0462158203125
3.0470214843749996
3.0478271484375
3.04541015625
3.0486328124999997
3.0486328124999997
2.4935302734375
2.0407470703125
1.6000488281249998
1.198828125
0.862060546875
0.6912597656249999
0.42136230468749997
0.3424072265625
0.42861328125
0.42619628906249996
0.427001953125
0.42861328125
0.523681640625
0.5204589843749999
0.48662109374999996
0.0443115234375
0.04189453125
0.04189453125
0.04189453125
0.041088867187499996
0.038671874999999994
0.4954833984375
1.3156494140625
1.8892822265625
2.1470947265625
2.3654296875
2.4846679687499997
2.6304931640625
2.6594970703125
2.6458007812499997
2.5821533203125
2.50400390625
2.4604980468749997
2.4202148437499997
2.39443359375
2.3452880859375
3.0043212890624997
3.0478271484375
3.050244140625
3.050244140625
3.0462158203125
3.0478271484375
2.8375488281249996
2.1229248046875
1.6177734375
1.2906738281249999
1.02158203125
0.6493652343749999
0.4809814453125
0.39638671875
0.3343505859375
0.29326171875
0.330322265625
0.2876220703125
0.265869140625
0.2698974609375
0.3029296875
0.042700195312499994
0.041088867187499996
0.04189453125
0.04189453125
0.038671874999999994
0.041088867187499996
0.15791015625
1.2890625
1.7652099609374998
2.1019775390624997
2.241357421875
2.4306884765625
2.5587890625
2.5144775390625
2.5531494140624997
2.4709716796875
2.5877929687499996
2.56201171875
2.5458984375
2.462109375
2.4468017578125
3.0462158203125
3.0470214843749996
3.0470214843749996
3.0478271484375
3.0478271484375
3.0462158203125
2.874609375
2.360595703125
1.832080078125
1.3430419921874999
1.0634765625
0.8612548828125
0.6815917968749999
0.507568359375
0.48017578125
0.40283203125
0.38107910156249997
0.3826904296875
0.3923583984375
0.45842285156249996
0.485009765625
0.038671874999999994
0.040283203125
0.045117187499999996
0.041088867187499996
0.04189453125
0.04189453125
0.042700195312499994
0.9563232421875
1.5428466796875
1.9779052734375
2.18173828125
2.26875
2.3275634765624997
2.384765625
2.4306884765625
2.4242431640624997
2.32998046875
2.360595703125
2.3710693359375
2.3267578125
2.3307861328125
2.3614013671875
3.0494384765625
3.0470214843749996
3.0494384765625
3.0470214843749996
3.0486328124999997
2.94873046875
2.425048828125
1.8224121093749999
1.4155517578124999
1.142431640625
0.8403076171874999
0.6888427734375
0.5792724609375
0.56396484375
0.35690917968749997
0.43022460937499996
0.44633789062499996
0.4833984375
0.562353515625
0.5454345703125
0.041088867187499996
0.038671874999999994
0.038671874999999994
0.04189453125
0.043505859375
0.04189453125
0.040283203125
0.8741455078125
1.545263671875
1.8981445312499998
2.1487060546875
2.34931640625
2.392822265625
2.4774169921875
2.4604980468749997
2.4322998046874997
2.4846679687499997
2.4846679687499997
2.4749999999999996
2.5499267578125
2.5007812499999997
2.4468017578125
3.0486328124999997
3.0486328124999997
3.0462158203125
3.0478271484375
3.0462158203125
3.04541015625
2.5491210937499997
2.0334960937499997
1.5863525390625
1.1867431640625
1.0505859375
0.8032470703125
0.6090820312499999
0.6485595703125
0.523681640625
0.43828124999999996
0.3923583984375
0.44553222656249997
0.451171875
0.5389892578125
0.53818359375
0.04189453125
0.041088867187499996
0.04189453125
0.04189453125
0.041088867187499996
0.045117187499999996
0.6268066406249999
1.4123291015625
1.9343994140624998
2.096337890625
2.173681640625
2.2872802734374997
2.341259765625
2.4677490234375
2.5193115234374996
2.5209228515624997
2.466943359375
2.4500244140625
2.437939453125
2.4427734375
2.4258544921875
3.0470214843749996
3.0478271484375
3.0462158203125
3.0470214843749996
3.0478271484375
3.0486328124999997
2.5724853515625
1.91748046875
1.490478515625
1.1706298828125
0.9482666015625
0.6751464843749999
0.50595703125
0.49387207031249997
0.3762451171875
0.3633544921875
0.375439453125
0.407666015625
0.48017578125
0.5180419921875
0.549462890625
0.04189453125
0.045117187499999996
0.04189453125
0.04189453125
0.041088867187499996
0.041088867187499996
0.1571044921875
1.351904296875
1.832080078125
2.11728515625
2.3227294921875
2.4121582031249997
2.4790283203124996
2.4943359375
2.4838623046875
2.4919189453125
2.4403564453124997
2.434716796875
2.4403564453124997
2.376708984375
2.31064453125
3.0486328124999997
3.0478271484375
3.0462158203125
3.0478271484375
3.0478271484375
3.04541015625
2.7771240234374996
2.2808349609375
1.72412109375
1.3365966796875
1.09248046875
0.920068359375
0.708984375
0.69609375
0.6066650390625
0.5422119140625
0.517236328125
0.5220703125
0.5357666015625
0.5647705078124999
0.5526855468749999
0.038671874999999994
0.0443115234375
0.04189453125
0.043505859375
0.0443115234375
0.045117187499999996
0.22478027343749998
1.239111328125
1.828857421875
2.1164794921875
2.263916015625
2.4065185546875
2.45888671875
2.4169921875
2.521728515625
2.4886962890624997
2.5233398437499996
2.466943359375
2.5193115234374996
2.4749999999999996
2.437939453125
2.5273681640624996
3.0486328124999997
3.0486328124999997
3.0494384765625
3.0462158203125
3.0470214843749996
3.011572265625
2.37509765625
1.8304687499999999
1.46953125
1.1786865234375
0.8193603515625
0.58974609375
0.5099853515625
0.46083984375
0.47856445312499996
0.45358886718749997
0.44794921875
0.46245117187499996
0.475341796875
0.46647949218749996
0.045117187499999996
0.041088867187499996
0.04189453125
0.042700195312499994
0.041088867187499996
0.041088867187499996
0.041088867187499996
1.036083984375
1.5662109375
1.843359375
2.1060058593749997
2.209130859375
2.34931640625
2.392822265625
2.4943359375
2.6449951171875
2.5225341796875
2.5249511718749997
2.5015869140625
2.4693603515625
2.46533203125
2.4419677734375
3.0470214843749996
3.0486328124999997
3.050244140625
3.04541015625
3.0446044921874997
2.95517578125
2.4677490234375
1.9118408203125
1.4091064453125
1.16015625
0.9192626953124999
0.7742431640624999
0.6114990234375
0.5389892578125
0.6050537109374999
0.45036621093749996
0.46083984375
0.44794921875
0.46647949218749996
0.3673828125
0.3802734375
0.043505859375
0.04189453125
0.041088867187499996
0.038671874999999994
0.04189453125
0.04189453125
0.726708984375
1.5605712890624999
2.0625
2.26875
2.4282714843749997
2.5612060546874997
2.62646484375
2.624853515625
2.642578125
2.5595947265624996
2.5483154296875
2.56845703125
2.5458984375
2.447607421875
2.4129638671875
3.0486328124999997
3.0486328124999997
3.0478271484375
3.04541015625
3.050244140625
3.04541015625
2.578125
1.95615234375
1.5807128906249999
1.264892578125
0.9128173828124999
0.7758544921874999
0.6380859375
0.562353515625
0.5583251953125
0.510791015625
0.43505859375
0.38188476562499996
0.38188476562499996
0.4004150390625
0.4648681640625
0.043505859375
0.040283203125
0.045117187499999996
0.04189453125
0.038671874999999994
0.041088867187499996
0.6163330078125
1.4107177734374998
1.8062988281249999
2.1229248046875
2.280029296875
2.405712890625
2.5491210937499997
2.60712890625
2.615185546875
2.6530517578125
2.62646484375
2.63291015625
2.60712890625
2.5265625
2.5330078124999997
3.0478271484375
3.0478271484375
3.0486328124999997
3.0470214843749996
3.0494384765625
3.050244140625
2.7175048828125
2.2268554687499997
1.7861572265624999
1.3543212890624998
1.0723388671875
0.9216796875
0.6227783203124999
0.48581542968749997
0.38188476562499996
0.31904296875
0.33676757812499997
0.33193359375
0.38349609375
0.4487548828125
0.46083984375
0.038671874999999994
0.04189453125
0.0394775390625
0.04189453125
0.037060546874999996
0.0378662109375
0.20302734374999998
1.224609375
1.8087158203125
2.0665283203125
2.164013671875
2.3130615234375
2.3726806640625
2.3775146484375
2.4290771484375
2.4613037109375
2.4322998046874997
2.479833984375
2.450830078125
2.384765625
2.334814453125
3.0478271484375
3.0470214843749996
3.0470214843749996
3.0470214843749996
3.0478271484375
3.04541015625
2.9205322265625
2.247802734375
1.7410400390624998
1.340625
1.0272216796875
0.8693115234375
0.6469482421874999
0.5309326171875
0.4890380859375
0.49790039062499997
0.38994140624999996
0.40605468749999996
0.41572265625
0.44794921875
0.485009765625
0.040283203125
0.041088867187499996
0.041088867187499996
0.041088867187499996
0.04189453125
0.0459228515625
0.17724609375
1.2979248046874998
1.7257324218749999
2.04638671875
2.30419921875
2.3887939453125
2.5007812499999997
2.5458984375
2.5491210937499997
2.7207275390624996
2.54267578125
2.5740966796875
2.5587890625
2.5450927734374997
2.534619140625
2.6860839843749997
3.0470214843749996
3.050244140625
3.0478271484375
3.050244140625
3.04541015625
2.8794433593749997
2.39443359375
1.8498046874999998
1.3108154296874999
1.0288330078124999
0.881396484375
0.62841796875
0.53173828125
0.501123046875
0.45358886718749997
0.404443359375
0.38349609375
0.42216796874999996
0.48017578125
0.49064941406249996
0.09829101562499999
0.0378662109375
0.041088867187499996
0.041088867187499996
0.04189453125
0.04189453125
0.042700195312499994
0.855615234375
1.641943359375
1.9762939453125
2.2437744140625
2.2993652343749997
2.479833984375
2.4677490234375
2.521728515625
2.66513671875
2.5144775390625
2.479833984375
2.4758056640625
2.4991699218749996
2.4290771484375
2.3887939453125
3.0494384765625
3.0470214843749996
3.04541015625
3.0462158203125
3.0470214843749996
3.0470214843749996
2.5837646484374996
2.00771484375
1.5090087890625
1.2350830078125
0.9885498046875
0.81533203125
0.5969970703124999
0.46083984375
0.510791015625
0.39316406249999997
0.3826904296875
0.4197509765625
0.4640625
0.43505859375
0.31662597656249997
0.041088867187499996
0.041088867187499996
0.042700195312499994
0.038671874999999994
0.040283203125
0.041088867187499996
0.8258056640625
1.5541259765625
1.9182861328124998
2.228466796875
2.2993652343749997
2.3154785156249997
2.373486328125
2.402490234375
2.4169921875
2.5475097656249996
2.5499267578125
2.5096435546875
2.5152832031249996
2.5386474609375
2.454052734375
3.0486328124999997
3.0478271484375
3.0478271484375
3.0494384765625
3.0494384765625
3.0478271484375
2.570068359375
2.147900390625
1.4816162109375
1.1053710937499999
0.9015380859375
0.7323486328125
0.5285156249999999
0.4761474609375
0.443115234375
0.372216796875
0.3544921875
0.33757324218749996
0.3504638671875
0.3601318359375
0.3101806640625
0.040283203125
0.041088867187499996
0.037060546874999996
0.043505859375
0.041088867187499996
0.04189453125
0.24814453125
1.2528076171875
1.8071044921875
2.0947265625
2.2429687499999997
2.4258544921875
2.4983642578125
2.5797363281249996
2.553955078125
2.5612060546874997
2.49755859375
2.4234375
2.4177978515625
2.3630126953125
2.2840576171875
3.0462158203125
3.0462158203125
3.0470214843749996
3.0494384765625
3.0486328124999997
3.0486328124999997
2.9390625
2.1060058593749997
1.6943115234375
1.364794921875
1.0143310546875
0.78955078125
0.5696044921875
0.4326416015625
0.3311279296875
0.404443359375
0.3544921875
0.356103515625
0.35771484374999996
0.38349609375
0.4318359375
0.04189453125
0.042700195312499994
0.041088867187499996
0.041088867187499996
0.041088867187499996
0.040283203125
0.29245605468749997
1.32451171875
1.8417480468749998
2.1132568359375
2.3436767578124997
2.4991699218749996
2.5757080078124996
2.6296874999999997
2.5877929687499996
2.6304931640625
2.5563720703125
2.550732421875
2.5177001953125
2.4983642578125
2.4226318359375
2.78759765625
3.0478271484375
3.0470214843749996
3.0478271484375
3.0462158203125
3.0389648437499996
2.9261718749999996
2.4226318359375
1.9013671875
1.3897705078125
1.1134277343749999
0.903955078125
0.6260009765625
0.5357666015625
0.5124023437499999
0.5470458984375
0.4890380859375
0.48259277343749996
0.5124023437499999
0.54140625
0.5953857421875
0.045117187499999996
0.04189453125
0.038671874999999994
0.0443115234375
0.0394775390625
0.038671874999999994
0.042700195312499994
0.8709228515624999
1.67900390625
1.8941162109374998
2.1213134765625
2.3195068359374997
2.4177978515625
2.4661376953125
2.5168945312499997
2.5571777343749997
2.4604980468749997
2.4451904296875
2.4363281249999997
2.410546875
2.3960449218749997
2.383154296875
3.0486328124999997
3.0470214843749996
3.0486328124999997
3.0486328124999997
3.04541015625
3.04541015625
2.5007812499999997
1.9545410156249998
1.6072998046875
1.1335693359374999
0.903955078125
0.8032470703125
0.5671875
0.488232421875
0.439892578125
0.45358886718749997
0.436669921875
0.4447265625
0.4390869140625
0.43425292968749996
0.169189453125
0.041088867187499996
0.040283203125
0.04189453125
0.042700195312499994
0.041088867187499996
0.04189453125
0.7677978515624999
1.4993408203124998
1.883642578125
2.244580078125
2.3267578125
2.402490234375
2.55234375
2.5612060546874997
2.5225341796875
2.5894042968749997
2.5531494140624997
2.4766113281249997
2.454052734375
2.4468017578125
2.3984619140625
3.0470214843749996
3.0494384765625
3.0478271484375
3.050244140625
3.0486328124999997
2.91328125
2.518505859375
2.1229248046875
1.5927978515624999
1.2431396484375
1.0256103515625
0.7621582031249999
0.6574218749999999
0.5180419921875
0.502734375
0.49306640625
0.452783203125
0.4648681640625
0.40605468749999996
0.47453613281249996
0.41572265625
0.038671874999999994
0.04189453125
0.042700195312499994
0.0459228515625
0.041088867187499996
0.038671874999999994
0.28439941406249997
1.4034667968749999
1.7587646484375
1.9787109374999998
2.1277587890625
2.29775390625
2.4177978515625
2.4685546874999997
2.5128662109374997
2.5410644531249997
2.4468017578125
2.4177978515625
2.405712890625
2.3646240234375
2.2590820312499997
3.043798828125
3.0494384765625
3.0510498046874996
3.04541015625
3.0470214843749996
3.0478271484375
2.6031005859375
2.222021484375
1.67578125
1.3591552734374999
0.9893554687499999
0.8048583984375
0.5712158203125
0.5373779296875
0.46647949218749996
0.48178710937499997
0.45842285156249996
0.4358642578125
0.472119140625
0.48581542968749997
0.5373779296875
0.040283203125
0.038671874999999994
0.041088867187499996
0.045117187499999996
0.04189453125
0.0378662109375
0.2666748046875
1.2447509765625
1.7370117187499998
2.0568603515625
2.247802734375
2.341259765625
2.566845703125
2.5845703125
2.602294921875
2.5265625
2.5402587890625
2.5394531249999996
2.5644287109375
2.4943359375
2.42666015625
3.003515625
3.0470214843749996
3.0478271484375
3.0478271484375
3.0486328124999997
3.050244140625
2.898779296875
2.3638183593749997
1.7233154296875
1.4034667968749999
1.0642822265625
0.8201660156249999
0.6308349609374999
0.5389892578125
0.43747558593749997
0.517236328125
0.472119140625
0.48581542968749997
0.49467773437499996
0.5196533203125
0.47856445312499996
0.0443115234375
0.041088867187499996
0.037060546874999996
0.042700195312499994
0.041088867187499996
0.04189453125
0.103125
1.2173583984375
1.6773925781249999
1.9924072265625
2.1301757812499997
2.321923828125
2.4041015624999997
2.4725830078124997
2.447607421875
2.4371337890625
2.4580810546875
2.39765625
2.4041015624999997
2.4290771484375
2.3960449218749997
2.921337890625
3.04541015625
3.0478271484375
3.0486328124999997
3.0470214843749996
3.043798828125
3.05830078125
2.33642578125
1.8062988281249999
1.3664062499999998
0.9933837890624999
0.77666015625
0.6421142578125
0.46164550781249997
0.452783203125
0.33515625
0.42941894531249997
0.41813964843749996
0.46083984375
0.44956054687499997
0.4809814453125
0.041088867187499996
0.040283203125
0.04189453125
0.041088867187499996
0.042700195312499994
0.043505859375
0.041088867187499996
0.8523925781249999
1.4961181640624999
1.9593749999999999
2.2115478515625
2.32998046875
2.447607421875
2.5434814453124996
2.5894042968749997
2.5475097656249996
2.6031005859375
2.6119628906249996
2.534619140625
2.55234375
2.5402587890625
2.4935302734375
3.0470214843749996
3.0429931640624996
3.0478271484375
3.043798828125
3.0470214843749996
3.0478271484375
2.5797363281249996
1.960986328125
1.5645996093749999
1.3124267578125
1.018359375
0.7742431640624999
0.5889404296874999
0.6090820312499999
0.423779296875
0.49306640625
0.5631591796875
0.5003173828124999
0.5124023437499999
0.5124023437499999
0.49064941406249996
0.04189453125
0.041088867187499996
0.043505859375
0.041088867187499996
0.041088867187499996
0.041088867187499996
0.4318359375
1.5492919921875
1.8900878906249998
2.0898925781249997
2.2051025390625
2.2663330078125
2.39443359375
2.402490234375
2.3662353515625
2.45888671875
2.528173828125
2.5475097656249996
2.5160888671875
2.5112548828124996
2.487890625
3.0470214843749996
3.0478271484375
3.0470214843749996
3.0470214843749996
3.0470214843749996
3.0486328124999997
2.591015625
2.1422607421874997
1.6951171875
1.164990234375
0.929736328125
0.6920654296875
0.5277099609375
0.514013671875
0.5099853515625
0.3955810546875
0.4116943359375
0.410888671875
0.388330078125
0.45842285156249996
0.45439453124999996
0.041088867187499996
0.0443115234375
0.041088867187499996
0.04189453125
0.041088867187499996
0.038671874999999994
0.4125
1.2938964843749998
1.8304687499999999
2.0391357421875
2.2002685546875
2.360595703125
2.46533203125
2.434716796875
2.4234375
2.4919189453125
2.5821533203125
2.6208251953125
2.5531494140624997
2.5031982421874996
2.4306884765625
3.0494384765625
3.0470214843749996
3.0478271484375
3.0478271484375
3.050244140625
3.0462158203125
2.8915283203124997
2.241357421875
1.8296630859374998
1.4276367187499999
1.187548828125
0.8741455078125
0.6308349609374999
0.52529296875
0.4632568359375
0.46647949218749996
0.46164550781249997
0.4229736328125
0.44150390624999997
0.4713134765625
0.5091796875
0.045117187499999996
0.0394775390625
0.04189453125
0.0378662109375
0.041088867187499996
0.041088867187499996
0.146630859375
1.3148437499999999
1.662890625
1.9569580078125
2.1906005859374997
2.3114501953124997
2.3549560546875
2.3871826171875
2.487890625
2.4983642578125
2.528173828125
2.4451904296875
2.4500244140625
2.4145751953125
2.38154296875
3.04541015625
3.0510498046874996
3.0470214843749996
3.043798828125
3.043798828125
3.0526611328124997
2.86494140625
2.392822265625
1.861083984375
1.3881591796875
1.142431640625
0.887841796875
0.7532958984375
0.60263671875
0.5357666015625
0.40927734374999997
0.346435546875
0.2715087890625
0.26022949218749997
0.301318359375
0.2876220703125
0.040283203125
0.041088867187499996
0.041088867187499996
0.038671874999999994
0.04189453125
0.041088867187499996
0.1329345703125
1.1214843749999999
1.6645019531249998
2.031884765625
2.2236328125
2.36865234375
2.3718749999999997
2.447607421875
2.5402587890625
2.56845703125
2.6200195312499996
2.6876953125
2.85849609375
3.0486328124999997
3.0470214843749996
3.0486328124999997
3.04541015625
3.0478271484375
3.0446044921874997
3.04541015625
3.0486328124999997
3.0470214843749996
3.0446044921874997
3.0470214843749996
3.0486328124999997
3.0470214843749996
3.0462158203125
3.0462158203125
3.0486328124999997
3.043798828125
3.050244140625
3.0462158203125
3.0486328124999997
3.0446044921874997
3.0462158203125
3.0470214843749996
2.3557617187499997
1.9352050781249999
1.9384277343749998
2.002880859375
1.85947265625
1.9916015624999999
2.0971435546875
2.874609375
3.050244140625
2.921337890625
2.5998779296874996
2.32998046875
2.0455810546874997
1.7861572265624999
1.4993408203124998
1.17626953125
1.16337890625
1.058642578125
1.0167480468749999
0.9796874999999999
0.9289306640624999
0.800830078125
1.6403320312499998
1.62744140625
1.5509033203125
1.4244140625
1.190771484375
0.871728515625
0.475341796875
0.214306640625
0.111181640625
0.2578125
0.4004150390625
0.49790039062499997
0.7025390625
0.8451416015625
0.9232910156249999
1.1835205078125
1.229443359375
1.2624755859374999
1.2608642578125
1.2181640624999999
1.203662109375
0.8386962890624999
0.994189453125
1.0755615234375
1.0852294921874999
1.1351806640625
1.239111328125
1.5992431640625
1.783740234375
1.426025390625
1.1158447265625
0.6678955078125
0.50595703125
0.6936767578124999
0.7758544921874999
0.9192626953124999
1.029638671875
1.1641845703125
1.252001953125
1.397021484375
1.4228027343749998
1.448583984375
1.9746826171874998
1.7724609375
1.59521484375
1.509814453125
1.345458984375
1.27939453125
1.0900634765625
1.00546875
1.084423828125
1.2342773437499999
1.41796875
1.47275390625
1.53076171875
1.5194824218749998
1.5162597656249999
1.509814453125
1.5299560546875
1.4598632812499999
1.496923828125
1.4993408203124998
1.5154541015624998
0.9555175781249999
1.2205810546875
1.4501953125
1.4848388671875
1.606494140625
1.6645019531249998
1.8304687499999999
2.0939208984374997
1.844970703125
1.574267578125
1.5267333984375
1.4864501953125
1.4550292968749998
1.4638916015624999
1.461474609375
1.4953124999999998
1.4928955078125
1.522705078125
1.50498046875
1.4880615234374999
1.5251220703125
1.9303710937499998
1.8659179687499998
1.64677734375
1.5960205078124998
1.4840332031249999
1.4203857421875
1.3148437499999999
1.2439453125
1.2463623046874999
1.3559326171875
1.4187744140624998
1.482421875
1.4993408203124998
1.5355957031249998
1.5460693359375
1.5476806640624998
1.5597656249999998
1.55009765625
1.5670166015625
1.5831298828125
1.5436523437499998
1.1375976562499999
1.229443359375
1.4783935546875
1.6040771484374998
1.6814208984374999
1.6395263671875
1.6588623046875
1.9625976562499998
1.7926025390625
1.5992431640625
1.5347900390625
1.5315673828124998
1.5347900390625
1.5009521484375
1.4896728515625
1.5154541015624998
1.545263671875
1.571044921875
1.542041015625
1.5654052734375
1.5243164062499999
1.8224121093749999
1.848193359375
1.6371093749999999
1.55009765625
1.5299560546875
1.4493896484375
1.384130859375
1.3124267578125
1.3140380859374998
1.3905761718749998
1.490478515625
1.5114257812499998
1.5162597656249999
1.5847412109374999
1.5589599609375
1.5412353515625
1.5533203125
1.529150390625
1.5621826171875
1.5807128906249999
1.5637939453124998
1.27294921875
1.213330078125
1.5033691406249998
1.5573486328125
1.6137451171875
1.6806152343749998
1.7047851562499998
1.9569580078125
1.7740722656249999
1.6201904296874998
1.5517089843749998
1.5243164062499999
1.5194824218749998
1.5492919921875
1.52109375
1.525927734375
1.5404296874999999
1.5476806640624998
1.5686279296874999
1.56298828125
1.5355957031249998
1.5573486328125
1.8240234375
1.6443603515624998
1.5847412109374999
1.5057861328125
1.4397216796874999
1.4034667968749999
1.3027587890624999
1.335791015625
1.3881591796875
1.461474609375
1.5428466796875
1.5863525390625
1.590380859375
1.5750732421875
1.5517089843749998
1.5557373046874998
1.5315673828124998
1.5122314453124999
1.5243164062499999
1.56298828125
1.2882568359375
1.224609375
1.46953125
1.525927734375
1.585546875
1.6322753906249998
1.6822265625
1.9376220703125
1.8538330078124998
1.7096191406249999
1.5662109375
1.5412353515625
1.5162597656249999
1.5645996093749999
1.5589599609375
1.5396240234374998
1.5412353515625
1.5573486328125
1.5605712890624999
1.5218994140625
1.533984375
1.522705078125
1.8868652343749999
1.6306640625
1.5758789062499998
1.5645996093749999
1.5791015625
1.456640625
1.3204833984375
1.3124267578125
1.400244140625
1.4389160156249998
1.5122314453124999
1.5299560546875
1.533984375
1.5573486328125
1.5645996093749999
1.5605712890624999
1.5347900390625
1.5662109375
1.5686279296874999
1.5863525390625
1.5645996093749999
1.2286376953125
1.4389160156249998
1.5589599609375
1.5782958984375
1.6177734375
1.6322753906249998
1.7909912109375
1.8336914062499998
1.6886718749999998
1.6089111328124999
1.5662109375
1.5202880859374999
1.5589599609375
1.5750732421875
1.5186767578125
1.5484863281249999
1.56943359375
1.5654052734375
1.5654052734375
1.5484863281249999
1.5331787109375
1.8659179687499998
1.651611328125
1.5960205078124998
1.5637939453124998
1.55009765625
1.4735595703125
1.3478759765625
1.3599609375
1.3857421875
1.4735595703125
1.5355957031249998
1.56298828125
1.542041015625
1.5154541015624998
1.5267333984375
1.5114257812499998
1.5267333984375
1.5347900390625
1.5597656249999998
1.5686279296874999
1.587158203125
1.2141357421874999
1.4147460937499998
1.5654052734375
1.5976318359375
1.5927978515624999
1.6298583984375
1.7926025390625
1.90458984375
1.6669189453125
1.5605712890624999
1.5355957031249998
1.525927734375
1.5154541015624998
1.554931640625
1.5517089843749998
1.533984375
1.5347900390625
1.5637939453124998
1.5702392578125
1.5968261718749999
1.6024658203125
1.8618896484374998
1.7096191406249999
1.5911865234375
1.5396240234374998
1.493701171875
1.46630859375
1.4107177734374998
1.3414306640625
1.36962890625
1.442138671875
1.482421875
1.52109375
1.5412353515625
1.577490234375
1.5960205078124998
1.5670166015625
1.5218994140625
1.558154296875
1.5492919921875
1.5573486328125
1.558154296875
1.1408203125
1.3921875
1.5460693359375
1.5645996093749999
1.6000488281249998
1.651611328125
1.7926025390625
1.8925048828125
1.7313720703125
1.6862548828125
1.5589599609375
1.5331787109375
1.5517089843749998
1.5799072265624998
1.546875
1.5662109375
1.5218994140625
1.5597656249999998
1.55009765625
1.5460693359375
1.5444580078124999
1.8256347656249998
1.7724609375
1.5791015625
1.5597656249999998
1.5412353515625
1.47275390625
1.3825195312499998
1.3470703124999999
1.3865478515624998
1.4501953125
1.5154541015624998
1.5645996093749999
1.522705078125
1.5654052734375
1.5718505859374998
1.542041015625
1.5492919921875
1.5702392578125
1.5726562499999999
1.5533203125
1.5428466796875
1.2399169921875
1.364794921875
1.5364013671874999
1.5565429687499999
1.59521484375
1.6346923828125
1.7104248046875
1.9867675781249998
1.71123046875
1.5960205078124998
1.5750732421875
1.5299560546875
1.5323730468749999
1.554931640625
1.5589599609375
1.5412353515625
1.5621826171875
1.545263671875
1.545263671875
1.5436523437499998
1.5170654296875
1.76279296875
1.8022705078124999
1.6572509765624999
1.5758789062499998
1.5509033203125
1.480810546875
1.4155517578124999
1.3559326171875
1.3510986328124999
1.3986328124999998
1.5114257812499998
1.5509033203125
1.5243164062499999
1.5146484375
1.574267578125
1.5637939453124998
1.5726562499999999
1.5323730468749999
1.5839355468749998
1.5662109375
1.5573486328125
1.2544189453124999
1.3067871093749999
1.5331787109375
1.5589599609375
1.5895751953125
1.6330810546874999
1.7603759765625
1.9231201171874999
1.7313720703125
1.5863525390625
1.545263671875
1.5057861328125
1.5718505859374998
1.5654052734375
1.56298828125
1.5436523437499998
1.5589599609375
1.529150390625
1.5412353515625
1.5863525390625
1.5895751953125
1.5662109375
1.791796875
1.5944091796875
1.5670166015625
1.529150390625
1.48564453125
1.4284423828125
1.4236083984374999
1.3462646484374998
1.3994384765624999
1.4888671875
1.5090087890625
1.55009765625
1.5621826171875
1.542041015625
1.53076171875
1.522705078125
1.56298828125
1.5718505859374998
1.545263671875
1.5597656249999998
1.3027587890624999
1.264892578125
1.4953124999999998
1.5323730468749999
1.6089111328124999
1.6081054687499998
1.6137451171875
1.9198974609375
1.716064453125
1.6234130859375
1.5492919921875
1.5654052734375
1.5573486328125
1.5605712890624999
1.554931640625
1.5218994140625
1.5533203125
1.5476806640624998
1.5565429687499999
1.5541259765625
1.5484863281249999
1.5863525390625
1.9070068359374999
1.6314697265625
1.5645996093749999
1.546875
1.5138427734375
1.3752685546874999
1.4284423828125
1.3285400390625
1.3954101562499999
1.4687255859375
1.5283447265624999
1.6234130859375
1.5960205078124998
1.55009765625
1.5605712890624999
1.5154541015624998
1.5404296874999999
1.5460693359375
1.5364013671874999
1.53720703125
1.5460693359375
1.222998046875
1.4848388671875
1.5621826171875
1.5404296874999999
1.625830078125
1.796630859375
1.9327880859375
1.6951171875
1.5750732421875
1.574267578125
1.5436523437499998
1.558154296875
1.529150390625
1.5364013671874999
1.5436523437499998
1.58232421875
1.5782958984375
1.5557373046874998
1.5597656249999998
1.5654052734375
1.5299560546875
1.8626953124999999
1.6475830078125
1.5726562499999999
1.5758789062499998
1.558154296875
1.393798828125
1.4107177734374998
1.3390136718749999
1.3752685546874999
1.5146484375
1.5380126953125
1.53076171875
1.52109375
1.554931640625
1.5597656249999998
1.558154296875
1.558154296875
1.5525146484374999
1.5750732421875
1.5476806640624998
1.5605712890624999
1.19560546875
1.4711425781249998
1.5492919921875
1.577490234375
1.6056884765625
1.65966796875
1.9456787109375
1.8046875
1.6024658203125
1.5678222656249998
1.5492919921875
1.5517089843749998
1.56943359375
1.5122314453124999
1.5243164062499999
1.577490234375
1.5927978515624999
1.5637939453124998
1.5323730468749999
1.538818359375
1.509814453125
1.8554443359375
1.6894775390624999
1.574267578125
1.5557373046874998
1.5396240234374998
1.448583984375
1.5009521484375
1.3382080078124998
1.3881591796875
1.4518066406249999
1.49853515625
1.5412353515625
1.5412353515625
1.5621826171875
1.5484863281249999
1.53720703125
1.5525146484374999
1.574267578125
1.5597656249999998
1.5299560546875
1.593603515625
1.2125244140625
1.3849365234375
1.5533203125
1.5791015625
1.6000488281249998
1.6290527343749999
1.896533203125
1.8054931640624998
1.6798095703125
1.5726562499999999
1.52109375
1.5460693359375
1.5476806640624998
1.5637939453124998
1.5525146484374999
1.55009765625
1.5186767578125
1.574267578125
1.5541259765625
1.5299560546875
1.533984375
1.7692382812499998
1.8183837890624999
1.6072998046875
1.5662109375
1.546875
1.48564453125
1.4195800781249999
1.3792968749999999
1.361572265625
1.4276367187499999
1.490478515625
1.5573486328125
1.5412353515625
1.577490234375
1.5460693359375
1.5428466796875
1.5484863281249999
1.5621826171875
1.5799072265624998
1.5645996093749999
1.5654052734375
1.206884765625
1.37607421875
1.5347900390625
1.5686279296874999
1.6185791015625
1.635498046875
1.658056640625
1.9086181640625
1.7249267578124998
1.6056884765625
1.5525146484374999
1.5380126953125
1.522705078125
1.5533203125
1.5686279296874999
1.5686279296874999
1.5734619140625
1.5605712890624999
1.545263671875
1.5444580078124999
1.5412353515625
1.7289550781249998
1.783740234375
1.5887695312499999
1.585546875
1.5444580078124999
1.4928955078125
1.432470703125
1.3978271484375
1.353515625
1.4389160156249998
1.51787109375
1.525927734375
1.5009521484375
1.5492919921875
1.5766845703124999
1.561376953125
1.5589599609375
1.5605712890624999
1.585546875
1.6089111328124999
1.5960205078124998
1.36962890625
1.2608642578125
1.4574462890625
1.5186767578125
1.5347900390625
1.6371093749999999
1.6943115234375
1.925537109375
1.73056640625
1.6201904296874998
1.574267578125
1.53076171875
1.53720703125
1.5428466796875
1.55009765625
1.5565429687499999
1.554931640625
1.5509033203125
1.5799072265624998
1.593603515625
1.571044921875
1.67578125
1.786962890625
1.6008544921874999
1.5565429687499999
1.5380126953125
1.4953124999999998
1.4848388671875
1.3599609375
1.3623779296874998
1.3736572265625
1.474365234375
1.53720703125
1.5364013671874999
1.513037109375
1.5573486328125
1.53076171875
1.5492919921875
1.577490234375
1.5645996093749999
1.542041015625
1.574267578125
1.3873535156249999
1.2737548828124998
1.5162597656249999
1.5412353515625
1.5621826171875
1.6209960937499999
1.6346923828125
1.899755859375
1.780517578125
1.6056884765625
1.5541259765625
1.5605712890624999
1.5484863281249999
1.5678222656249998
1.5911865234375
1.56298828125
1.5509033203125
1.53720703125
1.5323730468749999
1.55009765625
1.5533203125
1.558154296875
1.8586669921874999
1.619384765625
1.5944091796875
1.6081054687499998
1.5331787109375
1.4767822265625
1.3349853515624999
1.3430419921874999
1.3801025390625
1.4751708984374998
1.5170654296875
1.5436523437499998
1.5541259765625
1.5533203125
1.558154296875
1.5460693359375
1.51787109375
1.5573486328125
1.5533203125
1.5645996093749999
1.546875
1.2850341796875
1.4961181640624999
1.533984375
1.554931640625
1.585546875
1.6290527343749999
1.8554443359375
1.7684326171875
1.6733642578124999
1.6209960937499999
1.5355957031249998
1.5484863281249999
1.5476806640624998
1.5533203125
1.538818359375
1.58232421875
1.5533203125
1.56298828125
1.558154296875
1.5412353515625
1.5525146484374999
1.8828369140624999
1.6814208984374999
1.6048828124999999
1.5944091796875
1.51787109375
1.464697265625
1.3599609375
1.3551269531249999
1.4155517578124999
1.46953125
1.493701171875
1.5460693359375
1.51787109375
1.5444580078124999
1.56943359375
1.5243164062499999
1.5573486328125
1.5758789062499998
1.5621826171875
1.58232421875
1.5637939453124998
1.239111328125
1.4751708984374998
1.5565429687499999
1.533984375
1.5734619140625
1.6443603515624998
1.764404296875
1.8828369140624999
1.6532226562499999
1.5944091796875
1.5645996093749999
1.533984375
1.558154296875
1.5565429687499999
1.5645996093749999
1.558154296875
1.55009765625
1.5758789062499998
1.56943359375
1.5436523437499998
1.5170654296875
1.8812255859375
1.7047851562499998
1.6081054687499998
1.5702392578125
1.55009765625
1.458251953125
1.3712402343749999
1.3921875
1.4026611328124998
1.4389160156249998
1.5154541015624998
1.5517089843749998
1.5267333984375
1.5404296874999999
1.5492919921875
1.5637939453124998
1.5621826171875
1.5364013671874999
1.513037109375
1.5645996093749999
1.558154296875
1.2342773437499999
1.3752685546874999
1.5082031249999999
1.56298828125
1.6290527343749999
1.6346923828125
1.735400390625
1.8876708984375
1.7200927734375
1.6161621093749998
1.5726562499999999
1.5509033203125
1.60166015625
1.5815185546875
1.5380126953125
1.5533203125
1.5186767578125
1.5323730468749999
1.533984375
1.5396240234374998
1.5186767578125
1.7378173828124999
1.6951171875
1.5911865234375
1.55009765625
1.5557373046874998
1.5041748046874999
1.4413330078125
1.380908203125
1.3623779296874998
1.4381103515625
1.509814453125
1.5380126953125
1.542041015625
1.5509033203125
1.5565429687499999
1.55009765625
1.5734619140625
1.5637939453124998
1.561376953125
1.5347900390625
1.542041015625
1.248779296875
1.393798828125
1.5686279296874999
1.5621826171875
1.6072998046875
1.6169677734374999
1.6322753906249998
1.90458984375
1.7635986328125
1.67900390625
1.5517089843749998
1.53076171875
1.5275390624999998
1.51787109375
1.545263671875
1.5525146484374999
1.5315673828124998
1.5323730468749999
1.5476806640624998
1.5525146484374999
1.5565429687499999
1.7289550781249998
1.812744140625
1.6048828124999999
1.606494140625
1.5235107421874998
1.4880615234374999
1.4332763671875
1.37607421875
1.351904296875
1.3994384765624999
1.48564453125
1.5202880859374999
1.5355957031249998
1.5863525390625
1.577490234375
1.5428466796875
1.5597656249999998
1.554931640625
1.5686279296874999
1.5815185546875
1.53720703125
1.3575439453125
1.3639892578125
1.5243164062499999
1.571044921875
1.5911865234375
1.6483886718749998
1.6564453124999998
1.8812255859375
1.732177734375
1.5960205078124998
1.545263671875
1.5484863281249999
1.593603515625
1.5686279296874999
1.5654052734375
1.558154296875
1.5509033203125
1.542041015625
1.5637939453124998
1.545263671875
1.55009765625
1.6814208984374999
1.80791015625
1.6395263671875
1.6024658203125
1.5573486328125
1.4783935546875
1.4606689453125
1.3801025390625
1.3494873046875
1.41796875
1.5122314453124999
1.5347900390625
1.5251220703125
1.522705078125
1.5525146484374999
1.5380126953125
1.5670166015625
1.56298828125
1.5678222656249998
1.5815185546875
1.5476806640624998
1.397021484375
1.2858398437499998
1.4832275390624998
1.5533203125
1.5380126953125
1.5766845703124999
1.6524169921874998
1.8755859375
1.7974365234374998
1.6483886718749998
1.5919921874999998
1.5509033203125
1.571044921875
1.5533203125
1.5517089843749998
1.5637939453124998
1.5557373046874998
1.5476806640624998
1.545263671875
1.5380126953125
1.5758789062499998
1.5355957031249998
1.7893798828124998
1.6765869140624998
1.5670166015625
1.533984375
1.525927734375
1.4912841796874998
1.3712402343749999
1.380908203125
1.458251953125
1.4993408203124998
1.4880615234374999
1.509814453125
1.5355957031249998
1.5404296874999999
1.55009765625
1.6040771484374998
1.5782958984375
1.5444580078124999
1.558154296875
1.554931640625
1.4477783203124999
1.287451171875
1.4880615234374999
1.6081054687499998
1.5726562499999999
1.5976318359375
1.6137451171875
1.8095214843749998
1.8022705078124999
1.6540283203125
1.5597656249999998
1.5605712890624999
1.5533203125
1.5726562499999999
1.5791015625
1.58232421875
1.5412353515625
1.5476806640624998
1.5557373046874998
1.5509033203125
1.5702392578125
1.5436523437499998
1.851416015625
1.619384765625
1.5662109375
1.5847412109374999
1.533984375
1.4759765624999999
1.3817138671875
1.377685546875
1.4300537109375
1.4961181640624999
1.5283447265624999
1.525927734375
1.5533203125
1.5726562499999999
1.522705078125
1.5428466796875
1.5533203125
1.5380126953125
1.5484863281249999
1.5444580078124999
1.5645996093749999
1.2640869140625
1.5154541015624998
1.5637939453124998
1.5573486328125
1.5879638671874998
1.5911865234375
1.7136474609374999
1.80791015625
1.6483886718749998
1.606494140625
1.554931640625
1.5662109375
1.5565429687499999
1.5589599609375
1.5186767578125
1.5162597656249999
1.5758789062499998
1.577490234375
1.5597656249999998
1.5331787109375
1.542041015625
1.864306640625
1.7418457031249999
1.5895751953125
1.5815185546875
1.5428466796875
1.4590576171874998
1.361572265625
1.38896484375
1.4219970703125
1.4606689453125
1.5146484375
1.5315673828124998
1.506591796875
1.571044921875
1.5589599609375
1.5251220703125
1.5654052734375
1.5702392578125
1.561376953125
1.5605712890624999
1.5565429687499999
1.235888671875
1.3833251953124999
1.5525146484374999
1.5460693359375
1.558154296875
1.6121337890624998
1.683837890625
1.8578613281249998
1.6951171875
1.62744140625
1.56298828125
1.5428466796875
1.5863525390625
1.5621826171875
1.5597656249999998
1.5654052734375
1.5364013671874999
1.5444580078124999
1.5218994140625
1.545263671875
1.5476806640624998
1.7200927734375
1.7047851562499998
1.60166015625
1.6234130859375
1.5444580078124999
1.4638916015624999
1.4373046875
1.3607666015625
1.4123291015625
1.4606689453125
1.5114257812499998
1.5380126953125
1.5194824218749998
1.5621826171875
1.51787109375
1.56298828125
1.554931640625
1.55009765625
1.5444580078124999
1.5766845703124999
1.5734619140625
1.21494140625
1.3607666015625
1.5533203125
1.5492919921875
1.5895751953125
1.6048828124999999
1.6878662109375
1.8780029296874998
1.7507080078125
1.6137451171875
1.58232421875
1.554931640625
1.5460693359375
1.53076171875
1.5235107421874998
1.5766845703124999
1.5323730468749999
1.5670166015625
1.5476806640624998
1.5315673828124998
1.5492919921875
1.6878662109375
1.80791015625
1.6000488281249998
1.56943359375
1.5557373046874998
1.5146484375
1.458251953125
1.3688232421875
1.3865478515624998
1.40830078125
1.4840332031249999
1.4840332031249999
1.5299560546875
1.5597656249999998
1.5839355468749998
1.6008544921874999
1.590380859375
1.5678222656249998
1.558154296875
1.558154296875
1.538818359375
1.4123291015625
1.37607421875
1.5082031249999999
1.5662109375
1.5960205078124998
1.5847412109374999
1.619384765625
1.8763916015625
1.748291015625
1.6379150390625
1.5533203125
1.5476806640624998
1.533984375
1.56298828125
1.5758789062499998
1.5412353515625
1.545263671875
1.561376953125
1.5654052734375
1.5686279296874999
1.53720703125
1.6346923828125
1.82724609375
1.6282470703124998
1.5976318359375
1.5662109375
1.5364013671874999
1.4437499999999999
1.3712402343749999
1.3623779296874998
1.4195800781249999
1.5025634765625
1.4800048828124999
1.5396240234374998
1.5428466796875
1.56298828125
1.577490234375
1.5541259765625
1.5251220703125
1.5492919921875
1.5170654296875
1.56943359375
1.4501953125
1.2640869140625
1.51787109375
1.5412353515625
1.5895751953125
1.6242187499999998
1.6346923828125
1.8457763671874998
1.8256347656249998
1.638720703125
1.5565429687499999
1.5380126953125
1.5428466796875
1.5541259765625
1.5734619140625
1.5960205078124998
1.6048828124999999
1.545263671875
1.5621826171875
1.5734619140625
1.5436523437499998
1.53076171875
1.7901855468749999
1.5984375
1.558154296875
1.5670166015625
1.5460693359375
1.506591796875
1.3792968749999999
1.377685546875
1.4373046875
1.4364990234375
1.5082031249999999
1.5299560546875
1.5283447265624999
1.5678222656249998
1.542041015625
1.5678222656249998
1.458251953125
1.5678222656249998
1.5662109375
1.5807128906249999
1.4574462890625
1.264892578125
1.513037109375
1.5589599609375
1.58232421875
1.5887695312499999
1.641943359375
1.8385253906249999
1.8022705078124999
1.6951171875
1.574267578125
1.5460693359375
1.5662109375
1.5170654296875
1.5484863281249999
1.522705078125
1.5283447265624999
1.5355957031249998
1.5565429687499999
1.5517089843749998
1.5726562499999999
1.587158203125
1.8618896484374998
1.6379150390625
1.571044921875
1.5428466796875
1.5444580078124999
1.4928955078125
1.3607666015625
1.3664062499999998
1.400244140625
1.46630859375
1.5090087890625
1.5331787109375
1.5396240234374998
1.5621826171875
1.577490234375
1.5557373046874998
1.5589599609375
1.561376953125
1.5565429687499999
1.538818359375
1.525927734375
1.2503906249999999
1.46630859375
1.5557373046874998
1.5726562499999999
1.5968261718749999
1.611328125
1.69189453125
1.82724609375
1.69833984375
1.6306640625
1.5645996093749999
1.545263671875
1.5702392578125
1.5678222656249998
1.5597656249999998
1.5299560546875
1.5412353515625
1.5815185546875
1.545263671875
1.546875
1.5436523437499998
1.8667236328124999
1.7176757812499999
1.5968261718749999
1.574267578125
1.5073974609374998
1.4719482421874999
1.3946044921874998
1.397021484375
1.3704345703124998
1.4751708984374998
1.5235107421874998
1.5235107421874998
1.5476806640624998
1.5517089843749998
1.5460693359375
1.5678222656249998
1.5557373046874998
1.5267333984375
1.5364013671874999
1.55009765625
1.5299560546875
1.222998046875
1.4759765624999999
1.5436523437499998
1.5444580078124999
1.5944091796875
1.6306640625
1.7337890624999999
1.8755859375
1.7096191406249999
1.609716796875
1.5476806640624998
1.5605712890624999
1.5589599609375
1.5251220703125
1.5557373046874998
1.509814453125
1.5678222656249998
1.5509033203125
1.5662109375
1.5565429687499999
1.5396240234374998
1.85625
1.719287109375
1.6056884765625
1.5243164062499999
1.5106201171875
1.4920898437499999
1.4477783203124999
1.3873535156249999
1.3752685546874999
1.45341796875
1.5033691406249998
1.5194824218749998
1.5283447265624999
1.5645996093749999
1.5396240234374998
1.5686279296874999
1.5380126953125
1.5331787109375
1.5662109375
1.571044921875
1.5605712890624999
1.2455566406249998
1.3583496093749998
1.5194824218749998
1.5436523437499998
1.5919921874999998
1.6371093749999999
1.7474853515625
1.9190917968749999
1.732177734375
1.587158203125
1.5597656249999998
1.546875
1.5621826171875
1.5557373046874998
1.5597656249999998
1.5919921874999998
1.5662109375
1.5380126953125
1.5355957031249998
1.522705078125
1.5170654296875
1.658056640625
1.7072021484375
1.6266357421875
1.5726562499999999
1.5396240234374998
1.5162597656249999
1.4767822265625
1.3502929687499998
1.3704345703124998
1.4606689453125
1.4735595703125
1.509814453125
1.546875
1.5750732421875
1.5726562499999999
1.5404296874999999
1.5299560546875
1.5267333984375
1.5702392578125
1.5670166015625
1.5734619140625
1.26005859375
1.345458984375
1.5162597656249999
1.5509033203125
1.5863525390625
1.6153564453125
1.6427490234375
1.8393310546875
1.738623046875
1.6532226562499999
1.5831298828125
1.5702392578125
1.5444580078124999
1.5428466796875
1.5565429687499999
1.585546875
1.5645996093749999
1.5428466796875
1.5557373046874998
1.5597656249999998
1.5436523437499998
1.6177734375
1.8006591796875
1.6242187499999998
1.587158203125
1.522705078125
1.5025634765625
1.4356933593749999
1.353515625
1.4107177734374998
1.4300537109375
1.5009521484375
1.5122314453124999
1.5283447265624999
1.51787109375
1.5283447265624999
1.5799072265624998
1.577490234375
1.5791015625
1.5791015625
1.5347900390625
1.5573486328125
1.4526123046875
1.2423339843749999
1.52109375
1.5299560546875
1.5662109375
1.638720703125
1.6451660156249999
1.8417480468749998
1.7611816406249998
1.6371093749999999
1.58232421875
1.5718505859374998
1.5565429687499999
1.533984375
1.545263671875
1.5718505859374998
1.53720703125
1.5525146484374999
1.5702392578125
1.5404296874999999
1.5170654296875
1.6081054687499998
1.843359375
1.651611328125
1.5895751953125
1.5492919921875
1.5114257812499998
1.4687255859375
1.335791015625
1.353515625
1.4477783203124999
1.4630859374999998
1.525927734375
1.554931640625
1.5436523437499998
1.5887695312499999
1.5976318359375
1.56943359375
1.5718505859374998
1.5525146484374999
1.5525146484374999
1.5557373046874998
1.5114257812499998
1.2560302734375
1.44052734375
1.5202880859374999
1.5460693359375
1.5968261718749999
1.638720703125
1.8062988281249999
1.799853515625
1.6886718749999998
1.58232421875
1.5364013671874999
1.5807128906249999
1.5533203125
1.5315673828124998
1.5492919921875
1.5597656249999998
1.5517089843749998
1.5678222656249998
1.53076171875
1.554931640625
1.5686279296874999
1.8747802734374999
1.6636962890625
1.6129394531249999
1.5807128906249999
1.51787109375
1.4912841796874998
1.364794921875
1.3559326171875
1.3978271484375
1.4767822265625
1.5001464843749999
1.5412353515625
1.5597656249999998
1.59521484375
1.5605712890624999
1.5637939453124998
1.5484863281249999
1.558154296875
1.5218994140625
1.554931640625
1.5436523437499998
1.2181640624999999
1.4469726562499998
1.5541259765625
1.5911865234375
1.6121337890624998
1.6089111328124999
1.6846435546874998
1.8409423828125
1.6798095703125
1.56298828125
1.5662109375
1.5396240234374998
1.5799072265624998
1.5492919921875
1.5815185546875
1.5831298828125
1.5557373046874998
1.5645996093749999
1.5645996093749999
1.5662109375
1.5404296874999999
1.8618896484374998
1.7080078125
1.590380859375
1.5734619140625
1.51787109375
1.4558349609374999
1.3688232421875
1.4123291015625
1.4091064453125
1.4558349609374999
1.5001464843749999
1.5194824218749998
1.5533203125
1.538818359375
1.5565429687499999
1.5702392578125
1.5637939453124998
1.5799072265624998
1.5565429687499999
1.529150390625
1.5460693359375
1.2455566406249998
1.4550292968749998
1.5436523437499998
1.5460693359375
1.5702392578125
1.587158203125
1.6854492187499999
1.8900878906249998
1.7120361328125
1.6322753906249998
1.5791015625
1.5412353515625
1.5428466796875
1.5460693359375
1.558154296875
1.5589599609375
1.5589599609375
1.558154296875
1.5476806640624998
1.5541259765625
1.55009765625
1.851416015625
1.719287109375
1.585546875
1.5791015625
1.5476806640624998
1.4783935546875
1.4437499999999999
1.3768798828125
1.4066894531249998
1.4558349609374999
1.4767822265625
1.5041748046874999
1.5025634765625
1.5557373046874998
1.558154296875
1.5766845703124999
1.533984375
1.5637939453124998
1.577490234375
1.593603515625
1.5807128906249999
1.2834228515625
1.35673828125
1.5476806640624998
1.5557373046874998
1.5597656249999998
1.593603515625
1.6733642578124999
1.8820312499999998
1.7724609375
1.5807128906249999
1.55009765625
1.5734619140625
1.5678222656249998
1.53720703125
1.5557373046874998
1.5766845703124999
1.5202880859374999
1.545263671875
1.558154296875
1.5605712890624999
1.5492919921875
1.6604736328124998
1.7410400390624998
1.5621826171875
1.5678222656249998
1.4953124999999998
1.5001464843749999
1.4469726562499998
1.377685546875
1.3744628906249998
1.4397216796874999
1.4896728515625
1.5565429687499999
1.5605712890624999
1.55009765625
1.577490234375
1.554931640625
1.5476806640624998
1.5533203125
1.5476806640624998
1.554931640625
1.5605712890624999
1.2818115234374998
1.3422363281249998
1.538818359375
1.5162597656249999
1.5960205078124998
1.6218017578125
1.6540283203125
1.8578613281249998
1.7611816406249998
1.6717529296875
1.5758789062499998
1.545263671875
1.5637939453124998
1.5283447265624999
1.5122314453124999
1.585546875
1.56298828125
1.5791015625
1.5799072265624998
1.5315673828124998
1.5218994140625
1.585546875
1.7829345703125
1.6081054687499998
1.577490234375
1.5766845703124999
1.513037109375
1.4630859374999998
1.36962890625
1.3583496093749998
1.442138671875
1.496923828125
1.5323730468749999
1.5275390624999998
1.5436523437499998
1.5565429687499999
1.5654052734375
1.5396240234374998
1.5509033203125
1.5662109375
1.5815185546875
1.5533203125
1.464697265625
1.316455078125
1.5146484375
1.5645996093749999
1.5799072265624998
1.6282470703124998
1.6524169921874998
1.7821289062499999
1.7418457031249999
1.6483886718749998
1.5678222656249998
1.5364013671874999
1.56943359375
1.5662109375
1.5404296874999999
1.5766845703124999
1.5686279296874999
1.5509033203125
1.5412353515625
1.5299560546875
1.5380126953125
1.6072998046875
1.84013671875
1.651611328125
1.585546875
1.5557373046874998
1.5090087890625
1.493701171875
1.3623779296874998
1.3559326171875
1.4147460937499998
1.5001464843749999
1.5057861328125
1.51787109375
1.5517089843749998
1.5686279296874999
1.5863525390625
1.5460693359375
1.5364013671874999
1.5533203125
1.53720703125
1.5686279296874999
1.5436523437499998
1.239111328125
1.490478515625
1.5106201171875
1.5517089843749998
1.55009765625
1.6314697265625
1.8151611328125
1.8844482421875
1.6572509765624999
1.593603515625
1.5436523437499998
1.546875
1.5565429687499999
1.538818359375
1.5412353515625
1.5436523437499998
1.558154296875
1.554931640625
1.5686279296874999
1.56943359375
1.5645996093749999
1.8377197265624998
1.641943359375
1.5968261718749999
1.5654052734375
1.5355957031249998
1.5218994140625
1.364794921875
1.3736572265625
1.384130859375
1.4518066406249999
1.4977294921875
1.5122314453124999
1.55009765625
1.5573486328125
1.58232421875
1.5750732421875
1.538818359375
1.522705078125
1.5404296874999999
1.5557373046874998
1.542041015625
1.2640869140625
1.4558349609374999
1.5299560546875
1.5976318359375
1.625830078125
1.6346923828125
1.815966796875
1.8473876953125
1.65966796875
1.5807128906249999
1.5347900390625
1.5573486328125
1.5436523437499998
1.529150390625
1.5444580078124999
1.546875
1.545263671875
1.5476806640624998
1.5662109375
1.590380859375
1.5194824218749998
1.815966796875
1.7104248046875
1.571044921875
1.5557373046874998
1.509814453125
1.513037109375
1.4364990234375
