1.5831298828125
1.59521484375
1.6564453124999998
1.7982421874999999
1.770849609375
1.6806152343749998
1.6330810546874999
1.60166015625
1.5799072265624998
1.561376953125
1.5315673828124998
1.5283447265624999
1.5436523437499998
1.5565429687499999
1.6081054687499998
1.5863525390625
1.5364013671874999
1.5662109375
1.7813232421874998
1.658056640625
1.6169677734374999
1.585546875
1.5315673828124998
1.5218994140625
1.4381103515625
1.3720458984375
1.4461669921875
1.4356933593749999
1.47275390625
1.4381103515625
1.4920898437499999
1.5364013671874999
1.538818359375
1.513037109375
1.5017578125
1.5275390624999998
1.554931640625
1.6056884765625
1.5863525390625
1.3019531249999998
1.4397216796874999
1.5251220703125
1.5202880859374999
1.5815185546875
1.606494140625
1.7450683593749998
1.754736328125
1.7893798828124998
1.7055908203124999
1.6000488281249998
1.6218017578125
1.561376953125
1.49853515625
1.5476806640624998
1.5428466796875
1.53720703125
1.5621826171875
1.5589599609375
1.529150390625
1.5315673828124998
1.7249267578124998
1.670947265625
1.6330810546874999
1.641943359375
1.5662109375
1.4840332031249999
1.3768798828125
1.353515625
1.393798828125
1.4719482421874999
1.525927734375
1.49853515625
1.5025634765625
1.5194824218749998
1.5267333984375
1.5347900390625
1.5718505859374998
1.5758789062499998
1.577490234375
1.5645996093749999
1.577490234375
1.3792968749999999
1.4437499999999999
1.4953124999999998
1.49853515625
1.5678222656249998
1.5323730468749999
1.7378173828124999
1.848193359375
1.703173828125
1.6153564453125
1.6048828124999999
1.6137451171875
1.6040771484374998
1.571044921875
1.5654052734375
1.585546875
1.5492919921875
1.533984375
1.5323730468749999
1.542041015625
1.5235107421874998
1.738623046875
1.699951171875
1.674169921875
1.6089111328124999
1.571044921875
1.5960205078124998
1.429248046875
1.377685546875
1.3664062499999998
1.3897705078125
1.4123291015625
1.4397216796874999
1.4630859374999998
1.558154296875
1.58232421875
1.50498046875
1.5331787109375
1.6072998046875
1.5597656249999998
1.4888671875
1.5380126953125
1.2882568359375
1.348681640625
1.474365234375
1.529150390625
1.574267578125
1.6346923828125
1.7466796875
1.8377197265624998
1.7748779296875
1.622607421875
1.6218017578125
1.5919921874999998
1.609716796875
1.5976318359375
1.56298828125
1.5750732421875
1.577490234375
1.5565429687499999
1.5919921874999998
1.5702392578125
1.5194824218749998
1.7337890624999999
1.7120361328125
1.5919921874999998
1.5919921874999998
1.6072998046875
1.5412353515625
1.4638916015624999
1.4244140625
1.36962890625
1.368017578125
1.3873535156249999
1.4510009765624998
1.4679199218749999
1.4759765624999999
1.5194824218749998
1.546875
1.5235107421874998
1.561376953125
1.5791015625
1.5799072265624998
1.490478515625
1.34384765625
1.4115234374999999
1.4912841796874998
1.52109375
1.5919921874999998
1.6024658203125
1.6266357421875
1.7974365234374998
1.791796875
1.7233154296875
1.6403320312499998
1.609716796875
1.5911865234375
1.554931640625
1.58232421875
1.5678222656249998
1.5734619140625
1.5412353515625
1.5654052734375
1.5791015625
1.542041015625
1.6798095703125
1.7490966796874998
1.6846435546874998
1.6403320312499998
1.5517089843749998
1.542041015625
1.493701171875
1.3833251953124999
1.3744628906249998
1.37607421875
1.45341796875
1.482421875
1.4469726562499998
1.4920898437499999
1.5218994140625
1.5283447265624999
1.554931640625
1.5146484375
1.5605712890624999
1.5670166015625
1.5404296874999999
1.3502929687499998
1.2882568359375
1.4687255859375
1.53076171875
1.5984375
1.6048828124999999
1.6218017578125
1.7982421874999999
1.7781005859374999
1.6862548828125
1.619384765625
1.59521484375
1.5839355468749998
1.5791015625
1.5541259765625
1.5299560546875
1.5565429687499999
1.53720703125
1.5887695312499999
1.6854492187499999
1.5791015625
1.533984375
1.71123046875
1.6765869140624998
1.6000488281249998
1.6008544921874999
1.4920898437499999
1.4493896484375
1.4461669921875
1.4058837890625
1.3768798828125
1.44052734375
1.4961181640624999
1.48564453125
1.50498046875
1.5106201171875
1.5170654296875
1.4953124999999998
1.4671142578124998
1.49853515625
1.5380126953125
1.6177734375
1.4219970703125
1.3728515625
1.42119140625
1.490478515625
1.50498046875
1.574267578125
1.5944091796875
1.7418457031249999
1.754736328125
1.7394287109375
1.6717529296875
1.662890625
1.571044921875
1.5670166015625
1.5670166015625
1.509814453125
1.60166015625
1.5678222656249998
1.56298828125
1.56943359375
1.5412353515625
1.590380859375
1.7571533203124998
1.7072021484375
1.6524169921874998
1.609716796875
1.5589599609375
1.448583984375
1.3978271484375
1.3817138671875
1.4042724609375
1.442138671875
1.5090087890625
1.48564453125
1.53720703125
1.5726562499999999
1.5750732421875
1.5766845703124999
1.5428466796875
1.5235107421874998
1.5073974609374998
1.542041015625
1.5428466796875
1.3430419921874999
1.4945068359375
1.4679199218749999
1.4880615234374999
1.577490234375
1.5895751953125
1.7313720703125
1.7934082031249998
1.7233154296875
1.66611328125
1.606494140625
1.6072998046875
1.6556396484375
1.5791015625
1.5412353515625
1.5355957031249998
1.5412353515625
1.5444580078124999
1.5525146484374999
1.5944091796875
1.561376953125
1.7700439453124999
1.6927001953124998
1.63388671875
1.59521484375
1.585546875
1.5033691406249998
1.3728515625
1.345458984375
1.3720458984375
1.40830078125
1.5154541015624998
1.5025634765625
1.456640625
1.48564453125
1.4896728515625
1.558154296875
1.6000488281249998
1.611328125
1.5984375
1.5726562499999999
1.6161621093749998
1.3253173828125
1.377685546875
1.45341796875
1.5017578125
1.5251220703125
1.603271484375
1.7901855468749999
1.844970703125
1.7660156249999999
1.641943359375
1.6040771484374998
1.5750732421875
1.5791015625
1.5726562499999999
1.5396240234374998
1.5807128906249999
1.5235107421874998
1.56298828125
1.5645996093749999
1.5396240234374998
1.5194824218749998
1.6524169921874998
1.7370117187499998
1.67578125
1.625830078125
1.577490234375
1.5243164062499999
1.46953125
1.4219970703125
1.4107177734374998
1.4115234374999999
1.405078125
1.4888671875
1.416357421875
1.5557373046874998
1.5146484375
1.5194824218749998
1.506591796875
1.5589599609375
1.5283447265624999
1.5533203125
1.533984375
1.303564453125
1.380908203125
1.5347900390625
1.5766845703124999
1.506591796875
1.5758789062499998
1.606494140625
1.7797119140625
1.8046875
1.72412109375
1.625830078125
1.574267578125
1.574267578125
1.5927978515624999
1.5702392578125
1.5839355468749998
1.56298828125
1.5444580078124999
1.5919921874999998
1.59521484375
1.5670166015625
1.7249267578124998
1.8046875
1.625830078125
1.5919921874999998
1.5090087890625
1.4864501953125
1.4606689453125
1.4501953125
1.36962890625
1.4187744140624998
1.4389160156249998
1.46953125
1.4711425781249998
1.5186767578125
1.533984375
1.5033691406249998
1.554931640625
1.5476806640624998
1.5275390624999998
1.5041748046874999
1.522705078125
1.3599609375
1.4187744140624998
1.48564453125
1.509814453125
1.5460693359375
1.5807128906249999
1.62744140625
1.869140625
1.8183837890624999
1.71123046875
1.667724609375
1.5887695312499999
1.542041015625
1.5404296874999999
1.546875
1.5621826171875
1.513037109375
1.5186767578125
1.5662109375
1.5565429687499999
1.5315673828124998
1.6878662109375
1.7466796875
1.6927001953124998
1.6209960937499999
1.6411376953124999
1.585546875
1.5605712890624999
1.3905761718749998
1.345458984375
1.38896484375
1.47275390625
1.4961181640624999
1.4961181640624999
1.4977294921875
1.46953125
1.5589599609375
1.5114257812499998
1.533984375
1.55009765625
1.53720703125
1.5662109375
1.413134765625
1.33740234375
1.429248046875
1.46953125
1.4671142578124998
1.52109375
1.6000488281249998
1.7845458984375
1.8385253906249999
1.7531249999999998
1.722509765625
1.6540283203125
1.60166015625
1.571044921875
1.5484863281249999
1.546875
1.522705078125
1.577490234375
1.5315673828124998
1.5347900390625
1.533984375
1.561376953125
1.6935058593749999
1.69189453125
1.6636962890625
1.6185791015625
1.5275390624999998
1.4445556640625
1.4155517578124999
1.3712402343749999
1.4244140625
1.4703369140625
1.5090087890625
1.5364013671874999
1.513037109375
1.4445556640625
1.4437499999999999
1.513037109375
1.5597656249999998
1.5686279296874999
1.5654052734375
1.522705078125
1.513037109375
1.3792968749999999
1.477587890625
1.5106201171875
1.4864501953125
1.5154541015624998
1.6427490234375
1.8457763671874998
1.7934082031249998
1.7603759765625
1.7088134765624998
1.6185791015625
1.5541259765625
1.5146484375
1.5589599609375
1.5428466796875
1.5404296874999999
1.5621826171875
1.542041015625
1.5082031249999999
1.4558349609374999
1.5347900390625
1.7378173828124999
1.6725585937499998
1.6129394531249999
1.6330810546874999
1.56943359375
1.5154541015624998
1.4719482421874999
1.3744628906249998
1.4437499999999999
1.4348876953124998
1.5057861328125
1.5380126953125
1.51787109375
1.52109375
1.4993408203124998
1.5323730468749999
1.5218994140625
1.5589599609375
1.5968261718749999
1.5702392578125
1.5509033203125
1.3664062499999998
1.3946044921874998
1.480810546875
1.4638916015624999
1.5597656249999998
1.6298583984375
1.6975341796874999
1.8361083984375
1.7974365234374998
1.6685302734374998
1.603271484375
1.6024658203125
1.5718505859374998
1.5758789062499998
1.5396240234374998
1.5605712890624999
1.56298828125
1.5637939453124998
1.56298828125
1.5364013671874999
1.538818359375
1.7531249999999998
1.7120361328125
1.64677734375
1.6242187499999998
1.60166015625
1.5557373046874998
1.4872558593749998
1.3575439453125
1.3672119140624999
1.380908203125
1.4606689453125
1.464697265625
1.45341796875
1.5235107421874998
1.5605712890624999
1.538818359375
1.56298828125
1.5678222656249998
1.611328125
1.5887695312499999
1.5114257812499998
1.3180664062499998
1.3873535156249999
1.40830078125
1.4912841796874998
1.5589599609375
1.6508056640625
1.706396484375
1.74345703125
1.7466796875
1.6846435546874998
1.5968261718749999
1.5791015625
1.6008544921874999
1.6161621093749998
1.6089111328124999
1.561376953125
1.5565429687499999
1.5678222656249998
1.5436523437499998
1.5186767578125
1.5815185546875
1.699951171875
1.7007568359374998
1.6201904296874998
1.6620849609375
1.5718505859374998
1.496923828125
1.4598632812499999
1.4389160156249998
1.4034667968749999
1.377685546875
1.409912109375
1.4679199218749999
1.4381103515625
1.445361328125
1.5122314453124999
1.538818359375
1.606494140625
1.571044921875
1.5331787109375
1.4928955078125
1.5509033203125
1.3398193359375
1.42119140625
1.4687255859375
1.5033691406249998
1.5573486328125
1.6169677734374999
1.6000488281249998
1.832080078125
1.8119384765625
1.7120361328125
1.6306640625
1.5847412109374999
1.5839355468749998
1.6105224609375
1.5323730468749999
1.5927978515624999
1.5428466796875
1.5565429687499999
1.5734619140625
1.6306640625
1.6322753906249998
1.6951171875
1.714453125
1.6620849609375
1.6169677734374999
1.6008544921874999
1.490478515625
1.416357421875
1.38896484375
1.3559326171875
1.43408203125
1.461474609375
1.474365234375
1.4848388671875
1.5122314453124999
1.509814453125
1.5218994140625
1.4977294921875
1.5573486328125
1.6048828124999999
1.5984375
1.5315673828124998
1.4074951171874999
1.3092041015625
1.448583984375
1.4791992187499998
1.5275390624999998
1.5911865234375
1.6209960937499999
1.8280517578125
1.819189453125
1.7652099609374998
1.6185791015625
1.6282470703124998
1.5331787109375
1.5041748046874999
1.546875
1.5734619140625
1.5831298828125
1.5396240234374998
1.5235107421874998
1.53076171875
1.6024658203125
1.546875
1.719287109375
1.6765869140624998
1.61455078125
1.64677734375
1.5799072265624998
1.4945068359375
1.4091064453125
1.3849365234375
1.384130859375
1.4219970703125
1.5106201171875
1.5033691406249998
1.4832275390624998
1.5122314453124999
1.5686279296874999
1.5589599609375
1.5517089843749998
1.5791015625
1.545263671875
1.53076171875
1.4872558593749998
1.297119140625
1.3897705078125
1.4800048828124999
1.5428466796875
1.5815185546875
1.651611328125
1.735400390625
1.783740234375
1.732177734375
1.6588623046875
1.6451660156249999
1.6395263671875
1.577490234375
1.5090087890625
1.458251953125
1.5686279296874999
1.5525146484374999
1.5605712890624999
1.5573486328125
1.5927978515624999
1.6314697265625
1.7781005859374999
1.6798095703125
1.6218017578125
1.6403320312499998
1.5355957031249998
1.496923828125
1.4066894531249998
1.384130859375
1.40185546875
1.4203857421875
1.4767822265625
1.5170654296875
1.49853515625
1.533984375
1.5404296874999999
1.558154296875
1.5202880859374999
1.5436523437499998
1.4977294921875
1.52109375
1.538818359375
1.31162109375
1.4203857421875
1.4308593749999998
1.5073974609374998
1.571044921875
1.5863525390625
1.699951171875
1.7982421874999999
1.71123046875
1.6765869140624998
1.609716796875
1.6234130859375
1.6089111328124999
1.6024658203125
1.571044921875
1.522705078125
1.5541259765625
1.558154296875
1.590380859375
1.5323730468749999
1.56943359375
1.7603759765625
1.690283203125
1.641943359375
1.5654052734375
1.542041015625
1.477587890625
1.4477783203124999
1.3954101562499999
1.377685546875
1.4058837890625
1.4501953125
1.4711425781249998
1.5299560546875
1.5573486328125
1.5412353515625
1.5492919921875
1.542041015625
1.538818359375
1.5025634765625
1.577490234375
1.5621826171875
1.3269287109374999
1.3929931640625
1.4550292968749998
1.4791992187499998
1.4953124999999998
1.609716796875
1.7829345703125
1.8602783203125
1.7233154296875
1.66611328125
1.6306640625
1.587158203125
1.60166015625
1.56943359375
1.590380859375
1.538818359375
1.5194824218749998
1.574267578125
1.533984375
1.52109375
1.5662109375
1.73056640625
1.7466796875
1.635498046875
1.611328125
1.56298828125
1.546875
1.4816162109375
1.3929931640625
1.348681640625
1.3946044921874998
1.4171630859375
1.5299560546875
1.5315673828124998
1.5235107421874998
1.5476806640624998
1.5412353515625
1.509814453125
1.55009765625
1.59521484375
1.5662109375
1.538818359375
1.3712402343749999
1.3261230468749998
1.4381103515625
1.48564453125
1.5315673828124998
1.5911865234375
1.6765869140624998
1.8232177734375
1.8280517578125
1.6927001953124998
1.5984375
1.5476806640624998
1.59521484375
1.554931640625
1.5396240234374998
1.5436523437499998
1.5492919921875
1.571044921875
1.5815185546875
1.5355957031249998
1.5299560546875
1.6314697265625
1.7523193359375
1.6725585937499998
1.69189453125
1.6169677734374999
1.5323730468749999
1.461474609375
1.380908203125
1.345458984375
1.4115234374999999
1.4888671875
1.4558349609374999
1.52109375
1.5041748046874999
1.49853515625
1.5960205078124998
1.6008544921874999
1.533984375
1.46953125
1.5235107421874998
1.6024658203125
1.43408203125
1.3309570312499999
1.47275390625
1.5364013671874999
1.561376953125
1.5839355468749998
1.6435546875
1.78857421875
1.7781005859374999
1.6910888671875
1.6524169921874998
1.6177734375
1.6081054687499998
1.5347900390625
1.585546875
1.5839355468749998
1.561376953125
1.5154541015624998
1.5412353515625
1.5565429687499999
1.5525146484374999
1.6540283203125
1.754736328125
1.7023681640625
1.625830078125
1.56943359375
1.4880615234374999
1.42119140625
1.4219970703125
1.3664062499999998
1.4300537109375
1.4638916015624999
1.4606689453125
1.525927734375
1.5114257812499998
1.5895751953125
1.558154296875
1.4501953125
1.4203857421875
1.5162597656249999
1.5637939453124998
1.558154296875
1.4389160156249998
1.368017578125
1.4510009765624998
1.506591796875
1.5597656249999998
1.622607421875
1.625830078125
1.803076171875
1.783740234375
1.6830322265625
1.674169921875
1.63388671875
1.6177734375
1.5815185546875
1.60166015625
1.5758789062499998
1.5364013671874999
1.561376953125
1.5541259765625
1.529150390625
1.5831298828125
1.5976318359375
1.75634765625
1.6725585937499998
1.5895751953125
1.558154296875
1.5267333984375
1.5082031249999999
1.4123291015625
1.351904296875
1.3946044921874998
1.42119140625
1.480810546875
1.533984375
1.4953124999999998
1.538818359375
1.5057861328125
1.50498046875
1.533984375
1.5162597656249999
1.5267333984375
1.5782958984375
1.53076171875
1.351904296875
1.4236083984374999
1.5484863281249999
1.5678222656249998
1.5654052734375
1.5992431640625
1.714453125
1.77890625
1.7289550781249998
1.6427490234375
1.6000488281249998
1.5879638671874998
1.561376953125
1.63388671875
1.5605712890624999
1.5621826171875
1.5654052734375
1.6081054687499998
1.5815185546875
1.5444580078124999
1.52109375
1.6878662109375
1.6604736328124998
1.6636962890625
1.6234130859375
1.5597656249999998
1.50498046875
1.3631835937499999
1.3744628906249998
1.397021484375
1.4107177734374998
1.413134765625
1.5138427734375
1.542041015625
1.53720703125
1.5267333984375
1.5122314453124999
1.51787109375
1.5186767578125
1.5444580078124999
1.5726562499999999
1.5758789062499998
1.316455078125
1.3623779296874998
1.4638916015624999
1.4550292968749998
1.5919921874999998
1.58232421875
1.703173828125
1.8199951171875
1.7313720703125
1.6749755859375
1.606494140625
1.533984375
1.5194824218749998
1.5734619140625
1.56943359375
1.5984375
1.5509033203125
1.5718505859374998
1.5718505859374998
1.5919921874999998
1.6056884765625
1.7845458984375
1.699951171875
1.6572509765624999
1.55009765625
1.5364013671874999
1.5106201171875
1.4244140625
1.3712402343749999
1.3688232421875
1.4397216796874999
1.4840332031249999
1.493701171875
1.4848388671875
1.5444580078124999
1.5654052734375
1.5186767578125
1.5533203125
1.5364013671874999
1.5001464843749999
1.5533203125
1.5186767578125
1.3148437499999999
1.3905761718749998
1.5251220703125
1.52109375
1.5533203125
1.6129394531249999
1.6765869140624998
1.8304687499999999
1.7329833984374998
1.703173828125
1.654833984375
1.5557373046874998
1.5750732421875
1.5364013671874999
1.5654052734375
1.6040771484374998
1.5355957031249998
1.5444580078124999
1.5162597656249999
1.5492919921875
1.561376953125
1.7096191406249999
1.6967285156249998
1.66611328125
1.6048828124999999
1.5460693359375
1.48564453125
1.493701171875
1.3905761718749998
1.36962890625
1.41796875
1.458251953125
1.461474609375
1.4993408203124998
1.5380126953125
1.4880615234374999
1.4848388671875
1.4872558593749998
1.56298828125
1.538818359375
1.533984375
1.609716796875
1.4123291015625
1.3929931640625
1.4880615234374999
1.525927734375
1.4783935546875
1.5791015625
1.6701416015625
1.7990478515625
1.7531249999999998
1.6886718749999998
1.6089111328124999
1.61455078125
1.56943359375
1.5557373046874998
1.5847412109374999
1.5412353515625
1.5428466796875
1.5412353515625
1.5984375
1.5428466796875
1.554931640625
1.7055908203124999
1.7450683593749998
1.6564453124999998
1.6081054687499998
1.5492919921875
1.529150390625
1.4429443359374998
1.4115234374999999
1.4526123046875
1.4348876953124998
1.4364990234375
1.4783935546875
1.4477783203124999
1.5122314453124999
1.4896728515625
1.5146484375
1.5782958984375
1.5589599609375
1.5017578125
1.59521484375
1.546875
1.4308593749999998
1.3664062499999998
1.4147460937499998
1.5484863281249999
1.6121337890624998
1.577490234375
1.6306640625
1.7901855468749999
1.764404296875
1.7120361328125
1.6266357421875
1.558154296875
1.55009765625
1.5887695312499999
1.5984375
1.5831298828125
1.5444580078124999
1.558154296875
1.5726562499999999
1.5662109375
1.5557373046874998
1.5831298828125
1.7337890624999999
1.6604736328124998
1.585546875
1.609716796875
1.58232421875
1.4630859374999998
1.377685546875
1.3744628906249998
1.4228027343749998
1.458251953125
1.5082031249999999
1.513037109375
1.533984375
1.5025634765625
1.56943359375
1.561376953125
1.5831298828125
1.5791015625
1.55009765625
1.4864501953125
1.4381103515625
1.32451171875
1.464697265625
1.4953124999999998
1.525927734375
1.5557373046874998
1.6161621093749998
1.77568359375
1.786962890625
1.7684326171875
1.6773925781249999
1.5976318359375
1.5847412109374999
1.5533203125
1.5734619140625
1.619384765625
1.5412353515625
1.5323730468749999
1.538818359375
1.5347900390625
1.5815185546875
1.5275390624999998
1.7829345703125
1.6927001953124998
1.6177734375
1.5702392578125
1.5323730468749999
1.4912841796874998
1.4510009765624998
1.4139404296875
1.4244140625
1.4107177734374998
1.4655029296875
1.5138427734375
1.5984375
1.5911865234375
1.4920898437499999
1.4767822265625
1.53076171875
1.538818359375
1.53076171875
1.5678222656249998
1.5364013671874999
1.3382080078124998
1.4252197265625
1.4590576171874998
1.4912841796874998
1.5484863281249999
1.6000488281249998
1.77568359375
1.8006591796875
1.716064453125
1.6242187499999998
1.622607421875
1.6177734375
1.6298583984375
1.6008544921874999
1.5750732421875
1.5807128906249999
1.5106201171875
1.5573486328125
1.5033691406249998
1.5243164062499999
1.5476806640624998
1.7297607421874999
1.69189453125
1.6121337890624998
1.6443603515624998
1.574267578125
1.5194824218749998
1.4332763671875
1.3921875
1.3478759765625
1.3921875
1.4598632812499999
1.4655029296875
1.4872558593749998
1.5194824218749998
1.5315673828124998
1.5428466796875
1.571044921875
1.545263671875
1.5404296874999999
1.5412353515625
1.5347900390625
1.3478759765625
1.4381103515625
1.4864501953125
1.5484863281249999
1.6185791015625
1.5976318359375
1.6975341796874999
1.7571533203124998
1.67900390625
1.6693359374999999
1.622607421875
1.574267578125
1.5492919921875
1.558154296875
1.5968261718749999
1.5533203125
1.590380859375
1.5750732421875
1.554931640625
1.5662109375
1.529150390625
1.7297607421874999
1.6967285156249998
1.64677734375
1.6290527343749999
1.5637939453124998
1.554931640625
1.4526123046875
1.416357421875
1.3921875
1.3897705078125
1.4429443359374998
1.5082031249999999
1.464697265625
1.490478515625
1.5492919921875
1.5460693359375
1.585546875
1.5766845703124999
1.5645996093749999
1.5492919921875
1.5484863281249999
1.2898681640624998
1.3269287109374999
1.4832275390624998
1.55009765625
1.6105224609375
1.6072998046875
1.651611328125
1.8183837890624999
1.8216064453124998
1.6886718749999998
1.6483886718749998
1.5597656249999998
1.5323730468749999
1.5637939453124998
1.55009765625
1.5670166015625
1.574267578125
1.554931640625
1.4526123046875
1.5492919921875
1.529150390625
1.62744140625
1.7329833984374998
1.6024658203125
1.6000488281249998
1.5992431640625
1.5597656249999998
1.4872558593749998
1.4058837890625
1.35673828125
1.397021484375
1.448583984375
1.48564453125
1.50498046875
1.5573486328125
1.509814453125
1.5275390624999998
1.5082031249999999
1.4711425781249998
1.5565429687499999
1.533984375
1.5525146484374999
1.3390136718749999
1.3019531249999998
1.4123291015625
1.5509033203125
1.577490234375
1.6121337890624998
1.732177734375
1.832080078125
1.7716552734375
1.71123046875
1.63388671875
1.5911865234375
1.6008544921874999
1.6081054687499998
1.5758789062499998
1.577490234375
1.545263671875
1.4945068359375
1.46630859375
1.51787109375
1.558154296875
1.6161621093749998
1.77568359375
1.69189453125
1.7055908203124999
1.6564453124999998
1.6282470703124998
1.4308593749999998
1.3148437499999999
1.3019531249999998
1.32451171875
1.3664062499999998
1.44052734375
1.4759765624999999
1.5082031249999999
1.533984375
1.5283447265624999
1.5525146484374999
1.5525146484374999
1.5170654296875
1.4977294921875
1.5887695312499999
1.5525146484374999
1.4042724609375
1.4356933593749999
1.429248046875
1.4526123046875
1.5194824218749998
1.611328125
1.7909912109375
1.85302734375
1.7587646484375
1.699951171875
1.6749755859375
1.5887695312499999
1.4920898437499999
1.5001464843749999
1.5895751953125
1.5976318359375
1.6201904296874998
1.5654052734375
1.5597656249999998
1.5315673828124998
1.5380126953125
1.7587646484375
1.803076171875
1.6765869140624998
1.6346923828125
1.5154541015624998
1.5017578125
1.3430419921874999
1.2753662109375
1.19560546875
1.2640869140625
1.3599609375
1.3784912109374998
1.43408203125
1.405078125
1.44052734375
1.522705078125
1.5235107421874998
1.5605712890624999
1.5662109375
1.4526123046875
1.3704345703124998
1.134375
1.2173583984375
1.2769775390625
1.332568359375
1.44052734375
1.4445556640625
1.687060546875
1.8377197265624998
1.8054931640624998
1.7184814453125
1.6701416015625
1.6040771484374998
1.3897705078125
0.94423828125
0.4954833984375
0.3504638671875
0.5406005859374999
0.6018310546875
0.22075195312499998
0.3504638671875
0.6380859375
1.2101074218749999
1.6935058593749999
1.9585693359374998
2.2341064453125
2.3203125
2.338037109375
2.2502197265625
2.0697509765624997
1.796630859375
1.619384765625
1.5565429687499999
1.4526123046875
1.377685546875
1.351904296875
1.3543212890624998
1.2689208984375
1.255224609375
1.2503906249999999
1.2270263671875
1.264892578125
1.2350830078125
0.7057617187499999
0.610693359375
0.47050781249999996
0.359326171875
0.36093749999999997
0.31904296875
0.4793701171875
0.9579345703125
1.2826171874999999
1.3712402343749999
1.55009765625
1.6508056640625
1.7668212890625
1.8441650390625
1.920703125
2.0302734375
2.08828125
2.1180908203124997
2.165625
2.2244384765625
2.2405517578125
2.602294921875
2.8294921874999996
2.9559814453124997
2.9825683593749996
3.0075439453125
2.9559814453124997
2.7255615234375
2.487890625
2.23330078125
1.9311767578124999
1.7813232421874998
1.6806152343749998
1.4928955078125
1.3962158203125
1.3180664062499998
1.2721435546875
1.1859374999999999
1.1609619140625
1.110205078125
1.03447265625
1.019970703125
0.6533935546874999
0.3585205078125
0.2715087890625
0.24331054687499998
0.15468749999999998
0.1393798828125
0.24895019531249998
0.6638671875
0.9788818359375
1.134375
1.3833251953124999
1.5509033203125
1.7370117187499998
1.85302734375
1.9682373046875
2.03671875
2.144677734375
2.180126953125
2.165625
2.18818359375
2.1333984375
2.344482421875
2.6699707031249997
2.7465087890624997
2.8657470703124996
2.8673583984374997
2.8593017578124997
2.7722900390625
2.4403564453124997
2.1374267578125
1.93359375
1.71123046875
1.53076171875
1.353515625
1.219775390625
1.1770751953125
1.1045654296875
1.0691162109374999
1.0385009765625
0.9643798828125
0.913623046875
0.8185546874999999
0.588134765625
0.2747314453125
0.2022216796875
0.08942871093749999
0.058813476562499994
0.037060546874999996
0.0378662109375
0.5631591796875
0.8177490234375
1.069921875
1.2898681640624998
1.480810546875
1.5492919921875
1.7007568359374998
1.8119384765625
1.8941162109374998
1.9392333984374999
2.028662109375
2.0625
2.0302734375
2.0334960937499997
2.180126953125
2.462109375
2.528173828125
2.5982666015625
2.7166992187499996
2.7513427734375
2.6707763671875
2.4226318359375
2.1793212890625
1.89169921875
1.7088134765624998
1.5726562499999999
1.4332763671875
1.3100097656249998
1.232666015625
1.2221923828124999
1.1899658203124999
1.16015625
1.07958984375
0.97646484375
1.0256103515625
0.8338623046875
0.339990234375
0.1740234375
0.0555908203125
0.0394775390625
0.0523681640625
0.20302734374999998
0.5115966796875
0.8628662109374999
1.1835205078125
1.3768798828125
1.5404296874999999
1.7257324218749999
1.7942138671874999
1.8256347656249998
1.8868652343749999
1.944873046875
1.96904296875
1.9650146484375
2.0262451171875
2.1060058593749997
2.096337890625
2.6280761718749996
2.7747070312499997
2.85205078125
2.9608154296875
2.9986816406249996
2.8834716796874997
2.7408691406249996
2.3879882812499997
2.13984375
1.9658203125
1.82724609375
1.654833984375
1.5146484375
1.3510986328124999
1.22783203125
1.158544921875
1.100537109375
1.071533203125
1.0336669921875
1.045751953125
0.8805908203124999
0.362548828125
0.24814453125
0.1506591796875
0.0733154296875
0.1039306640625
0.15227050781249998
0.515625
0.8451416015625
1.0505859375
1.271337890625
1.506591796875
1.5960205078124998
1.65
1.7337890624999999
1.8087158203125
1.8465820312499999
1.8554443359375
1.9182861328124998
1.9295654296875
1.9593749999999999
1.8876708984375
2.2872802734374997
2.4419677734375
2.6224365234375
2.8053222656249996
2.9583984374999996
2.8850830078125
2.6280761718749996
2.386376953125
2.1720703125
1.8892822265625
1.6798095703125
1.5839355468749998
1.3986328124999998
1.3333740234375
1.255224609375
1.1077880859375
0.9974121093749999
0.9869384765625
0.9112060546874999
0.9087890624999999
0.9224853515625
0.4890380859375
0.25458984375
0.1297119140625
0.042700195312499994
0.0394775390625
0.0990966796875
0.25620117187499997
0.7057617187499999
1.0578369140625
1.239111328125
1.432470703125
1.5509033203125
1.6830322265625
1.8151611328125
1.8820312499999998
1.9086181640625
1.9875732421874999
2.047998046875
2.0391357421875
2.0334960937499997
2.0052978515624997
2.4427734375
2.62646484375
2.7320068359375
2.8109619140624997
2.8818603515624996
2.8552734374999997
2.6844726562499996
2.4202148437499997
2.1785156249999997
2.002880859375
1.835302734375
1.722509765625
1.5718505859374998
1.5106201171875
1.2616699218749998
1.18916015625
1.148876953125
1.0465576171875
1.0376953125
0.94423828125
0.8999267578125
0.4278076171875
0.17482910156249998
0.07412109374999999
0.040283203125
0.0394775390625
0.043505859375
0.2731201171875
0.6678955078125
0.94423828125
1.2044677734375
1.5025634765625
1.67900390625
1.76279296875
1.8256347656249998
1.883642578125
1.98837890625
1.9593749999999999
1.9674316406249999
2.0254394531249997
2.0165771484375
2.04638671875
2.244580078125
2.5894042968749997
2.745703125
2.85849609375
3.011572265625
2.8319091796875
2.8367431640625
2.6159912109374996
2.402490234375
2.0689453125
1.8820312499999998
1.6669189453125
1.522705078125
1.4864501953125
1.400244140625
1.2858398437499998
1.2656982421874998
1.2093017578125
1.126318359375
1.0634765625
1.0368896484374999
0.81533203125
0.3021240234375
0.19658203124999998
0.1490478515625
0.04189453125
0.07009277343749999
0.1861083984375
0.5808837890624999
1.0352783203125
1.2511962890625
1.3704345703124998
1.4832275390624998
1.6975341796874999
1.7023681640625
1.8071044921875
1.9843505859375
1.9464843749999998
1.9843505859375
1.993212890625
1.95615234375
1.9746826171874998
1.96904296875
2.4677490234375
2.67158203125
2.7642333984375
2.9237548828124997
2.9430908203125
2.8955566406249997
2.7102539062499997
2.402490234375
2.1889892578125
1.9134521484375
1.6781982421875
1.5992431640625
1.4123291015625
1.2536132812499998
1.2125244140625
1.1512939453125
1.042529296875
0.984521484375
0.9571289062499999
0.9289306640624999
0.6888427734375
0.2989013671875
0.1651611328125
0.041088867187499996
0.0394775390625
0.0394775390625
0.046728515624999994
0.47050781249999996
0.7863281249999999
1.042529296875
1.3180664062499998
1.5154541015624998
1.6298583984375
1.7281494140625
1.796630859375
1.8006591796875
1.8683349609375
1.88525390625
1.9070068359374999
1.9295654296875
2.0012695312499997
1.9360107421875
2.5031982421874996
2.745703125
2.9140869140624996
3.005126953125
3.050244140625
3.0075439453125
2.7585937499999997
2.4774169921875
2.141455078125
1.9658203125
1.7394287109375
1.5299560546875
1.3962158203125
1.3237060546875
1.2238037109375
1.1126220703125
1.06669921875
1.0546142578125
1.0191650390625
0.9498779296875
0.9482666015625
0.46245117187499996
0.39316406249999997
0.2537841796875
0.159521484375
0.1313232421875
0.124072265625
0.356103515625
0.8604492187499999
1.0787841796875
1.2850341796875
1.4284423828125
1.5347900390625
1.638720703125
1.716064453125
1.8385253906249999
1.8667236328124999
1.8925048828125
1.915869140625
2.0109375
2.0560546875
2.086669921875
2.4613037109375
2.6361328124999996
2.6885009765624996
2.785986328125
2.81015625
2.8979736328124996
2.698974609375
2.4846679687499997
2.296142578125
2.07861328125
1.8248291015625
1.5758789062499998
1.46953125
1.3092041015625
1.22783203125
1.1206787109375
1.023193359375
1.0328613281249999
1.0078857421875
1.0892578124999999
1.0763671875
0.5873291015625
0.378662109375
0.21511230468749998
0.10554199218749999
0.0749267578125
0.107958984375
0.149853515625
0.5341552734375
0.791162109375
1.1158447265625
1.3204833984375
1.44052734375
1.6209960937499999
1.6612792968749999
1.714453125
1.8683349609375
1.8659179687499998
1.8812255859375
1.8973388671875
1.9650146484375
1.98193359375
2.2341064453125
2.505615234375
2.62646484375
2.785986328125
2.9011962890625
2.874609375
2.7980712890625
2.59423828125
2.280029296875
2.04638671875
1.864306640625
1.65
1.5122314453124999
1.4373046875
1.3140380859374998
1.2745605468749999
1.158544921875
1.11826171875
1.052197265625
1.029638671875
0.910400390625
0.5228759765625
0.1957763671875
0.19013671875
0.0708984375
0.091845703125
0.1119873046875
0.1716064453125
0.8096923828125
0.9901611328125
1.2310546875
1.4034667968749999
1.5895751953125
1.6056884765625
1.6927001953124998
1.7080078125
1.9215087890625
1.9529296875
1.9617919921875
1.996435546875
2.035107421875
2.018994140625
2.2324951171875
2.5249511718749997
2.6490234375
2.8464111328125
2.9455078125
3.0164062499999997
2.9600097656249997
2.70380859375
2.450830078125
2.135009765625
1.9464843749999998
1.7982421874999999
1.5968261718749999
1.4195800781249999
1.3140380859374998
1.2576416015624998
1.0932861328124999
1.0610595703124999
0.9635742187499999
0.945849609375
0.9571289062499999
0.708984375
0.33354492187499996
0.1264892578125
0.07412109374999999
0.0394775390625
0.037060546874999996
0.136962890625
0.4962890625
0.8677001953125
1.200439453125
1.368017578125
1.5122314453124999
1.6773925781249999
1.7740722656249999
1.8046875
1.869140625
1.880419921875
1.9360107421875
1.9553466796874999
1.928759765625
2.0230224609375
2.067333984375
2.4427734375
2.6917236328125
2.9011962890625
3.0446044921874997
3.0429931640624996
2.9664550781249996
2.8391601562499997
2.463720703125
2.2187988281249997
1.9746826171874998
1.7845458984375
1.4139404296875
1.2342773437499999
1.148876953125
1.0932861328124999
0.9869384765625
0.929736328125
0.9571289062499999
0.878173828125
0.8701171875
0.8193603515625
0.22316894531249998
0.0733154296875
0.038671874999999994
0.043505859375
0.0394775390625
0.041088867187499996
0.1973876953125
0.7871337890625
1.0417236328125
1.2737548828124998
1.38896484375
1.5186767578125
1.6717529296875
1.8175781249999998
1.920703125
1.98515625
2.0536376953124997
2.1470947265625
2.07216796875
2.109228515625
2.08828125
2.5128662109374997
2.63291015625
2.8866943359375
2.99384765625
3.0462158203125
3.0478271484375
2.8141845703125
2.56845703125
2.3315917968749997
1.9118408203125
1.7394287109375
1.6024658203125
1.364794921875
1.2938964843749998
1.2439453125
1.1859374999999999
1.084423828125
1.074755859375
0.9394042968749999
0.9079833984375
0.903955078125
0.3424072265625
0.17724609375
0.08701171875
0.04189453125
0.03544921875
0.042700195312499994
0.19013671875
0.6018310546875
0.9788818359375
1.213330078125
1.35673828125
1.4840332031249999
1.6846435546874998
1.7700439453124999
1.8344970703124999
1.893310546875
1.8957275390625
1.9263427734374998
1.944873046875
1.93681640625
1.8876708984375
2.2236328125
2.5209228515624997
2.634521484375
2.7521484375
2.8883056640625
2.92939453125
2.8061279296875
2.5934326171874997
2.2341064453125
2.0012695312499997
1.8232177734375
1.699951171875
1.4783935546875
1.4300537109375
1.2431396484375
1.187548828125
1.12470703125
1.119873046875
1.0932861328124999
1.026416015625
0.9466552734375
0.5204589843749999
0.33193359375
0.16435546874999998
0.0733154296875
0.043505859375
0.1007080078125
0.1264892578125
0.7355712890624999
1.00224609375
1.1496826171874999
1.3728515625
1.5758789062499998
1.722509765625
1.796630859375
1.899755859375
1.96904296875
1.998046875
2.0085205078125
2.0939208984374997
2.0326904296875
2.0657226562499997
2.3581787109375
2.608740234375
2.7521484375
2.908447265625
3.0228515624999996
3.0172119140625
2.972900390625
2.73603515625
2.4999755859375
2.1422607421874997
1.9231201171874999
1.796630859375
1.6701416015625
1.571044921875
1.4550292968749998
1.4058837890625
1.2503906249999999
1.2455566406249998
1.1666015625
1.10859375
0.9958007812499999
0.6533935546874999
0.348046875
0.1248779296875
0.0539794921875
0.040283203125
0.04189453125
0.078955078125
0.526904296875
0.797607421875
1.0650878906249999
1.3220947265624998
1.4550292968749998
1.5565429687499999
1.706396484375
1.7507080078125
1.941650390625
1.9223144531249998
1.93359375
2.0133544921874997
2.109228515625
2.0375244140624997
2.0657226562499997
2.4919189453125
2.65546875
2.8286865234375
2.972900390625
2.9986816406249996
2.96484375
2.7255615234375
2.360595703125
2.11728515625
1.9295654296875
1.6886718749999998
1.574267578125
1.4066894531249998
1.2818115234374998
1.255224609375
1.126318359375
0.984521484375
0.9450439453124999
0.8258056640625
0.837890625
0.62197265625
0.22478027343749998
0.049145507812499996
0.0394775390625
0.040283203125
0.043505859375
0.040283203125
0.44230957031249996
0.684814453125
0.9772705078124999
1.2503906249999999
1.3792968749999999
1.5412353515625
1.670947265625
1.7934082031249998
1.8538330078124998
1.9424560546874998
2.03994140625
2.0423583984375
2.086669921875
2.0987548828125
2.1487060546875
2.4991699218749996
2.6780273437499997
2.8294921874999996
2.9592041015625
3.0172119140625
3.001904296875
2.81015625
2.5676513671874996
2.289697265625
2.0584716796875
1.8199951171875
1.6266357421875
1.4767822265625
1.3390136718749999
1.22783203125
1.1029541015625
1.01513671875
0.9482666015625
0.9232910156249999
0.8741455078125
0.8967041015624999
0.394775390625
0.21511230468749998
0.13212890624999998
0.042700195312499994
0.041088867187499996
0.041088867187499996
0.2771484375
0.765380859375
1.042529296875
1.2697265624999998
1.44052734375
1.6121337890624998
1.6556396484375
1.7466796875
1.869140625
1.9916015624999999
2.012548828125
2.099560546875
2.144677734375
2.0536376953124997
2.0012695312499997
2.454052734375
2.5555664062499996
2.7030029296875
2.8069335937499997
2.9326171875
2.9656494140625
2.8141845703125
2.4991699218749996
2.2341064453125
2.0254394531249997
1.82724609375
1.6306640625
1.4268310546874998
1.3067871093749999
1.1835205078125
1.1295410156249999
1.03447265625
0.9659912109375
0.9474609374999999
0.968408203125
0.8193603515625
0.36496582031249997
0.24814453125
0.1861083984375
0.04189453125
0.0394775390625
0.04189453125
0.20947265625
0.6638671875
0.9410156249999999
1.17626953125
1.224609375
1.5090087890625
1.5670166015625
1.699951171875
1.8006591796875
1.8216064453124998
1.909423828125
1.941650390625
1.9400390625
1.94970703125
1.9521240234375
2.292919921875
2.56845703125
2.7932373046874996
2.953564453125
3.0091552734375
3.027685546875
2.9076416015624997
2.6417724609374997
2.3936279296875
2.0778076171874997
1.9263427734374998
1.77890625
1.5919921874999998
1.4542236328125
1.3140380859374998
1.1859374999999999
1.123095703125
0.9990234375
0.9877441406249999
1.0433349609375
1.0030517578125
0.7460449218749999
0.39799804687499996
0.1877197265625
0.045117187499999996
0.0362548828125
0.04189453125
0.09426269531249999
0.49870605468749996
0.8725341796874999
1.1053710937499999
1.2906738281249999
1.4316650390624999
1.5251220703125
1.5726562499999999
1.6814208984374999
1.8441650390625
1.87236328125
1.9078125
2.015771484375
2.0302734375
2.07216796875
2.32998046875
2.631298828125
2.76181640625
2.8528564453125
2.9720947265624997
2.9761230468749997
2.9205322265625
2.6304931640625
2.3823486328125
2.1583740234374997
1.8908935546874999
1.674169921875
1.429248046875
1.40830078125
1.3156494140625
1.213330078125
1.2157470703125
1.147265625
1.1303466796875
1.01513671875
1.042529296875
0.7057617187499999
0.37302246093749997
0.2457275390625
0.0443115234375
0.041088867187499996
0.04189453125
0.11923828125
0.4970947265625
0.9015380859375
1.1093994140624999
1.3083984375
1.4574462890625
1.5364013671874999
1.7184814453125
1.8022705078124999
1.8578613281249998
1.9706542968749998
2.0173828124999997
1.9988525390624998
1.9408447265625
1.9996582031249999
2.023828125
2.4822509765625
2.6675537109375
2.7972656249999996
2.9036132812499997
2.9438964843749997
2.9914306640625
2.7046142578124996
2.4725830078124997
2.1487060546875
1.9754882812499999
1.7474853515625
1.5186767578125
1.4034667968749999
1.3744628906249998
1.2495849609374998
1.1222900390625
1.02802734375
1.00546875
0.8789794921874999
0.7758544921874999
0.7742431640624999
0.24089355468749998
0.0837890625
0.043505859375
0.037060546874999996
0.04189453125
0.040283203125
0.22236328125
0.6993164062499999
0.9224853515625
1.11181640625
1.3333740234375
1.4493896484375
1.625830078125
1.6862548828125
1.7813232421874998
1.8377197265624998
1.8369140625
1.9464843749999998
1.9271484374999999
1.95615234375
1.9916015624999999
2.463720703125
2.59423828125
2.7505371093749997
2.9414794921875
2.977734375
3.0075439453125
2.892333984375
2.5555664062499996
2.2792236328124997
2.05283203125
1.8103271484374999
1.5984375
1.5170654296875
1.3905761718749998
1.2777832031249998
1.20849609375
1.16337890625
1.06669921875
1.0731445312499999
0.9966064453125
0.93779296875
0.4084716796875
0.17644042968749998
0.04189453125
0.0443115234375
0.0394775390625
0.04833984375
0.3440185546875
0.7226806640625
0.9514892578124999
1.1480712890625
1.2890625
1.51787109375
1.6669189453125
1.8135498046874998
1.8699462890624998
1.977099609375
2.0625
2.112451171875
2.2051025390625
2.199462890625
2.1551513671875
2.3694580078125
2.747314453125
2.9221435546874996
3.0462158203125
3.0486328124999997
3.04541015625
2.9269775390625
2.6361328124999996
2.2373291015625
1.9078125
1.74345703125
1.546875
1.3414306640625
1.2777832031249998
1.1537109374999999
1.139208984375
1.0505859375
0.9974121093749999
1.026416015625
0.9659912109375
0.9514892578124999
0.55107421875
0.278759765625
0.1998046875
0.0555908203125
0.040283203125
0.040283203125
0.0958740234375
0.55751953125
1.0465576171875
1.174658203125
1.4316650390624999
1.5436523437499998
1.6991455078125
1.7507080078125
1.8908935546874999
1.9956298828124999
1.998046875
2.0713623046875
2.1116455078125
2.0826416015625
2.141455078125
2.4387451171875
2.7271728515625
2.7827636718749997
2.9350341796875
3.011572265625
2.9712890625
3.0083496093749997
2.7021972656249997
2.34931640625
2.0987548828125
1.8884765625
1.7611816406249998
1.6209960937499999
1.4630859374999998
1.3075927734375
1.19560546875
1.158544921875
1.0916748046875
1.05380859375
1.0143310546875
0.974853515625
0.6759521484375
0.32145996093749996
0.1345458984375
0.040283203125
0.040283203125
0.0394775390625
0.069287109375
0.45036621093749996
0.7718261718749999
1.0288330078124999
1.2938964843749998
1.4759765624999999
1.6298583984375
1.7490966796874998
1.93681640625
2.0149658203125
2.0302734375
2.096337890625
1.9706542968749998
2.1076171875
2.0947265625
2.1487060546875
2.5845703125
2.7465087890624997
2.8794433593749997
2.9833740234375
3.0470214843749996
3.04541015625
2.7892089843749996
2.5233398437499996
2.2365234375
1.996435546875
1.7926025390625
1.5533203125
1.3946044921874998
1.2624755859374999
1.06669921875
0.9933837890624999
0.91845703125
0.8668945312499999
0.78310546875
0.736376953125
0.7218749999999999
0.18691406249999998
0.078955078125
0.040283203125
0.040283203125
0.040283203125
0.042700195312499994
0.3037353515625
0.7315429687499999
1.0368896484374999
1.1899658203124999
1.4219970703125
1.4945068359375
1.6814208984374999
1.7418457031249999
1.8570556640625
1.9376220703125
1.9779052734375
2.1035888671875
2.255859375
2.2751953124999997
2.1543457031249997
2.719921875
2.91328125
3.02607421875
3.04541015625
3.0462158203125
3.0429931640624996
2.7545654296874997
2.4580810546875
2.2099365234375
1.9303710937499998
1.690283203125
1.53076171875
1.3905761718749998
1.3059814453124998
1.2383056640624999
1.164990234375
1.045751953125
0.95390625
0.9257080078125
0.9071777343749999
0.8725341796874999
0.42136230468749997
0.2441162109375
0.0708984375
0.042700195312499994
0.037060546874999996
0.041088867187499996
0.19899902343749998
0.6654785156249999
0.894287109375
1.110205078125
1.3575439453125
1.426025390625
1.5492919921875
1.690283203125
1.7152587890625
1.735400390625
1.9223144531249998
1.9754882812499999
1.9714599609374999
2.0294677734374997
2.012548828125
2.386376953125
2.753759765625
2.7932373046874996
2.95517578125
3.0446044921874997
3.0075439453125
2.9334228515625
2.6739990234374997
2.257470703125
1.9835449218749999
1.8473876953125
1.6991455078125
1.50498046875
1.4042724609375
1.3204833984375
1.2616699218749998
1.1142333984375
1.007080078125
0.9369873046874999
0.9579345703125
0.889453125
0.29326171875
0.09829101562499999
0.0394775390625
0.041088867187499996
0.042700195312499994
0.040283203125
0.0837890625
0.6646728515625
0.966796875
1.1375976562499999
1.26005859375
1.51787109375
1.6234130859375
1.714453125
1.8054931640624998
1.85625
1.9456787109375
2.0069091796875
2.0665283203125
2.05927734375
2.035107421875
2.34287109375
2.618408203125
2.8037109375
3.0139892578125
3.043798828125
3.0204345703124997
2.953564453125
2.5797363281249996
2.2905029296875
1.977099609375
1.7096191406249999
1.60166015625
1.5001464843749999
1.31162109375
1.2528076171875
1.1174560546874999
1.0932861328124999
0.9917724609374999
0.9410156249999999
0.8685058593749999
0.742822265625
0.35368652343749996
0.0717041015625
0.040283203125
0.0394775390625
0.037060546874999996
0.04189453125
0.08137207031249999
0.5647705078124999
0.878173828125
1.198828125
1.3954101562499999
1.4598632812499999
1.6024658203125
1.8095214843749998
1.9295654296875
2.0278564453125
2.022216796875
2.115673828125
2.1696533203125
2.1406494140625
2.051220703125
2.0665283203125
2.6458007812499997
2.9044189453125
3.0446044921874997
3.0486328124999997
3.0478271484375
3.043798828125
2.8053222656249996
2.537841796875
2.135009765625
1.8699462890624998
1.714453125
1.4389160156249998
1.2656982421874998
1.1754638671875
1.0513916015625
1.0505859375
1.039306640625
1.0409179687499999
0.9385986328125
0.8290283203125
0.784716796875
0.1732177734375
0.042700195312499994
0.043505859375
0.041088867187499996
0.040283203125
0.041088867187499996
0.28681640625
0.8016357421875
1.0385009765625
1.26328125
1.44052734375
1.5887695312499999
1.7289550781249998
1.9142578124999998
1.94970703125
1.9706542968749998
1.9859619140625
2.0294677734374997
2.0923095703125
2.0657226562499997
2.067333984375
2.634521484375
2.8335205078124996
3.0349365234374996
3.0462158203125
3.0470214843749996
3.043798828125
2.7964599609375
2.55234375
2.2469970703124997
1.9835449218749999
1.7958251953125
1.6669189453125
1.522705078125
1.2858398437499998
1.181103515625
1.095703125
1.0256103515625
0.926513671875
0.91845703125
0.862060546875
0.8838134765625
0.2956787109375
0.11843261718749999
0.040283203125
0.040283203125
0.042700195312499994
0.037060546874999996
0.30615234375
0.694482421875
1.0288330078124999
1.252001953125
1.4711425781249998
1.5960205078124998
1.6798095703125
1.8046875
1.9086181640625
2.0181884765625
2.0431640625
2.1052001953125
2.1325927734375
2.0898925781249997
2.07216796875
2.4484130859374997
2.824658203125
3.0244628906249997
3.04541015625
3.0462158203125
3.04541015625
2.908447265625
2.663525390625
2.3396484374999997
2.1245361328125
1.896533203125
1.5645996093749999
1.4574462890625
1.3309570312499999
1.1545166015625
1.1158447265625
1.023193359375
0.8910644531249999
0.8701171875
0.8201660156249999
0.765380859375
0.19094238281249998
0.0378662109375
0.0394775390625
0.0394775390625
0.0394775390625
0.037060546874999996
0.14501953125
0.8266113281249999
1.039306640625
1.2536132812499998
1.5275390624999998
1.606494140625
1.7249267578124998
1.7797119140625
1.8868652343749999
1.8844482421875
1.9392333984374999
1.9698486328125
2.0375244140624997
2.0858642578124997
2.0536376953124997
2.3968505859375
2.7247558593749996
2.856884765625
3.0446044921874997
3.0494384765625
3.043798828125
2.9181152343749996
2.6538574218749997
2.34609375
1.9376220703125
1.740234375
1.5484863281249999
1.4058837890625
1.2302490234374999
1.2060791015624999
1.0223876953125
1.0167480468749999
0.9651855468749999
0.9224853515625
0.88623046875
0.9224853515625
0.5841064453125
0.23525390624999998
0.041088867187499996
0.040283203125
0.037060546874999996
0.04189453125
0.040283203125
0.4962890625
0.8660888671875
1.2286376953125
1.3825195312499998
1.53720703125
1.6588623046875
1.7619873046874999
1.848193359375
1.980322265625
2.0310791015625
2.0576660156249997
2.109228515625
2.14306640625
2.131787109375
2.1100341796874997
2.6594970703125
2.824658203125
2.9962646484374997
3.0446044921874997
3.050244140625
3.043798828125
2.72958984375
2.360595703125
2.14306640625
1.9650146484375
1.635498046875
1.4622802734375
1.3229003906249999
1.1980224609374999
1.0634765625
1.06669921875
1.0143310546875
0.926513671875
0.8596435546875
0.8596435546875
0.46567382812499997
0.041088867187499996
0.037060546874999996
0.040283203125
0.043505859375
0.037060546874999996
0.042700195312499994
0.5406005859374999
0.833056640625
1.1690185546875
1.34384765625
1.6290527343749999
1.7660156249999999
1.8409423828125
1.909423828125
1.93359375
2.075390625
2.173681640625
2.1760986328125
2.1841552734375
2.2083251953125
2.241357421875
2.808544921875
3.0043212890624997
3.0470214843749996
3.04541015625
3.0470214843749996
3.0486328124999997
2.7497314453125
2.4363281249999997
2.1970458984375
1.88525390625
1.5919921874999998
1.4526123046875
1.1690185546875
1.058642578125
0.9990234375
0.887841796875
0.8193603515625
0.81533203125
0.71220703125
0.6743408203125
0.6654785156249999
0.041088867187499996
0.040283203125
0.038671874999999994
0.037060546874999996
0.038671874999999994
0.038671874999999994
0.31662597656249997
0.8185546874999999
1.21171875
1.4364990234375
1.6814208984374999
1.7418457031249999
1.832080078125
1.8900878906249998
1.9907958984374998
2.0745849609375
2.1325927734375
2.1793212890625
2.2187988281249997
2.20751953125
2.151123046875
2.6748046875
3.0470214843749996
3.0478271484375
3.0446044921874997
3.050244140625
3.0429931640624996
2.9624267578124996
2.6748046875
2.22041015625
1.9988525390624998
1.72412109375
1.456640625
1.22783203125
1.1464599609375
0.9869384765625
0.9240966796875
0.833056640625
0.7758544921874999
0.6872314453124999
0.69287109375
0.7959960937499999
0.040283203125
0.04189453125
0.040283203125
0.041088867187499996
0.041088867187499996
0.0394775390625
0.0443115234375
0.8274169921875
1.1561279296875
1.442138671875
1.6693359374999999
1.828857421875
1.98837890625
2.08505859375
2.215576171875
2.2389404296874997
2.3356201171874997
2.405712890625
2.4516357421875
2.4613037109375
2.466943359375
3.04541015625
3.04541015625
3.0462158203125
3.0478271484375
3.0421875
3.0462158203125
3.0429931640624996
2.6224365234375
2.1946289062499997
1.8143554687499999
1.5057861328125
1.345458984375
1.15693359375
1.03125
0.961962890625
0.7951904296875
0.7565185546875
0.833056640625
0.8427246093749999
0.8531982421875
0.8443359374999999
0.175634765625
0.040283203125
0.0378662109375
0.040283203125
0.0443115234375
0.042700195312499994
0.04189453125
0.87978515625
1.35673828125
1.8103271484374999
2.04638671875
2.3267578125
2.5740966796875
2.7207275390624996
2.874609375
2.96484375
3.0486328124999997
3.0462158203125
3.050244140625
3.0462158203125
3.0462158203125
3.0462158203125
3.0486328124999997
3.0486328124999997
3.0478271484375
3.043798828125
3.0462158203125
3.0462158203125
3.0470214843749996
3.043798828125
3.0470214843749996
3.0470214843749996
3.0470214843749996
3.043798828125
3.0446044921874997
3.0446044921874997
3.0405761718749997
3.0486328124999997
3.0462158203125
3.04541015625
3.0429931640624996
3.04541015625
3.0470214843749996
3.04541015625
3.0478271484375
3.043798828125
3.04541015625
3.050244140625
3.0486328124999997
3.0478271484375
3.0462158203125
3.0462158203125
2.8786376953125
2.437939453125
1.9513183593749999
1.3672119140624999
1.1045654296875
0.7798828124999999
0.6977050781249999
0.6187499999999999
0.6509765624999999
0.720263671875
0.80888671875
0.823388671875
1.67578125
1.4228027343749998
1.21171875
0.994189453125
0.6598388671875
0.3544921875
0.0394775390625
0.040283203125
0.042700195312499994
0.167578125
0.3424072265625
0.526904296875
0.6711181640624999
0.839501953125
0.8701171875
0.9531005859374999
0.93779296875
0.961962890625
0.9982177734375
1.0417236328125
1.0650878906249999
0.041088867187499996
0.4390869140625
0.6840087890625
0.93779296875
1.248779296875
1.4373046875
2.24619140625
2.5934326171874997
2.1624023437499997
1.64677734375
1.2938964843749998
1.1053710937499999
1.0771728515624999
1.0417236328125
1.1351806640625
1.224609375
1.2447509765625
1.26328125
1.255224609375
1.2737548828124998
1.24716796875
2.6530517578125
2.254248046875
1.9263427734374998
1.5154541015624998
1.1529052734375
0.9353759765624999
0.28681640625
0.04189453125
0.191748046875
0.5422119140625
0.961962890625
1.26005859375
1.329345703125
1.4510009765624998
1.5492919921875
1.53076171875
1.5436523437499998
1.5517089843749998
1.4928955078125
1.5017578125
1.4759765624999999
0.037060546874999996
0.668701171875
1.1867431640625
1.509814453125
1.799853515625
2.0052978515624997
3.0470214843749996
3.0478271484375
2.3904052734375
1.6314697265625
1.3704345703124998
1.2568359375
1.2890625
1.2898681640624998
1.380908203125
1.3817138671875
1.4244140625
1.448583984375
1.4389160156249998
1.4735595703125
1.4703369140625
3.0486328124999997
2.5305908203125
1.4961181640624999
1.329345703125
1.1295410156249999
0.7726318359375
0.040283203125
0.040283203125
0.15146484375
0.9192626953124999
1.3881591796875
1.6814208984374999
1.593603515625
1.9432617187499999
1.812744140625
1.803076171875
1.6935058593749999
1.6540283203125
1.658056640625
1.6282470703124998
1.6024658203125
0.0394775390625
1.2270263671875
1.9166748046875
1.9384277343749998
2.1422607421874997
2.3485107421875
2.6933349609375
3.0462158203125
2.1438720703125
1.5275390624999998
1.2125244140625
1.1617675781249999
1.3261230468749998
1.2447509765625
1.4276367187499999
1.426025390625
1.496923828125
1.5041748046874999
1.5597656249999998
1.5404296874999999
1.5275390624999998
3.04541015625
2.6659423828124997
1.587158203125
1.3962158203125
1.1416259765624999
0.7661865234374999
0.5454345703125
0.0733154296875
0.1732177734375
0.7669921875
1.458251953125
1.716064453125
1.6773925781249999
1.791796875
1.8336914062499998
1.6814208984374999
1.7531249999999998
1.6862548828125
1.6669189453125
1.658056640625
1.5734619140625
0.04189453125
0.38188476562499996
1.85625
1.9150634765624999
2.00771484375
2.2486083984375
2.6337158203124997
3.0470214843749996
2.39443359375
1.5509033203125
1.2439453125
1.2286376953125
1.2721435546875
1.27939453125
1.4510009765624998
1.361572265625
1.5025634765625
1.513037109375
1.496923828125
1.5001464843749999
1.4888671875
1.7128417968749998
3.0486328124999997
1.5847412109374999
1.38896484375
1.2955078125
0.8435302734375
0.6421142578125
0.043505859375
0.233642578125
0.7702148437499999
1.3237060546875
1.6862548828125
1.7378173828124999
1.8369140625
1.87236328125
1.6056884765625
1.7378173828124999
1.6540283203125
1.6564453124999998
1.6403320312499998
1.6330810546874999
1.287451171875
0.29326171875
1.7853515624999998
1.861083984375
1.998046875
2.20751953125
2.3646240234375
3.0470214843749996
2.3485107421875
1.6620849609375
1.2697265624999998
1.2093017578125
1.3067871093749999
1.448583984375
1.51787109375
1.32451171875
1.48564453125
1.5017578125
1.525927734375
1.509814453125
1.5347900390625
1.5396240234374998
3.0429931640624996
1.8578613281249998
1.4123291015625
1.3551269531249999
1.0328613281249999
0.8523925781249999
0.040283203125
0.13615722656249998
0.5728271484374999
1.3390136718749999
1.6346923828125
1.7329833984374998
1.6491943359374999
1.8489990234375
1.7877685546875
1.6765869140624998
1.7120361328125
1.66611328125
1.62744140625
1.6161621093749998
1.603271484375
0.040283203125
1.397021484375
1.835302734375
1.920703125
2.112451171875
2.286474609375
3.043798828125
3.0429931640624996
1.8473876953125
1.416357421875
1.2592529296875
1.2745605468749999
1.4107177734374998
1.429248046875
1.4783935546875
1.5444580078124999
1.5194824218749998
1.571044921875
1.506591796875
1.4928955078125
1.4928955078125
3.0446044921874997
1.9311767578124999
1.5718505859374998
1.4123291015625
1.05380859375
0.952294921875
0.141796875
0.1248779296875
0.5365722656249999
1.1093994140624999
1.5315673828124998
1.69833984375
1.6072998046875
1.8699462890624998
1.767626953125
1.738623046875
1.716064453125
1.6862548828125
1.6620849609375
1.6322753906249998
1.593603515625
0.043505859375
1.3188720703124999
1.861083984375
1.915869140625
2.0576660156249997
2.199462890625
2.6216308593749997
3.0446044921874997
2.0842529296875
1.5186767578125
1.2463623046874999
1.29228515625
1.4332763671875
1.4711425781249998
1.4872558593749998
1.4606689453125
1.5073974609374998
1.5122314453124999
1.5146484375
1.4912841796874998
1.529150390625
3.0486328124999997
2.4693603515625
1.53076171875
1.448583984375
1.222998046875
0.8773681640625
0.26022949218749997
0.175634765625
0.3681884765625
1.0691162109374999
1.4759765624999999
1.7249267578124998
1.6572509765624999
1.8667236328124999
1.7571533203124998
1.6266357421875
1.6935058593749999
1.6862548828125
1.687060546875
1.6427490234375
1.593603515625
0.040283203125
0.59619140625
1.8232177734375
1.8489990234375
1.94970703125
2.2469970703124997
2.513671875
3.0486328124999997
2.0761962890625
1.5484863281249999
1.303564453125
1.2938964843749998
1.4348876953124998
1.3897705078125
1.5017578125
1.525927734375
1.5194824218749998
1.542041015625
1.5364013671874999
1.4977294921875
1.5194824218749998
2.0109375
2.6208251953125
1.6048828124999999
1.400244140625
1.2383056640624999
0.8789794921874999
0.7210693359375
0.23686523437499998
0.294873046875
0.8830078124999999
1.377685546875
1.6806152343749998
1.635498046875
1.7362060546875
1.75634765625
1.6322753906249998
1.7635986328125
1.7023681640625
1.6371093749999999
1.6459716796875
1.6242187499999998
0.041088867187499996
0.375439453125
1.7853515624999998
1.8489990234375
1.972265625
2.14951171875
2.357373046875
3.0421875
2.418603515625
1.7442626953125
1.3124267578125
1.2431396484375
1.3551269531249999
1.3881591796875
1.4864501953125
1.3792968749999999
1.4920898437499999
1.5090087890625
1.533984375
1.5082031249999999
1.5202880859374999
1.64677734375
3.0486328124999997
1.5968261718749999
1.3873535156249999
1.4066894531249998
1.05380859375
0.7532958984375
0.0443115234375
0.16435546874999998
0.8161376953124999
1.3478759765625
1.6250244140624999
1.6822265625
1.7200927734375
1.8336914062499998
1.74345703125
1.719287109375
1.6653076171874999
1.6282470703124998
1.6612792968749999
1.6459716796875
1.5283447265624999
0.040283203125
1.76279296875
1.8498046874999998
1.9190917968749999
2.147900390625
2.2872802734374997
3.0429931640624996
2.5177001953125
1.7571533203124998
1.3301513671874998
1.3043701171875
1.3583496093749998
1.4590576171874998
1.4832275390624998
1.384130859375
1.506591796875
1.4759765624999999
1.49853515625
1.4872558593749998
1.509814453125
1.4848388671875
3.043798828125
1.9070068359374999
1.5525146484374999
1.3639892578125
1.0691162109374999
0.93779296875
0.040283203125
0.17482910156249998
0.639697265625
1.1778808593749999
1.6153564453125
1.6524169921874998
1.6169677734374999
1.780517578125
1.791796875
1.687060546875
1.7587646484375
1.6532226562499999
1.6427490234375
1.6314697265625
1.5831298828125
0.041088867187499996
1.4123291015625
1.8473876953125
1.8828369140624999
2.0230224609375
2.1825439453124997
3.0470214843749996
3.0486328124999997
2.0197998046875
1.4026611328124998
1.255224609375
1.2850341796875
1.448583984375
1.4872558593749998
1.529150390625
1.464697265625
1.4953124999999998
1.5347900390625
1.5347900390625
1.5355957031249998
1.5275390624999998
3.04541015625
1.9295654296875
1.533984375
1.4501953125
1.2173583984375
0.9329589843749999
0.17724609375
0.2054443359375
0.5760498046875
1.142431640625
1.4800048828124999
1.64677734375
1.6177734375
1.869140625
1.7668212890625
1.751513671875
1.7345947265625
1.6588623046875
1.6411376953124999
1.641943359375
1.619384765625
0.038671874999999994
1.2584472656249999
1.8071044921875
1.832080078125
1.98515625
2.1624023437499997
2.55234375
3.0421875
2.1519287109375
1.5670166015625
1.340625
1.3011474609375
1.429248046875
1.3865478515624998
1.4735595703125
1.480810546875
1.52109375
1.5170654296875
1.5082031249999999
1.5122314453124999
1.4961181640624999
3.0446044921874997
2.5265625
1.5726562499999999
1.4542236328125
1.2608642578125
0.9112060546874999
0.43505859375
0.2360595703125
0.37705078124999997
0.9192626953124999
1.4671142578124998
1.6540283203125
1.64677734375
1.8522216796875
1.7378173828124999
1.6040771484374998
1.767626953125
1.6846435546874998
1.6532226562499999
1.622607421875
1.6508056640625
0.0378662109375
0.5260986328125
1.8457763671874998
1.8175781249999998
1.928759765625
2.157568359375
2.4443847656249997
3.0429931640624996
2.4290771484375
1.5807128906249999
1.32451171875
1.281005859375
1.44052734375
1.3801025390625
1.4912841796874998
1.4195800781249999
1.5009521484375
1.5243164062499999
1.5267333984375
1.5331787109375
1.533984375
1.8393310546875
2.642578125
1.6250244140624999
1.43408203125
1.3857421875
0.9410156249999999
0.7460449218749999
0.0684814453125
0.322265625
0.8725341796874999
1.384130859375
1.587158203125
1.619384765625
1.73056640625
1.7748779296875
1.6105224609375
1.7184814453125
1.67578125
1.6459716796875
1.6435546875
1.6056884765625
1.3510986328124999
0.33193359375
1.7450683593749998
1.799853515625
1.8973388671875
2.1390380859375
2.3468994140625
3.0470214843749996
2.5249511718749997
1.7466796875
1.4091064453125
1.2616699218749998
1.3478759765625
1.445361328125
1.5041748046874999
1.3607666015625
1.50498046875
1.5162597656249999
1.5154541015624998
1.53076171875
1.5315673828124998
1.5831298828125
3.0470214843749996
1.8095214843749998
1.397021484375
1.3905761718749998
1.052197265625
0.7919677734374999
0.049145507812499996
0.2344482421875
0.6775634765624999
1.332568359375
1.5839355468749998
1.71123046875
1.722509765625
1.7724609375
1.7362060546875
1.6894775390624999
1.6862548828125
1.6266357421875
1.6363037109374998
1.638720703125
1.571044921875
0.037060546874999996
1.6669189453125
1.7829345703125
1.8699462890624998
2.047998046875
2.2751953124999997
3.0494384765625
3.0429931640624996
1.7740722656249999
1.3921875
1.2987304687499999
1.37607421875
1.4526123046875
1.4542236328125
1.4912841796874998
1.5509033203125
1.5186767578125
1.5251220703125
1.5057861328125
1.5267333984375
1.545263671875
3.0446044921874997
1.928759765625
1.5662109375
1.4598632812499999
1.09248046875
0.9531005859374999
0.22075195312499998
0.21672363281249998
0.6767578125
1.1738525390624999
1.5589599609375
1.6806152343749998
1.6475830078125
1.8103271484374999
1.73056640625
1.6645019531249998
1.6862548828125
1.65
1.6161621093749998
1.6185791015625
1.5750732421875
0.042700195312499994
1.3792968749999999
1.8465820312499999
1.8747802734374999
2.023828125
2.1148681640625
3.0446044921874997
3.043798828125
2.0375244140624997
1.5275390624999998
1.281005859375
1.30517578125
1.4252197265625
1.45341796875
1.5122314453124999
1.4477783203124999
1.5186767578125
1.52109375
1.496923828125
1.474365234375
1.50498046875
3.04541015625
2.399267578125
1.5323730468749999
1.445361328125
1.2576416015624998
1.013525390625
0.34562988281249996
0.262646484375
0.48581542968749997
1.15048828125
1.477587890625
1.6379150390625
1.585546875
1.8216064453124998
1.7474853515625
1.735400390625
1.683837890625
1.651611328125
1.6395263671875
1.6314697265625
1.609716796875
0.040283203125
1.2310546875
1.7909912109375
1.7716552734375
1.9376220703125
2.1704589843749997
2.4870849609374996
3.04541015625
2.1325927734375
1.5791015625
1.3704345703124998
1.3382080078124998
1.4364990234375
1.3527099609375
1.5162597656249999
1.4574462890625
1.5041748046874999
1.5202880859374999
1.5114257812499998
1.53076171875
1.4993408203124998
3.04541015625
2.4943359375
1.5702392578125
1.4308593749999998
1.2528076171875
0.9273193359374999
0.7637695312499999
0.291650390625
0.43828124999999996
0.945849609375
1.5025634765625
1.65966796875
1.6000488281249998
1.732177734375
1.7208984374999998
1.590380859375
1.6886718749999998
1.6532226562499999
1.6556396484375
1.65
1.6008544921874999
0.042700195312499994
0.5422119140625
1.7652099609374998
1.8232177734375
1.8989501953124999
2.1358154296875
2.4210205078125
3.04541015625
2.425048828125
1.7724609375
1.332568359375
1.3148437499999999
1.3583496093749998
1.3478759765625
1.477587890625
1.4356933593749999
1.4953124999999998
1.5122314453124999
1.5235107421874998
1.4953124999999998
1.477587890625
1.7329833984374998
3.04541015625
1.6024658203125
1.4364990234375
1.3736572265625
0.9369873046874999
0.7500732421874999
0.1329345703125
0.2827880859375
0.9635742187499999
1.3929931640625
1.5992431640625
1.6773925781249999
1.7595703125
1.7772949218749998
1.5976318359375
1.7080078125
1.67578125
1.654833984375
1.6572509765624999
1.6250244140624999
1.4115234374999999
0.36093749999999997
1.6701416015625
1.7466796875
1.8892822265625
2.1084228515625
2.23974609375
3.0462158203125
2.518505859375
1.8143554687499999
1.4381103515625
1.3237060546875
1.361572265625
1.456640625
1.4590576171874998
1.3801025390625
1.5009521484375
1.493701171875
1.5154541015624998
1.5194824218749998
1.5444580078124999
1.5509033203125
3.0470214843749996
1.95615234375
1.5597656249999998
1.3986328124999998
1.1456542968749999
1.019970703125
0.26748046875
0.3875244140625
0.7669921875
1.2576416015624998
1.533984375
1.66611328125
1.6129394531249999
1.7378173828124999
1.6959228515625
1.6483886718749998
1.6282470703124998
1.61455078125
1.5984375
1.587158203125
1.55009765625
0.038671874999999994
1.184326171875
1.6886718749999998
1.819189453125
1.95615234375
2.13984375
3.0470214843749996
3.0091552734375
2.14951171875
1.4920898437499999
1.3365966796875
1.3527099609375
1.4316650390624999
1.4558349609374999
1.5017578125
1.5476806640624998
1.5460693359375
1.5404296874999999
1.5122314453124999
1.5025634765625
1.51787109375
3.0478271484375
2.1052001953125
1.6653076171874999
1.4606689453125
1.1939941406249999
1.039306640625
0.5768554687499999
0.5115966796875
0.8201660156249999
1.20849609375
1.4751708984374998
1.5799072265624998
1.5718505859374998
1.72734375
1.6620849609375
1.6564453124999998
1.6379150390625
1.6435546875
1.622607421875
1.6177734375
1.5621826171875
0.040283203125
0.9877441406249999
1.5380126953125
1.687060546875
1.90458984375
2.0246337890625
2.2776123046875
3.0002929687499997
2.247802734375
1.719287109375
1.4155517578124999
1.3583496093749998
1.4558349609374999
1.4155517578124999
1.4518066406249999
1.4284423828125
1.4671142578124998
1.509814453125
1.5396240234374998
1.5662109375
1.53076171875
2.848828125
2.39765625
1.7764892578125
1.5517089843749998
1.3349853515624999
1.1190673828125
0.825
0.6550048828124999
0.74443359375
1.1964111328125
1.4139404296875
1.5114257812499998
1.545263671875
1.67900390625
1.622607421875
1.6209960937499999
1.6330810546874999
1.6306640625
1.6008544921874999
1.5831298828125
1.5782958984375
0.2731201171875
0.623583984375
1.4791992187499998
1.65966796875
1.7772949218749998
1.9666259765624998
2.128564453125
3.0091552734375
2.280029296875
1.7635986328125
1.5323730468749999
1.4364990234375
1.4437499999999999
1.4187744140624998
1.5146484375
1.4888671875
1.4953124999999998
1.4703369140625
1.493701171875
1.5315673828124998
1.5541259765625
1.8095214843749998
2.3775146484375
1.8143554687499999
1.5347900390625
1.3881591796875
1.2302490234374999
1.119873046875
0.829833984375
0.8386962890624999
1.0828125
1.3543212890624998
1.5202880859374999
1.5251220703125
1.571044921875
1.5879638671874998
1.5299560546875
1.63388671875
1.60166015625
1.5718505859374998
1.611328125
1.6000488281249998
0.53818359375
0.6993164062499999
1.353515625
1.5839355468749998
1.6798095703125
1.8498046874999998
1.9795166015624999
2.7851806640624996
2.421826171875
1.9537353515625
1.5645996093749999
1.4373046875
1.445361328125
1.4461669921875
1.5194824218749998
1.46953125
1.5251220703125
1.5194824218749998
1.4920898437499999
1.5275390624999998
1.5565429687499999
1.6266357421875
2.425048828125
1.803076171875
1.5911865234375
1.51787109375
1.300341796875
1.2093017578125
0.8773681640625
0.9007324218749999
1.1480712890625
1.3857421875
1.4888671875
1.5355957031249998
1.577490234375
1.6072998046875
1.5380126953125
1.5758789062499998
1.5863525390625
1.5879638671874998
1.5839355468749998
1.5686279296874999
1.490478515625
0.797607421875
1.34384765625
1.5347900390625
1.654833984375
1.770849609375
1.883642578125
2.4000732421874997
2.309033203125
1.9134521484375
