1.662890625
1.5726562499999999
1.5589599609375
1.5702392578125
1.5218994140625
1.5565429687499999
1.5589599609375
1.5895751953125
1.5992431640625
1.5541259765625
1.533984375
1.5791015625
1.867529296875
1.7821289062499999
1.683837890625
1.641943359375
1.587158203125
1.4888671875
1.3422363281249998
1.2697265624999998
1.2568359375
1.340625
1.445361328125
1.4655029296875
1.529150390625
1.5621826171875
1.5484863281249999
1.56298828125
1.545263671875
1.5436523437499998
1.5734619140625
1.56943359375
1.5114257812499998
1.2673095703125
1.3172607421875
1.496923828125
1.46630859375
1.5138427734375
1.585546875
1.7418457031249999
2.0044921875
1.8973388671875
1.716064453125
1.6322753906249998
1.590380859375
1.5847412109374999
1.5597656249999998
1.5637939453124998
1.5090087890625
1.5275390624999998
1.5009521484375
1.542041015625
1.5323730468749999
1.5267333984375
1.64677734375
1.8199951171875
1.748291015625
1.6886718749999998
1.5968261718749999
1.4872558593749998
1.4356933593749999
1.351904296875
1.2963134765625
1.3494873046875
1.361572265625
1.4993408203124998
1.4735595703125
1.48564453125
1.554931640625
1.5662109375
1.6072998046875
1.5734619140625
1.5597656249999998
1.5412353515625
1.5186767578125
1.24072265625
1.2254150390625
1.3599609375
1.4703369140625
1.554931640625
1.6137451171875
1.6556396484375
1.996435546875
1.8747802734374999
1.7450683593749998
1.6556396484375
1.6040771484374998
1.5678222656249998
1.5702392578125
1.5605712890624999
1.5404296874999999
1.5525146484374999
1.6024658203125
1.5839355468749998
1.5565429687499999
1.5162597656249999
1.58232421875
1.88525390625
1.6427490234375
1.625830078125
1.5968261718749999
1.5364013671874999
1.4228027343749998
1.3212890625
1.2592529296875
1.329345703125
1.4236083984374999
1.4783935546875
1.48564453125
1.496923828125
1.5251220703125
1.611328125
1.5670166015625
1.5670166015625
1.5960205078124998
1.5557373046874998
1.554931640625
1.4703369140625
1.2012451171875
1.3704345703124998
1.4332763671875
1.4759765624999999
1.5750732421875
1.638720703125
1.9811279296875
1.9617919921875
1.8175781249999998
1.674169921875
1.5879638671874998
1.5597656249999998
1.5573486328125
1.51787109375
1.5162597656249999
1.5686279296874999
1.603271484375
1.5984375
1.5847412109374999
1.5412353515625
1.5017578125
1.9311767578124999
1.7821289062499999
1.7257324218749999
1.641943359375
1.4993408203124998
1.4510009765624998
1.3011474609375
1.2463623046874999
1.2850341796875
1.4139404296875
1.4590576171874998
1.4518066406249999
1.4655029296875
1.5678222656249998
1.5815185546875
1.590380859375
1.574267578125
1.5299560546875
1.5831298828125
1.525927734375
1.4791992187499998
1.1045654296875
1.2866455078124999
1.4598632812499999
1.4840332031249999
1.59521484375
1.6008544921874999
1.9078125
1.9456787109375
1.8046875
1.6935058593749999
1.6532226562499999
1.5984375
1.5976318359375
1.574267578125
1.5702392578125
1.5791015625
1.513037109375
1.5299560546875
1.558154296875
1.5686279296874999
1.5315673828124998
1.8860595703124998
1.7974365234374998
1.7208984374999998
1.6612792968749999
1.5436523437499998
1.4437499999999999
1.268115234375
1.2455566406249998
1.2890625
1.3688232421875
1.4244140625
1.5146484375
1.4679199218749999
1.509814453125
1.5355957031249998
1.542041015625
1.5782958984375
1.5597656249999998
1.5758789062499998
1.5718505859374998
1.5589599609375
1.1158447265625
1.2914794921875
1.445361328125
1.5315673828124998
1.5879638671874998
1.6524169921874998
1.91748046875
1.9916015624999999
1.8498046874999998
1.7200927734375
1.6089111328124999
1.56943359375
1.5436523437499998
1.5565429687499999
1.5807128906249999
1.56943359375
1.529150390625
1.5621826171875
1.5839355468749998
1.490478515625
1.525927734375
1.9013671875
1.8457763671874998
1.7152587890625
1.6508056640625
1.56943359375
1.4429443359374998
1.3156494140625
1.2463623046874999
1.2254150390625
1.3656005859375
1.4429443359374998
1.4977294921875
1.525927734375
1.5637939453124998
1.5565429687499999
1.5484863281249999
1.5428466796875
1.554931640625
1.5267333984375
1.5460693359375
1.5589599609375
1.174658203125
1.2858398437499998
1.4155517578124999
1.4993408203124998
1.59521484375
1.6242187499999998
1.735400390625
2.015771484375
1.8409423828125
1.740234375
1.611328125
1.6048828124999999
1.5879638671874998
1.5791015625
1.571044921875
1.5565429687499999
1.558154296875
1.5396240234374998
1.5597656249999998
1.5509033203125
1.5041748046874999
1.8820312499999998
1.8739746093749998
1.7329833984374998
1.6306640625
1.5396240234374998
1.480810546875
1.3994384765624999
1.2947021484374999
1.2818115234374998
1.3011474609375
1.3881591796875
1.4638916015624999
1.490478515625
1.5895751953125
1.609716796875
1.5645996093749999
1.5573486328125
1.5444580078124999
1.561376953125
1.561376953125
1.56943359375
1.21494140625
1.268115234375
1.4469726562499998
1.4791992187499998
1.546875
1.5782958984375
1.7297607421874999
1.9746826171874998
1.8538330078124998
1.7152587890625
1.62744140625
1.6242187499999998
1.6040771484374998
1.5726562499999999
1.5573486328125
1.5944091796875
1.5702392578125
1.5243164062499999
1.5364013671874999
1.5202880859374999
1.5251220703125
1.611328125
1.8457763671874998
1.69833984375
1.6250244140624999
1.6201904296874998
1.4945068359375
1.4010498046875
1.287451171875
1.32451171875
1.3728515625
1.4244140625
1.4953124999999998
1.4655029296875
1.50498046875
1.5605712890624999
1.5597656249999998
1.5412353515625
1.5170654296875
1.5565429687499999
1.5662109375
1.5766845703124999
1.26328125
1.2109130859375
1.4058837890625
1.4719482421874999
1.55009765625
1.6153564453125
1.6669189453125
1.9432617187499999
1.8626953124999999
1.7418457031249999
1.5839355468749998
1.611328125
1.5927978515624999
1.5807128906249999
1.5202880859374999
1.5597656249999998
1.5726562499999999
1.5944091796875
1.5807128906249999
1.558154296875
1.5654052734375
1.5637939453124998
1.8707519531249999
1.7281494140625
1.6395263671875
1.60166015625
1.574267578125
1.41796875
1.2930908203125
1.2568359375
1.3390136718749999
1.4373046875
1.4864501953125
1.55009765625
1.5460693359375
1.6024658203125
1.5895751953125
1.5686279296874999
1.5162597656249999
1.542041015625
1.5645996093749999
1.529150390625
1.4598632812499999
1.106982421875
1.4171630859375
1.4840332031249999
1.5645996093749999
1.5678222656249998
1.6177734375
1.8747802734374999
1.893310546875
1.7394287109375
1.6894775390624999
1.6008544921874999
1.53720703125
1.5275390624999998
1.5517089843749998
1.5718505859374998
1.59521484375
1.5565429687499999
1.5412353515625
1.5331787109375
1.5122314453124999
1.5355957031249998
1.8981445312499998
1.751513671875
1.6185791015625
1.5670166015625
1.4912841796874998
1.4961181640624999
1.345458984375
1.3414306640625
1.3317626953125
1.4687255859375
1.458251953125
1.5146484375
1.5041748046874999
1.5170654296875
1.5654052734375
1.5533203125
1.5621826171875
1.5275390624999998
1.5404296874999999
1.5541259765625
1.5662109375
1.2415283203124998
1.3833251953124999
1.490478515625
1.529150390625
1.5597656249999998
1.6161621093749998
1.8369140625
1.9521240234375
1.851416015625
1.611328125
1.5082031249999999
1.5251220703125
1.5782958984375
1.587158203125
1.5944091796875
1.6234130859375
1.619384765625
1.5194824218749998
1.5009521484375
1.5396240234374998
1.56298828125
1.8498046874999998
1.7120361328125
1.6363037109374998
1.5815185546875
1.5073974609374998
1.490478515625
1.3873535156249999
1.409912109375
1.3261230468749998
1.3728515625
1.4469726562499998
1.4671142578124998
1.5565429687499999
1.546875
1.5243164062499999
1.5662109375
1.5734619140625
1.5380126953125
1.5323730468749999
1.5621826171875
1.5718505859374998
1.229443359375
1.368017578125
1.445361328125
1.5194824218749998
1.5807128906249999
1.635498046875
1.6612792968749999
1.9118408203125
1.7861572265624999
1.6862548828125
1.606494140625
1.6072998046875
1.5960205078124998
1.5331787109375
1.5605712890624999
1.5267333984375
1.5033691406249998
1.5364013671874999
1.5702392578125
1.5831298828125
1.5509033203125
1.7893798828124998
1.786962890625
1.6822265625
1.6137451171875
1.5533203125
1.4896728515625
1.4171630859375
1.2834228515625
1.3011474609375
1.4034667968749999
1.464697265625
1.477587890625
1.4888671875
1.525927734375
1.5557373046874998
1.5645996093749999
1.5839355468749998
1.5597656249999998
1.5380126953125
1.5750732421875
1.5944091796875
1.2777832031249998
1.35673828125
1.4767822265625
1.5194824218749998
1.561376953125
1.5895751953125
1.6725585937499998
1.9384277343749998
1.79501953125
1.6951171875
1.60166015625
1.5758789062499998
1.5557373046874998
1.5476806640624998
1.5589599609375
1.5589599609375
1.5525146484374999
1.53076171875
1.5331787109375
1.5283447265624999
1.522705078125
1.819189453125
1.7829345703125
1.65
1.6185791015625
1.61455078125
1.5162597656249999
1.45341796875
1.2745605468749999
1.268115234375
1.3575439453125
1.4493896484375
1.4872558593749998
1.5009521484375
1.5001464843749999
1.542041015625
1.5589599609375
1.5734619140625
1.5645996093749999
1.5799072265624998
1.5589599609375
1.5678222656249998
1.200439453125
1.2157470703125
1.3881591796875
1.4961181640624999
1.513037109375
1.5750732421875
1.7152587890625
1.9875732421874999
1.899755859375
1.7716552734375
1.65966796875
1.5911865234375
1.593603515625
1.5807128906249999
1.5734619140625
1.5839355468749998
1.55009765625
1.5637939453124998
1.5275390624999998
1.4800048828124999
1.5162597656249999
1.5444580078124999
1.9521240234375
1.7877685546875
1.722509765625
1.6290527343749999
1.480810546875
1.4638916015624999
1.3285400390625
1.3100097656249998
1.3897705078125
1.474365234375
1.56298828125
1.490478515625
1.405078125
1.46953125
1.5976318359375
1.5041748046874999
1.351904296875
1.2834228515625
1.1698242187499999
1.20849609375
1.0965087890625
0.6356689453125
0.9257080078125
1.1239013671875
1.377685546875
1.5017578125
1.5396240234374998
2.0689453125
2.0536376953124997
1.8062988281249999
1.6653076171874999
1.4888671875
1.4977294921875
1.4058837890625
1.4155517578124999
1.3301513671874998
1.3349853515624999
1.4364990234375
1.6290527343749999
1.5460693359375
1.6089111328124999
1.5911865234375
2.1487060546875
1.977099609375
1.7635986328125
1.6806152343749998
1.6250244140624999
1.6427490234375
1.3825195312499998
1.429248046875
1.5484863281249999
1.7692382812499998
1.877197265625
1.9086181640625
1.8232177734375
1.7587646484375
1.7039794921875
1.5799072265624998
1.5541259765625
1.480810546875
1.4066894531249998
1.3212890625
1.2697265624999998
0.613916015625
0.833056640625
0.9627685546875
1.1577392578124999
1.4598632812499999
1.5726562499999999
1.944873046875
2.1946289062499997
2.1849609375
2.0197998046875
1.815966796875
1.4912841796874998
1.33740234375
1.24072265625
1.11181640625
1.08603515625
1.1617675781249999
1.1496826171874999
1.1617675781249999
1.3994384765624999
1.5170654296875
2.550732421875
2.7561767578125
2.9519531249999997
3.043798828125
3.043798828125
2.8770263671875
2.4822509765625
1.925537109375
1.4840332031249999
1.17626953125
0.9643798828125
0.8282226562499999
0.7903564453124999
0.878173828125
0.9958007812499999
1.0320556640625
1.12470703125
1.2745605468749999
1.3333740234375
1.3502929687499998
1.42119140625
0.5164306640624999
0.4680908203125
0.404443359375
0.348046875
0.41572265625
0.6243896484375
1.3873535156249999
2.0697509765624997
2.4693603515625
2.7239501953125
2.7948486328124997
2.808544921875
2.7577880859375
2.666748046875
2.5797363281249996
2.5225341796875
2.370263671875
2.1946289062499997
2.077001953125
1.8763916015625
1.7579589843749999
2.2187988281249997
2.4629150390625
2.5273681640624996
2.5152832031249996
2.457275390625
2.2751953124999997
1.783740234375
1.345458984375
0.7259033203124999
0.543017578125
0.4125
0.291650390625
0.16838378906249998
0.2183349609375
0.314208984375
0.5486572265624999
0.6896484374999999
0.8040527343749999
0.8958984375
0.994189453125
1.15048828125
0.54140625
0.29245605468749997
0.339990234375
0.3182373046875
0.5551025390625
0.8314453125
1.1384033203125
2.054443359375
2.6103515625
2.8077392578125
2.89716796875
2.937451171875
2.969677734375
2.85849609375
2.727978515625
2.479833984375
2.3630126953125
2.24619140625
2.0584716796875
1.972265625
1.864306640625
2.3138671875
2.5974609374999997
2.6337158203124997
2.65869140625
2.5547607421875
2.321923828125
2.012548828125
1.2721435546875
0.8161376953124999
0.4197509765625
0.2747314453125
0.33676757812499997
0.4229736328125
0.5986083984375
0.736376953125
0.8983154296875
1.02158203125
1.147265625
1.232666015625
1.2536132812499998
1.364794921875
0.7645751953125
0.46567382812499997
0.4713134765625
0.48259277343749996
0.6098876953125
0.8161376953124999
1.1666015625
1.9746826171874998
2.3759033203124997
2.6627197265625
2.7030029296875
2.6562744140624996
2.5773193359374997
2.5007812499999997
2.4242431640624997
2.3009765625
2.1462890624999997
2.0012695312499997
1.9513183593749999
1.7974365234374998
1.7281494140625
1.78857421875
2.463720703125
2.425048828125
2.3984619140625
2.2985595703125
2.0625
1.80791015625
1.400244140625
0.7395996093749999
0.485009765625
0.4084716796875
0.4068603515625
0.38671875
0.4189453125
0.6324462890625
0.760546875
0.9893554687499999
1.1915771484375
1.4518066406249999
1.5589599609375
1.6201904296874998
1.1448486328125
0.8886474609374999
0.974853515625
1.0803955078125
1.3430419921874999
1.5589599609375
1.8457763671874998
2.6764160156249996
2.89072265625
2.872998046875
2.6925292968749996
2.4194091796875
2.1978515625
1.9343994140624998
1.5807128906249999
1.3825195312499998
1.348681640625
1.187548828125
1.2173583984375
1.222998046875
1.2020507812499999
1.248779296875
1.8868652343749999
1.7861572265624999
1.6346923828125
1.5887695312499999
1.3543212890624998
1.1496826171874999
0.910400390625
0.8016357421875
0.8999267578125
1.0852294921874999
1.2286376953125
1.3631835937499999
1.4655029296875
1.5637939453124998
1.58232421875
1.6129394531249999
1.5968261718749999
1.5815185546875
1.53720703125
1.574267578125
1.5573486328125
1.0078857421875
1.2769775390625
1.3414306640625
1.3736572265625
1.5799072265624998
1.6927001953124998
2.0334960937499997
2.2389404296874997
1.996435546875
1.7724609375
1.6363037109374998
1.5807128906249999
1.5476806640624998
1.5299560546875
1.4832275390624998
1.5194824218749998
1.5355957031249998
1.5235107421874998
1.525927734375
1.5533203125
1.5484863281249999
2.0149658203125
1.8957275390625
1.7265380859375
1.654833984375
1.4848388671875
1.3736572265625
1.239111328125
1.1150390625
1.2366943359375
1.2930908203125
1.4389160156249998
1.5251220703125
1.538818359375
1.5863525390625
1.5847412109374999
1.5444580078124999
1.554931640625
1.590380859375
1.593603515625
1.5597656249999998
1.546875
1.0787841796875
1.2254150390625
1.4284423828125
1.6024658203125
1.6524169921874998
1.714453125
2.002880859375
2.0737792968749997
1.9400390625
1.7289550781249998
1.6306640625
1.574267578125
1.545263671875
1.506591796875
1.558154296875
1.587158203125
1.5887695312499999
1.5637939453124998
1.533984375
1.53720703125
1.506591796875
1.9110351562499999
1.8425537109374999
1.687060546875
1.5919921874999998
1.5428466796875
1.409912109375
1.3172607421875
1.35673828125
1.30517578125
1.361572265625
1.426025390625
1.533984375
1.585546875
1.5944091796875
1.6040771484374998
1.587158203125
1.6000488281249998
1.5887695312499999
1.558154296875
1.5984375
1.5412353515625
1.0852294921874999
1.24716796875
1.4316650390624999
1.4622802734375
1.5911865234375
1.6532226562499999
1.7370117187499998
2.0431640625
1.8981445312499998
1.7370117187499998
1.6411376953124999
1.5573486328125
1.5275390624999998
1.4622802734375
1.546875
1.5557373046874998
1.577490234375
1.5267333984375
1.538818359375
1.5444580078124999
1.554931640625
1.896533203125
1.877197265625
1.6935058593749999
1.6290527343749999
1.5758789062499998
1.4800048828124999
1.345458984375
1.27939453125
1.2898681640624998
1.3559326171875
1.4590576171874998
1.4928955078125
1.5267333984375
1.577490234375
1.5645996093749999
1.5517089843749998
1.513037109375
1.585546875
1.5887695312499999
1.5686279296874999
1.5484863281249999
1.1794921875
1.2101074218749999
1.4719482421874999
1.482421875
1.5428466796875
1.6153564453125
1.690283203125
1.9698486328125
1.844970703125
1.7571533203124998
1.638720703125
1.5533203125
1.52109375
1.5267333984375
1.5573486328125
1.587158203125
1.5984375
1.60166015625
1.5750732421875
1.5484863281249999
1.5637939453124998
1.5557373046874998
1.835302734375
1.6669189453125
1.6250244140624999
1.5637939453124998
1.4888671875
1.4171630859375
1.281005859375
1.2947021484374999
1.3527099609375
1.4364990234375
1.4767822265625
1.5146484375
1.5412353515625
1.5033691406249998
1.5106201171875
1.577490234375
1.56943359375
1.5984375
1.5887695312499999
1.5428466796875
1.2254150390625
1.2076904296875
1.426025390625
1.5863525390625
1.6008544921874999
1.6081054687499998
1.7023681640625
2.0004638671875
1.8868652343749999
1.716064453125
1.593603515625
1.546875
1.5114257812499998
1.558154296875
1.5541259765625
1.5758789062499998
1.5355957031249998
1.5565429687499999
1.5807128906249999
1.5315673828124998
1.5243164062499999
1.5114257812499998
1.899755859375
1.7015624999999999
1.6072998046875
1.5154541015624998
1.4864501953125
1.426025390625
1.3172607421875
1.2584472656249999
1.340625
1.4389160156249998
1.490478515625
1.545263671875
1.587158203125
1.5992431640625
1.542041015625
1.5235107421874998
1.5791015625
1.5734619140625
1.5654052734375
1.5605712890624999
1.538818359375
1.1899658203124999
1.3639892578125
1.4397216796874999
1.5235107421874998
1.5863525390625
1.6854492187499999
1.8892822265625
1.9787109374999998
1.82080078125
1.6967285156249998
1.603271484375
1.5565429687499999
1.5541259765625
1.51787109375
1.5509033203125
1.5557373046874998
1.5315673828124998
1.5355957031249998
1.5114257812499998
1.5017578125
1.5041748046874999
1.9021728515624998
1.7732666015624998
1.6451660156249999
1.61455078125
1.5057861328125
1.4711425781249998
1.303564453125
1.2673095703125
1.2930908203125
1.384130859375
1.458251953125
1.445361328125
1.51787109375
1.5194824218749998
1.56298828125
1.52109375
1.509814453125
1.50498046875
1.56298828125
1.513037109375
1.529150390625
1.071533203125
1.2511962890625
1.3583496093749998
1.4526123046875
1.5202880859374999
1.662890625
1.9231201171874999
2.176904296875
2.0020751953125
1.8143554687499999
1.6459716796875
1.5565429687499999
1.5847412109374999
1.5492919921875
1.5799072265624998
1.482421875
1.3873535156249999
1.3897705078125
1.4244140625
1.5025634765625
1.4679199218749999
2.0858642578124997
1.993212890625
1.87236328125
1.7039794921875
1.5702392578125
1.4590576171874998
1.20849609375
0.9990234375
1.029638671875
1.1295410156249999
1.332568359375
1.3905761718749998
1.4638916015624999
1.525927734375
1.5927978515624999
1.6177734375
1.6137451171875
1.5839355468749998
1.5927978515624999
1.609716796875
1.558154296875
0.9595458984374999
1.0731445312499999
1.1964111328125
1.4268310546874998
1.5637939453124998
1.7249267578124998
2.035107421875
2.2244384765625
2.1454833984375
1.8054931640624998
1.6363037109374998
1.5597656249999998
1.493701171875
1.4961181640624999
1.6048828124999999
1.5976318359375
1.65
1.6693359374999999
1.6483886718749998
1.7047851562499998
1.6822265625
2.2260498046875
2.657080078125
2.8995849609374997
3.0357421875
3.0164062499999997
2.9656494140625
2.68125
2.2453857421875
1.7531249999999998
1.4518066406249999
1.2060791015624999
1.007080078125
0.8725341796874999
0.80888671875
0.72509765625
0.72509765625
0.6340576171875
0.6187499999999999
0.71220703125
0.6807861328125
0.6759521484375
0.08217773437499999
0.040283203125
0.041088867187499996
0.0394775390625
0.043505859375
0.0475341796875
0.230419921875
0.928125
1.3551269531249999
1.5927978515624999
1.754736328125
1.9086181640625
2.0302734375
2.11083984375
2.21396484375
2.2623046875
2.2486083984375
2.2002685546875
2.1664306640624997
2.2212158203125
2.1873779296875
2.6562744140624996
2.977734375
3.0462158203125
3.0478271484375
3.050244140625
3.003515625
2.8190185546874997
2.3694580078125
1.9730712890625
1.6056884765625
1.2963134765625
1.074755859375
0.8483642578124999
0.8113037109375
0.71220703125
0.5929687499999999
0.6896484374999999
0.65419921875
0.6251953124999999
0.6630615234374999
0.7017333984374999
0.16274414062499998
0.037060546874999996
0.04189453125
0.045117187499999996
0.0394775390625
0.0362548828125
0.21269531249999998
0.9208740234374999
1.3212890625
1.538818359375
1.8304687499999999
1.8981445312499998
2.0149658203125
2.112451171875
2.1229248046875
2.1148681640625
2.131787109375
2.0971435546875
2.07216796875
2.1245361328125
2.1180908203124997
2.0697509765624997
2.8206298828125
3.021240234375
3.0462158203125
3.0486328124999997
3.0446044921874997
2.9060302734374996
2.4846679687499997
2.0761962890625
1.6878662109375
1.4703369140625
1.2592529296875
1.0578369140625
0.8934814453125
0.8531982421875
0.791162109375
0.7500732421874999
0.7532958984375
0.8080810546874999
0.839501953125
0.8765624999999999
0.871728515625
0.041088867187499996
0.040283203125
0.043505859375
0.0394775390625
0.041088867187499996
0.14018554687499998
0.6509765624999999
1.132763671875
1.6282470703124998
1.8417480468749998
1.93359375
2.0278564453125
2.07861328125
2.1615966796875
2.115673828125
2.14306640625
2.2147705078124997
2.20107421875
2.1954345703125
2.1487060546875
2.1841552734375
2.931005859375
3.0470214843749996
3.04541015625
3.0470214843749996
3.04541015625
3.0083496093749997
2.6691650390625
2.1438720703125
1.7571533203124998
1.5041748046874999
1.1778808593749999
1.02158203125
0.8564208984374999
0.8346679687499999
0.8419189453125
0.8096923828125
0.878173828125
0.7927734375
0.807275390625
0.8830078124999999
0.9305419921875
0.0684814453125
0.040283203125
0.040283203125
0.040283203125
0.042700195312499994
0.041088867187499996
0.49870605468749996
1.100537109375
1.4445556640625
1.69189453125
1.8635009765625
1.9746826171874998
2.0415527343749997
2.12373046875
2.1624023437499997
2.1744873046874997
2.096337890625
2.0898925781249997
2.0681396484375
2.083447265625
2.0560546875
2.7094482421875
3.0413818359375
3.0470214843749996
3.0429931640624996
3.0486328124999997
3.0429931640624996
2.72314453125
2.3920166015624997
1.8755859375
1.5662109375
1.3664062499999998
1.184326171875
0.9329589843749999
0.9087890624999999
0.862060546875
0.823388671875
0.7798828124999999
0.72509765625
0.7726318359375
0.8193603515625
0.81533203125
0.20625
0.041088867187499996
0.0378662109375
0.0394775390625
0.0378662109375
0.040283203125
0.20302734374999998
0.9071777343749999
1.3946044921874998
1.66611328125
1.8232177734375
1.9150634765624999
2.0044921875
1.9891845703125
2.0343017578125
2.0697509765624997
2.1140624999999997
2.1132568359375
2.1003662109375
2.1164794921875
2.1221191406249997
2.6280761718749996
2.9422851562499996
3.04541015625
3.043798828125
3.0462158203125
3.0486328124999997
2.8802490234375
2.3066162109375
1.9505126953124998
1.6161621093749998
1.248779296875
1.135986328125
0.9756591796874999
0.9152343749999999
0.894287109375
0.8580322265625
0.77666015625
0.807275390625
0.797607421875
0.7702148437499999
0.7798828124999999
0.21914062499999998
0.041088867187499996
0.040283203125
0.041088867187499996
0.040283203125
0.0394775390625
0.214306640625
0.8628662109374999
1.2439453125
1.4928955078125
1.8425537109374999
1.980322265625
2.093115234375
2.0955322265625
2.1382324218749997
2.1632080078125
2.1543457031249997
2.18818359375
2.1333984375
2.1229248046875
2.1164794921875
2.160791015625
2.8311035156249997
3.0421875
3.0462158203125
3.0462158203125
3.0462158203125
2.9390625
2.5885986328125
2.18173828125
1.7958251953125
1.5533203125
1.3301513671874998
1.074755859375
1.0014404296875
0.9337646484375
0.8789794921874999
0.77666015625
0.7516845703124999
0.7621582031249999
0.7476562499999999
0.7758544921874999
0.6993164062499999
0.043505859375
0.040283203125
0.0443115234375
0.040283203125
0.0443115234375
0.1152099609375
0.7242919921875
1.3962158203125
1.7442626953125
1.8232177734375
1.928759765625
2.1060058593749997
2.1857666015625
2.2131591796875
2.160791015625
2.2268554687499997
2.3066162109375
2.2647216796875
2.215576171875
2.151123046875
2.152734375
2.924560546875
3.0405761718749997
3.04541015625
3.043798828125
3.0470214843749996
3.043798828125
2.5499267578125
2.1519287109375
1.832080078125
1.5895751953125
1.3510986328124999
1.2181640624999999
1.0658935546875
1.077978515625
0.9547119140625
0.8830078124999999
0.8983154296875
0.8588378906249999
0.9071777343749999
0.8870361328124999
0.887841796875
0.041088867187499996
0.040283203125
0.041088867187499996
0.040283203125
0.038671874999999994
0.0394775390625
0.5599365234375
1.1577392578124999
1.525927734375
1.8796142578125
1.9529296875
2.07216796875
2.1785156249999997
2.254248046875
2.254248046875
2.2856689453125
2.1906005859374997
2.2292724609375
2.1406494140625
2.2083251953125
2.241357421875
2.8995849609374997
3.04541015625
3.04541015625
3.0486328124999997
3.0470214843749996
2.969677734375
2.5692626953124997
2.231689453125
1.76279296875
1.4477783203124999
1.2802001953125
1.106982421875
0.8507812499999999
0.8805908203124999
0.8064697265624999
0.781494140625
0.833056640625
0.8531982421875
0.823388671875
0.8830078124999999
0.9015380859375
0.149853515625
0.04189453125
0.041088867187499996
0.040283203125
0.040283203125
0.041088867187499996
0.182080078125
0.9313476562499999
1.4469726562499998
1.690283203125
1.82080078125
1.931982421875
2.1164794921875
2.1301757812499997
2.199462890625
2.199462890625
2.257470703125
2.3235351562499997
2.2099365234375
2.126953125
2.1148681640625
2.7416748046875
3.04541015625
3.0494384765625
3.0446044921874997
3.0470214843749996
3.0486328124999997
2.898779296875
2.3517333984374997
1.8957275390625
1.6290527343749999
1.380908203125
1.0852294921874999
0.93779296875
0.881396484375
0.8531982421875
0.80888671875
0.7460449218749999
0.7339599609374999
0.7275146484374999
0.7130126953125
0.765380859375
0.19899902343749998
0.040283203125
0.041088867187499996
0.040283203125
0.037060546874999996
0.040283203125
0.149853515625
0.87978515625
1.2777832031249998
1.641943359375
1.7861572265624999
1.9182861328124998
1.9956298828124999
2.0633056640625
2.1180908203124997
2.270361328125
2.176904296875
2.1462890624999997
2.14306640625
2.1325927734375
2.16884765625
2.44921875
2.985791015625
3.0462158203125
3.04541015625
3.0478271484375
2.9986816406249996
2.85849609375
2.454052734375
1.8659179687499998
1.558154296875
1.31162109375
1.18271484375
1.11826171875
1.058642578125
0.9949951171875
0.9385986328125
0.91845703125
0.8644775390624999
0.8950927734374999
0.8967041015624999
0.8644775390624999
0.5277099609375
0.041088867187499996
0.040283203125
0.040283203125
0.041088867187499996
0.040283203125
0.13615722656249998
0.6888427734375
1.2101074218749999
1.442138671875
1.667724609375
1.8369140625
1.9996582031249999
2.0625
2.1454833984375
2.1624023437499997
2.183349609375
2.199462890625
2.1946289062499997
2.1704589843749997
2.128564453125
2.3275634765624997
2.9922363281249997
3.029296875
3.050244140625
3.0462158203125
3.0478271484375
3.0462158203125
2.7078369140625
2.2743896484375
1.9021728515624998
1.6185791015625
1.3502929687499998
1.2141357421874999
0.9990234375
0.9837158203124999
0.9418212890625
0.9249023437499999
0.8612548828125
0.871728515625
0.9490722656249999
0.929736328125
0.7315429687499999
0.037060546874999996
0.043505859375
0.0443115234375
0.037060546874999996
0.041088867187499996
0.04189453125
0.51884765625
1.003857421875
1.4606689453125
1.625830078125
1.7249267578124998
1.8868652343749999
1.98193359375
1.9811279296875
2.028662109375
2.04638671875
2.0520263671875
2.02705078125
2.0761962890625
2.0979492187499997
2.0149658203125
2.7642333984375
3.04541015625
3.0510498046874996
3.0494384765625
3.0486328124999997
3.0446044921874997
2.5966552734375
2.1970458984375
1.85947265625
1.606494140625
1.384130859375
1.0948974609375
0.9321533203125
0.78310546875
0.775048828125
0.7387939453125
0.758935546875
0.7484619140625
0.7275146484374999
0.734765625
0.8346679687499999
0.0443115234375
0.0394775390625
0.041088867187499996
0.04189453125
0.0394775390625
0.043505859375
0.2360595703125
1.0739501953125
1.3817138671875
1.4953124999999998
1.72412109375
1.85947265625
2.031884765625
2.00771484375
2.07861328125
2.1470947265625
2.147900390625
2.1213134765625
2.1205078125
2.1019775390624997
2.075390625
2.8133789062499996
3.0470214843749996
3.0462158203125
3.0446044921874997
3.043798828125
3.0309082031249996
2.7690673828124996
2.4202148437499997
2.0898925781249997
1.7047851562499998
1.52109375
1.3092041015625
1.0828125
1.0191650390625
0.9249023437499999
0.87978515625
0.8104980468749999
0.8282226562499999
0.8354736328125
0.8902587890625
0.88623046875
0.20302734374999998
0.0443115234375
0.040283203125
0.0378662109375
0.042700195312499994
0.040283203125
0.1619384765625
0.7637695312499999
1.2914794921875
1.5686279296874999
1.738623046875
1.867529296875
1.9182861328124998
2.0616943359374997
2.1019775390624997
2.1680419921875
2.183349609375
2.212353515625
2.1865722656249997
2.1148681640625
2.1567626953125
2.5918212890624996
3.0462158203125
3.0446044921874997
3.0462158203125
3.0462158203125
3.0486328124999997
2.8818603515624996
2.3356201171874997
1.9956298828124999
1.6959228515625
1.4477783203124999
1.2447509765625
1.0489746093749999
0.9982177734375
0.9555175781249999
0.9192626953124999
0.8443359374999999
0.8419189453125
0.8064697265624999
0.8322509765624999
0.7412109375
0.1611328125
0.041088867187499996
0.038671874999999994
0.041088867187499996
0.041088867187499996
0.0394775390625
0.09990234375
0.8564208984374999
1.3108154296874999
1.5799072265624998
1.8796142578125
1.92392578125
2.0197998046875
2.093115234375
2.1406494140625
2.281640625
2.20107421875
2.2349121093749997
2.173681640625
2.126953125
2.1696533203125
2.489501953125
2.9970703125
3.0486328124999997
3.043798828125
3.043798828125
3.0470214843749996
2.9559814453124997
2.4983642578125
2.1076171875
1.6798095703125
1.49853515625
1.2777832031249998
1.071533203125
0.95390625
0.85400390625
0.9071777343749999
0.8854248046875
0.881396484375
0.8531982421875
0.8467529296874999
0.8370849609375
0.40202636718749996
0.041088867187499996
0.040283203125
0.04189453125
0.043505859375
0.043505859375
0.0459228515625
0.6485595703125
1.0965087890625
1.561376953125
1.7660156249999999
1.8578613281249998
2.023828125
2.1309814453125
2.1245361328125
2.2187988281249997
2.1648193359375
2.2099365234375
2.2429687499999997
2.1857666015625
2.14306640625
2.0423583984375
2.9181152343749996
3.0462158203125
3.0446044921874997
3.043798828125
3.0470214843749996
3.04541015625
2.6820556640624997
2.2429687499999997
1.9223144531249998
1.6725585937499998
1.380908203125
1.2181640624999999
1.0530029296874999
0.9047607421874999
0.88623046875
0.8322509765624999
0.7637695312499999
0.7323486328125
0.7379882812499999
0.8056640625
0.5204589843749999
0.037060546874999996
0.043505859375
0.041088867187499996
0.040283203125
0.0443115234375
0.038671874999999994
0.5277099609375
0.9796874999999999
1.345458984375
1.625830078125
1.7531249999999998
1.8377197265624998
1.9795166015624999
2.0165771484375
2.05927734375
2.0923095703125
1.9996582031249999
2.00771484375
1.948095703125
1.9658203125
1.9924072265625
2.6748046875
2.8955566406249997
3.0470214843749996
3.0470214843749996
3.04541015625
3.05185546875
2.7650390624999996
2.44921875
2.0657226562499997
1.6048828124999999
1.4115234374999999
1.24072265625
1.036083984375
0.966796875
0.8709228515624999
0.8129150390625
0.7959960937499999
0.7984130859374999
0.816943359375
0.760546875
0.7790771484375
0.038671874999999994
0.043505859375
0.041088867187499996
0.040283203125
0.037060546874999996
0.040283203125
0.2586181640625
0.9498779296875
1.3728515625
1.606494140625
1.7990478515625
1.960986328125
2.0093261718749997
2.05283203125
2.075390625
2.151123046875
2.086669921875
2.0214111328124997
2.1197021484375
2.1567626953125
2.1543457031249997
2.892333984375
3.0462158203125
3.0462158203125
3.0462158203125
3.04541015625
3.04541015625
2.8866943359375
2.3259521484375
1.944873046875
1.6854492187499999
1.3712402343749999
1.2665039062499999
1.03125
0.9329589843749999
0.8104980468749999
0.78310546875
0.77666015625
0.7758544921874999
0.7887451171875
0.800830078125
0.8201660156249999
0.042700195312499994
0.041088867187499996
0.041088867187499996
0.040283203125
0.0394775390625
0.041088867187499996
0.21591796875
0.8950927734374999
1.34384765625
1.5057861328125
1.7394287109375
1.9078125
2.0504150390625
2.1221191406249997
2.1632080078125
2.2179931640625
2.165625
2.2067138671874997
2.241357421875
2.2349121093749997
2.212353515625
2.7094482421875
3.0462158203125
3.0470214843749996
3.0462158203125
3.04541015625
3.0470214843749996
2.940673828125
2.6369384765625
2.2534423828125
1.77568359375
1.5323730468749999
1.353515625
1.1150390625
1.0046630859374999
0.9514892578124999
0.8362792968749999
0.7855224609375
0.8096923828125
0.7734375
0.8080810546874999
0.726708984375
0.25217285156249997
0.0443115234375
0.041088867187499996
0.040283203125
0.037060546874999996
0.0443115234375
0.043505859375
0.6179443359375
1.2125244140625
1.458251953125
1.7039794921875
1.9021728515624998
2.077001953125
2.14306640625
2.222021484375
2.30419921875
2.2727783203125
2.2228271484374997
2.3195068359374997
2.2308837890624997
2.183349609375
2.2187988281249997
2.995458984375
3.050244140625
3.0462158203125
3.0478271484375
3.0470214843749996
3.04541015625
2.73603515625
2.147900390625
1.8651123046875
1.6129394531249999
1.32451171875
1.08603515625
1.023193359375
0.9232910156249999
0.865283203125
0.8338623046875
0.8346679687499999
0.8185546874999999
0.829833984375
0.7855224609375
0.4842041015625
0.0394775390625
0.037060546874999996
0.041088867187499996
0.040283203125
0.040283203125
0.0394775390625
0.6453369140624999
1.164990234375
1.4091064453125
1.6483886718749998
1.8780029296874998
1.96904296875
2.10439453125
2.147900390625
2.125341796875
2.1390380859375
2.1615966796875
2.1309814453125
2.1825439453124997
2.126953125
2.044775390625
2.834326171875
3.04541015625
3.04541015625
3.0486328124999997
3.0478271484375
3.0462158203125
2.7166992187499996
2.4210205078125
1.9601806640625
1.6959228515625
1.513037109375
1.2721435546875
1.0143310546875
0.9514892578124999
0.8427246093749999
0.8362792968749999
0.7661865234374999
0.6872314453124999
0.758935546875
0.733154296875
0.704150390625
0.041088867187499996
0.038671874999999994
0.0394775390625
0.041088867187499996
0.042700195312499994
0.0394775390625
0.378662109375
1.010302734375
1.2479736328125
1.4832275390624998
1.6951171875
1.7853515624999998
1.9360107421875
2.0036865234375
1.996435546875
2.0778076171874997
2.0504150390625
2.0697509765624997
2.1599853515625
2.1076171875
2.03994140625
2.779541015625
3.0462158203125
3.0470214843749996
3.0470214843749996
3.0470214843749996
3.0470214843749996
2.8705810546875
2.3678466796874997
2.00771484375
1.77890625
1.571044921875
1.3978271484375
1.11826171875
0.9531005859374999
0.8749511718749999
0.8596435546875
0.87978515625
0.855615234375
0.8854248046875
0.8209716796875
0.791162109375
0.06767578125
0.041088867187499996
0.040283203125
0.040283203125
0.041088867187499996
0.040283203125
0.2118896484375
0.9756591796874999
1.2689208984375
1.546875
1.78857421875
1.92392578125
2.012548828125
2.1293701171875
2.1696533203125
2.1857666015625
2.16884765625
2.1390380859375
2.173681640625
2.1599853515625
2.1438720703125
2.6127685546875
3.0429931640624996
3.0470214843749996
3.0462158203125
3.04541015625
3.04541015625
3.0156005859375
2.602294921875
2.1462890624999997
1.6806152343749998
1.482421875
1.3220947265624998
1.0965087890625
0.928125
0.8822021484375
0.781494140625
0.7782714843749999
0.7307373046875
0.7178466796874999
0.71220703125
0.807275390625
0.2537841796875
0.040283203125
0.0394775390625
0.0443115234375
0.040283203125
0.041088867187499996
0.04189453125
0.688037109375
1.300341796875
1.6121337890624998
1.7934082031249998
1.9295654296875
2.0343017578125
2.12373046875
2.167236328125
2.165625
2.1438720703125
2.222021484375
2.2187988281249997
2.241357421875
2.1841552734375
2.6723876953124996
3.0429931640624996
3.0470214843749996
3.0478271484375
3.0470214843749996
3.0470214843749996
3.04541015625
2.5966552734375
2.157568359375
1.8522216796875
1.522705078125
1.3575439453125
1.2221923828124999
1.0481689453125
0.9079833984375
0.7138183593749999
0.81533203125
0.7299316406249999
0.6751464843749999
0.7017333984374999
0.7379882812499999
0.22478027343749998
0.042700195312499994
0.040283203125
0.041088867187499996
0.041088867187499996
0.04189453125
0.0378662109375
0.6429199218749999
1.0739501953125
1.3341796874999998
1.6363037109374998
1.79501953125
1.848193359375
1.90458984375
1.9311767578124999
1.9521240234375
2.1205078125
2.1591796875
2.1140624999999997
2.1454833984375
2.165625
2.2268554687499997
2.9173095703125
3.04541015625
3.0462158203125
3.0470214843749996
3.0486328124999997
2.9801513671874997
2.592626953125
2.2083251953125
1.812744140625
1.5750732421875
1.2818115234374998
1.0570312499999999
0.9345703125
0.910400390625
0.9079833984375
0.881396484375
0.8668945312499999
0.8531982421875
0.8870361328124999
0.887841796875
0.9192626953124999
0.038671874999999994
0.040283203125
0.043505859375
0.038671874999999994
0.040283203125
0.040283203125
0.42216796874999996
1.134375
1.4203857421875
1.66611328125
1.82724609375
1.944873046875
2.0665283203125
2.0979492187499997
2.0818359374999997
2.0955322265625
2.1052001953125
2.1986572265624997
2.1454833984375
2.0504150390625
2.0117431640625
2.7505371093749997
3.0462158203125
3.0462158203125
3.04541015625
3.0446044921874997
3.0405761718749997
2.7916259765625
2.2276611328125
1.9190917968749999
1.658056640625
1.3978271484375
1.248779296875
1.071533203125
0.992578125
0.9466552734375
0.90556640625
0.9152343749999999
0.8902587890625
0.8314453125
0.760546875
0.8016357421875
0.042700195312499994
0.041088867187499996
0.040283203125
0.040283203125
0.041088867187499996
0.040283203125
0.3182373046875
0.9643798828125
1.327734375
1.641943359375
1.7813232421874998
1.87236328125
1.8820312499999998
1.9762939453125
2.0737792968749997
2.101171875
2.231689453125
2.2727783203125
2.2308837890624997
2.2751953124999997
2.196240234375
2.7142822265624997
3.0486328124999997
3.0470214843749996
3.04541015625
3.043798828125
3.0462158203125
2.9237548828124997
2.5821533203125
2.03994140625
1.7281494140625
1.4864501953125
1.2366943359375
0.97001953125
0.88623046875
0.8741455078125
0.8830078124999999
0.8830078124999999
0.8628662109374999
0.871728515625
0.8830078124999999
0.9329589843749999
0.378662109375
0.038671874999999994
0.043505859375
0.040283203125
0.040283203125
0.0443115234375
0.0555908203125
0.71865234375
1.2616699218749998
1.55009765625
1.7490966796874998
1.8876708984375
2.0004638671875
2.03994140625
2.2244384765625
2.20107421875
2.199462890625
2.2598876953125
2.2888916015625
2.2631103515624997
2.151123046875
2.63935546875
3.01962890625
3.043798828125
3.0486328124999997
3.0462158203125
3.043798828125
2.9978759765625
2.5031982421874996
2.08828125
1.8280517578125
1.5331787109375
1.393798828125
1.2447509765625
1.0497802734375
0.9321533203125
0.8725341796874999
0.961962890625
0.9128173828124999
0.8967041015624999
0.8741455078125
0.823388671875
0.270703125
0.041088867187499996
0.040283203125
0.041088867187499996
0.04189453125
0.0378662109375
0.046728515624999994
0.7001220703125
1.1222900390625
1.42119140625
1.6105224609375
1.7700439453124999
1.8667236328124999
2.0020751953125
2.08828125
2.0729736328125
2.1358154296875
2.1076171875
2.0810302734375
2.1060058593749997
2.135009765625
2.1325927734375
2.840771484375
3.0446044921874997
3.04541015625
3.0486328124999997
3.0462158203125
2.99384765625
2.7021972656249997
2.2341064453125
1.973876953125
1.6943115234375
1.5960205078124998
1.340625
1.168212890625
1.1158447265625
0.9490722656249999
0.9168457031249999
0.9659912109375
0.8950927734374999
0.8668945312499999
0.93779296875
0.8628662109374999
0.041088867187499996
0.040283203125
0.040283203125
0.040283203125
0.040283203125
0.230419921875
1.0288330078124999
2.05283203125
2.6055175781249997
3.0486328124999997
3.0462158203125
3.04541015625
3.0470214843749996
3.0486328124999997
3.0470214843749996
3.0446044921874997
3.0462158203125
3.0478271484375
3.04541015625
3.0470214843749996
3.0486328124999997
3.0421875
3.0470214843749996
3.0429931640624996
3.0478271484375
3.0462158203125
3.04541015625
3.04541015625
3.043798828125
3.0494384765625
3.0462158203125
3.0462158203125
3.0470214843749996
3.0462158203125
3.0462158203125
3.0462158203125
3.04541015625
3.050244140625
3.0462158203125
3.0462158203125
3.0494384765625
3.0413818359375
2.924560546875
2.8786376953125
2.8955566406249997
2.9414794921875
3.0429931640624996
3.04541015625
3.04541015625
3.043798828125
3.043798828125
3.0462158203125
3.0446044921874997
3.0494384765625
3.0470214843749996
3.0478271484375
3.050244140625
3.0446044921874997
2.956787109375
2.7328124999999996
2.3726806640625
2.0496093749999997
1.6927001953124998
1.82724609375
1.56943359375
1.2697265624999998
0.9547119140625
0.5083740234374999
0.041088867187499996
0.0378662109375
0.0394775390625
0.043505859375
0.041088867187499996
0.040283203125
0.037060546874999996
0.038671874999999994
0.049145507812499996
0.040283203125
0.0378662109375
0.0394775390625
0.043505859375
0.04189453125
0.041088867187499996
0.041088867187499996
0.040283203125
0.0684814453125
0.3262939453125
0.59619140625
0.760546875
0.9611572265624999
1.1319580078125
1.6556396484375
1.64677734375
1.513037109375
1.22783203125
1.0707275390625
1.02158203125
0.929736328125
0.8958984375
0.8685058593749999
0.9128173828124999
0.8701171875
0.825
0.881396484375
0.9224853515625
1.3188720703124999
1.4510009765624998
1.4598632812499999
1.348681640625
1.216552734375
1.1142333984375
0.9257080078125
0.749267578125
0.7283203125
0.8346679687499999
0.9692138671874999
1.123095703125
1.1794921875
1.319677734375
1.3414306640625
1.2818115234374998
1.284228515625
1.31162109375
1.2947021484374999
1.3591552734374999
1.3704345703124998
1.007080078125
0.9547119140625
1.1794921875
1.327734375
1.3897705078125
1.5162597656249999
1.5976318359375
1.9553466796874999
1.9271484374999999
1.635498046875
1.5073974609374998
1.4413330078125
1.40185546875
1.3390136718749999
1.4203857421875
1.477587890625
1.490478515625
1.4791992187499998
1.3986328124999998
1.4228027343749998
1.4574462890625
1.4872558593749998
1.8417480468749998
1.703173828125
1.6242187499999998
1.4928955078125
1.3954101562499999
1.3349853515624999
1.1609619140625
1.1448486328125
1.2254150390625
1.3639892578125
1.490478515625
1.47275390625
1.4518066406249999
1.4791992187499998
1.5041748046874999
1.509814453125
1.5041748046874999
1.538818359375
1.5428466796875
1.4977294921875
1.16015625
1.0570312499999999
1.2544189453124999
1.38896484375
1.46953125
1.55009765625
1.6000488281249998
1.9464843749999998
1.9666259765624998
1.8473876953125
1.6636962890625
1.6185791015625
1.5927978515624999
1.5484863281249999
1.5186767578125
1.4880615234374999
1.496923828125
1.4687255859375
1.48564453125
1.5444580078124999
1.5484863281249999
1.5589599609375
1.948095703125
1.7635986328125
1.6290527343749999
1.5686279296874999
1.482421875
1.3873535156249999
1.2914794921875
1.271337890625
1.3333740234375
1.4091064453125
1.4461669921875
1.464697265625
1.4687255859375
1.5138427734375
1.5146484375
1.5919921874999998
1.5444580078124999
1.5807128906249999
1.5839355468749998
1.5557373046874998
1.5621826171875
1.1617675781249999
1.3986328124999998
1.4590576171874998
1.4961181640624999
1.5686279296874999
1.6105224609375
1.8344970703124999
1.980322265625
1.8328857421875
1.67578125
1.55009765625
1.5138427734375
1.558154296875
1.5509033203125
1.5662109375
1.5186767578125
1.53076171875
1.5355957031249998
1.5251220703125
1.5138427734375
1.5267333984375
1.9078125
1.786962890625
1.6508056640625
1.5839355468749998
1.5082031249999999
1.474365234375
1.3704345703124998
1.3124267578125
1.3212890625
1.3752685546874999
1.4236083984374999
1.4945068359375
1.5073974609374998
1.5194824218749998
1.5557373046874998
1.5347900390625
1.5726562499999999
1.5428466796875
1.56298828125
1.5243164062499999
1.577490234375
1.18271484375
1.3124267578125
1.4767822265625
1.533984375
1.5460693359375
1.5976318359375
1.7926025390625
1.9303710937499998
1.7700439453124999
1.6612792968749999
1.6129394531249999
1.5919921874999998
1.5750732421875
1.5476806640624998
1.59521484375
1.5460693359375
1.538818359375
1.5597656249999998
1.546875
1.538818359375
1.5460693359375
1.8546386718749999
1.8304687499999999
1.6508056640625
1.5597656249999998
1.48564453125
1.4356933593749999
1.3744628906249998
1.284228515625
1.3333740234375
1.4187744140624998
1.4518066406249999
1.4993408203124998
1.5186767578125
1.5791015625
1.5202880859374999
1.538818359375
1.5686279296874999
1.56943359375
1.5565429687499999
1.5718505859374998
1.53076171875
1.171435546875
1.3108154296874999
1.4751708984374998
1.545263671875
1.587158203125
1.611328125
1.738623046875
1.8667236328124999
1.7700439453124999
1.6749755859375
1.5968261718749999
1.558154296875
1.5565429687499999
1.546875
1.6209960937499999
1.561376953125
1.5678222656249998
1.5218994140625
1.5162597656249999
1.56298828125
1.5734619140625
1.8409423828125
1.8304687499999999
1.7055908203124999
1.6379150390625
1.5678222656249998
1.5057861328125
1.3986328124999998
1.3559326171875
1.3059814453124998
1.36962890625
1.4630859374999998
1.533984375
1.5146484375
1.5533203125
1.5670166015625
1.609716796875
1.5895751953125
1.5662109375
1.5412353515625
1.585546875
1.5621826171875
1.297119140625
1.3156494140625
1.4671142578124998
1.522705078125
1.4945068359375
1.6129394531249999
1.6846435546874998
1.9424560546874998
1.8264404296874999
1.6395263671875
1.6048828124999999
1.611328125
1.5323730468749999
1.554931640625
1.59521484375
1.5766845703124999
1.5525146484374999
1.5726562499999999
1.5597656249999998
1.5251220703125
1.5315673828124998
1.7120361328125
1.783740234375
1.714453125
1.587158203125
1.51787109375
1.4953124999999998
1.4638916015624999
1.3583496093749998
1.332568359375
1.348681640625
1.4574462890625
1.5283447265624999
1.4880615234374999
1.5218994140625
1.53076171875
1.5637939453124998
1.5331787109375
1.5194824218749998
1.5654052734375
1.5509033203125
1.5879638671874998
1.3656005859375
1.300341796875
1.461474609375
1.4783935546875
1.545263671875
1.5686279296874999
1.662890625
1.9392333984374999
1.8377197265624998
1.6894775390624999
1.6322753906249998
1.5565429687499999
1.5364013671874999
1.5492919921875
1.5347900390625
1.56943359375
1.5380126953125
1.5734619140625
1.571044921875
1.529150390625
1.5275390624999998
1.5436523437499998
1.8022705078124999
1.6427490234375
1.574267578125
1.5919921874999998
1.5243164062499999
1.4679199218749999
1.3309570312499999
1.2938964843749998
1.3801025390625
1.429248046875
1.529150390625
1.5251220703125
1.5484863281249999
1.5734619140625
1.5162597656249999
1.5146484375
1.5484863281249999
1.554931640625
1.5460693359375
1.5565429687499999
1.3422363281249998
1.26005859375
1.377685546875
1.493701171875
1.5565429687499999
1.5750732421875
1.6040771484374998
1.9053955078125
1.8981445312499998
1.7217041015624999
1.5992431640625
1.554931640625
1.53720703125
1.603271484375
1.533984375
1.5460693359375
1.5976318359375
1.5791015625
1.5597656249999998
1.577490234375
1.5476806640624998
1.5541259765625
1.8892822265625
1.7313720703125
1.6330810546874999
1.6000488281249998
1.538818359375
1.4671142578124998
1.36962890625
1.3237060546875
1.4042724609375
1.43408203125
1.4912841796874998
1.5106201171875
1.5428466796875
1.5895751953125
1.5275390624999998
1.5114257812499998
1.513037109375
1.529150390625
1.5122314453124999
1.5484863281249999
1.5984375
1.2745605468749999
1.4429443359374998
1.5041748046874999
1.5275390624999998
1.5670166015625
1.5847412109374999
1.7700439453124999
1.880419921875
1.7958251953125
1.6556396484375
1.529150390625
1.5162597656249999
1.5194824218749998
1.5637939453124998
1.5194824218749998
1.5976318359375
1.6121337890624998
1.5911865234375
1.5041748046874999
1.5251220703125
1.5106201171875
1.835302734375
1.7345947265625
1.6379150390625
1.5533203125
1.5791015625
1.5355957031249998
1.3551269531249999
1.377685546875
1.4091064453125
1.4187744140624998
1.4791992187499998
1.4920898437499999
1.48564453125
1.5645996093749999
1.561376953125
1.6298583984375
1.571044921875
1.5509033203125
1.4872558593749998
1.5251220703125
1.606494140625
1.26328125
1.332568359375
1.4244140625
1.50498046875
1.545263671875
1.5766845703124999
1.7200927734375
1.8788085937499999
1.8111328125
1.65966796875
1.60166015625
1.53720703125
1.5267333984375
1.545263671875
1.554931640625
1.5597656249999998
1.5791015625
1.571044921875
1.5766845703124999
1.59521484375
1.55009765625
1.8062988281249999
1.732177734375
1.6379150390625
1.62744140625
1.5082031249999999
1.5460693359375
1.4711425781249998
1.3712402343749999
1.37607421875
1.4308593749999998
1.4832275390624998
1.48564453125
1.496923828125
1.5106201171875
1.577490234375
1.5517089843749998
1.546875
1.49853515625
1.538818359375
1.56298828125
1.5557373046874998
1.2334716796875
1.2777832031249998
1.4550292968749998
1.5041748046874999
1.577490234375
1.5911865234375
1.662890625
1.9021728515624998
1.8457763671874998
1.73056640625
1.574267578125
1.56298828125
1.5460693359375
1.542041015625
1.558154296875
1.5476806640624998
1.606494140625
1.56298828125
1.5251220703125
1.53720703125
1.5887695312499999
1.7861572265624999
1.8183837890624999
1.6435546875
1.6129394531249999
1.59521484375
1.5073974609374998
1.4590576171874998
1.3599609375
1.38896484375
1.413134765625
1.4638916015624999
1.4791992187499998
1.4558349609374999
1.5315673828124998
1.558154296875
1.5758789062499998
1.5243164062499999
1.5492919921875
1.5734619140625
1.5766845703124999
1.5476806640624998
1.3470703124999999
1.3180664062499998
1.4751708984374998
1.5041748046874999
1.5380126953125
1.5605712890624999
1.6161621093749998
1.799853515625
1.7813232421874998
1.714453125
1.587158203125
1.5678222656249998
1.571044921875
1.56943359375
1.606494140625
1.5726562499999999
1.5637939453124998
1.5992431640625
1.5863525390625
1.5670166015625
1.513037109375
1.67900390625
1.780517578125
1.658056640625
1.635498046875
1.5887695312499999
1.5484863281249999
1.5251220703125
1.416357421875
1.3631835937499999
1.4139404296875
1.4759765624999999
1.4928955078125
1.4791992187499998
1.5033691406249998
1.5194824218749998
1.5412353515625
1.561376953125
1.5396240234374998
1.5750732421875
1.5758789062499998
1.5509033203125
1.3905761718749998
1.2753662109375
1.4252197265625
1.4912841796874998
1.5355957031249998
1.5517089843749998
1.6346923828125
1.8344970703124999
1.8538330078124998
1.6967285156249998
1.5960205078124998
1.5436523437499998
1.574267578125
1.5863525390625
1.5017578125
1.5428466796875
1.5347900390625
1.5509033203125
1.5412353515625
1.5887695312499999
1.5799072265624998
1.5605712890624999
1.8256347656249998
1.6371093749999999
1.625830078125
1.619384765625
1.538818359375
1.5114257812499998
1.3857421875
1.3704345703124998
1.4042724609375
1.4550292968749998
1.4888671875
1.5218994140625
1.493701171875
1.5557373046874998
1.5460693359375
1.542041015625
1.5573486328125
1.5347900390625
1.5944091796875
1.5243164062499999
1.529150390625
1.2616699218749998
1.4219970703125
1.49853515625
1.533984375
1.5839355468749998
1.66611328125
1.835302734375
1.8046875
1.7176757812499999
1.6572509765624999
1.577490234375
1.5541259765625
1.554931640625
1.558154296875
1.5428466796875
1.5758789062499998
1.587158203125
1.6040771484374998
1.603271484375
1.5895751953125
1.461474609375
1.7982421874999999
1.7257324218749999
1.6121337890624998
1.5750732421875
1.5428466796875
1.4638916015624999
1.3510986328124999
1.40185546875
1.4276367187499999
1.4977294921875
1.5122314453124999
1.4912841796874998
1.4977294921875
1.5678222656249998
1.5557373046874998
1.5001464843749999
1.52109375
1.5090087890625
1.5557373046874998
1.5517089843749998
1.6234130859375
1.2374999999999998
1.4147460937499998
1.4888671875
1.533984375
1.587158203125
1.5984375
1.72412109375
1.85625
1.7370117187499998
1.6121337890624998
1.5589599609375
1.5734619140625
1.5799072265624998
1.5621826171875
1.5645996093749999
1.571044921875
1.51787109375
1.5090087890625
1.5815185546875
1.5911865234375
1.60166015625
1.8038818359375
1.740234375
1.62744140625
1.5831298828125
1.4791992187499998
1.52109375
1.4501953125
1.3833251953124999
1.3954101562499999
1.442138671875
1.4840332031249999
1.4977294921875
1.538818359375
1.5670166015625
1.593603515625
1.5621826171875
1.522705078125
1.5170654296875
1.496923828125
1.4977294921875
1.5597656249999998
1.284228515625
1.40185546875
1.5218994140625
1.5186767578125
1.545263671875
1.5984375
1.6814208984374999
1.8884765625
1.7603759765625
1.611328125
1.5428466796875
1.561376953125
1.6048828124999999
1.5436523437499998
1.5799072265624998
1.593603515625
1.5686279296874999
1.5444580078124999
1.5186767578125
1.538818359375
1.5541259765625
1.72412109375
1.7531249999999998
1.6475830078125
1.6218017578125
1.5815185546875
1.46630859375
1.432470703125
1.3639892578125
1.3784912109374998
1.41796875
1.5057861328125
1.5404296874999999
1.5041748046874999
1.5323730468749999
1.5194824218749998
1.574267578125
1.5541259765625
1.5251220703125
1.5517089843749998
1.5565429687499999
1.4864501953125
1.24072265625
1.3656005859375
1.480810546875
1.5436523437499998
1.62744140625
1.625830078125
1.65
1.84013671875
1.7700439453124999
1.6951171875
1.6169677734374999
1.574267578125
1.554931640625
1.5323730468749999
1.5670166015625
1.590380859375
1.5162597656249999
1.53720703125
1.5243164062499999
1.52109375
1.5597656249999998
1.6854492187499999
1.8538330078124998
1.641943359375
1.5766845703124999
1.5758789062499998
1.5525146484374999
1.4630859374999998
1.3768798828125
1.3478759765625
1.4276367187499999
1.5057861328125
1.5565429687499999
1.4961181640624999
1.4912841796874998
1.5573486328125
1.56943359375
1.53720703125
1.542041015625
1.5380126953125
1.5484863281249999
1.6000488281249998
1.4195800781249999
1.2890625
1.448583984375
1.5017578125
1.5138427734375
1.6000488281249998
1.6645019531249998
1.8328857421875
1.828857421875
1.7208984374999998
1.63388671875
1.5428466796875
1.5589599609375
1.571044921875
1.5887695312499999
1.5621826171875
1.5565429687499999
1.545263671875
1.51787109375
1.5243164062499999
1.5001464843749999
1.654833984375
1.7797119140625
1.687060546875
1.6250244140624999
1.5847412109374999
1.5122314453124999
1.4800048828124999
1.3744628906249998
1.3921875
1.3865478515624998
1.4703369140625
1.5138427734375
1.5017578125
1.5009521484375
1.5597656249999998
1.5702392578125
1.558154296875
1.5509033203125
1.5323730468749999
1.4671142578124998
1.554931640625
1.4783935546875
1.2995361328125
1.4332763671875
1.5057861328125
1.5597656249999998
1.571044921875
1.6379150390625
1.84013671875
1.8393310546875
1.7120361328125
1.6185791015625
1.56943359375
1.538818359375
1.5033691406249998
1.5670166015625
1.533984375
1.5847412109374999
1.5807128906249999
1.6048828124999999
1.5605712890624999
1.5686279296874999
1.5194824218749998
1.82080078125
1.66611328125
1.6169677734374999
1.5927978515624999
1.5702392578125
1.5017578125
1.3688232421875
1.393798828125
1.4381103515625
1.458251953125
1.4630859374999998
1.4953124999999998
1.5243164062499999
1.5621826171875
1.5235107421874998
1.529150390625
1.5436523437499998
1.554931640625
1.641943359375
1.587158203125
1.5919921874999998
1.2608642578125
1.432470703125
1.4679199218749999
1.5082031249999999
1.56298828125
1.6137451171875
1.7362060546875
1.85947265625
1.7257324218749999
1.687060546875
1.603271484375
1.5791015625
1.577490234375
1.5525146484374999
1.5323730468749999
1.5412353515625
1.52109375
1.5001464843749999
1.5492919921875
1.5202880859374999
1.50498046875
1.77890625
1.7217041015624999
1.6854492187499999
1.6137451171875
1.5476806640624998
1.522705078125
1.4026611328124998
1.3784912109374998
1.3607666015625
1.4244140625
1.4848388671875
1.4977294921875
1.56943359375
1.5476806640624998
1.5791015625
1.554931640625
1.5235107421874998
1.5202880859374999
1.5573486328125
1.5186767578125
1.5525146484374999
1.229443359375
1.4107177734374998
1.59521484375
1.6000488281249998
1.53076171875
1.619384765625
1.63388671875
1.8296630859374998
1.719287109375
1.6725585937499998
1.619384765625
1.5968261718749999
1.5621826171875
1.5355957031249998
1.593603515625
1.4920898437499999
1.5492919921875
1.5436523437499998
1.5428466796875
1.5355957031249998
1.5412353515625
1.8216064453124998
1.7499023437499999
1.6129394531249999
1.5758789062499998
1.5194824218749998
1.529150390625
1.509814453125
1.4203857421875
1.4107177734374998
1.40830078125
1.4671142578124998
1.4896728515625
1.4848388671875
1.480810546875
1.4993408203124998
1.5782958984375
1.5831298828125
1.5444580078124999
1.56298828125
1.5428466796875
1.529150390625
1.18916015625
1.3075927734375
1.522705078125
1.5509033203125
1.6040771484374998
1.6363037109374998
1.7015624999999999
1.883642578125
1.8256347656249998
1.6701416015625
1.6000488281249998
1.51787109375
1.5492919921875
1.5525146484374999
1.5218994140625
1.5589599609375
1.5525146484374999
1.5573486328125
1.5525146484374999
1.5267333984375
1.5686279296874999
1.6959228515625
1.8135498046874998
1.6346923828125
1.6314697265625
1.5565429687499999
1.4719482421874999
1.4550292968749998
1.3792968749999999
1.368017578125
1.42119140625
1.4800048828124999
1.5202880859374999
1.506591796875
1.5605712890624999
1.5589599609375
1.5718505859374998
1.538818359375
1.5146484375
1.5541259765625
1.5436523437499998
1.5533203125
1.2721435546875
1.345458984375
1.4606689453125
1.4791992187499998
1.5654052734375
1.6234130859375
1.61455078125
1.909423828125
1.786962890625
1.6830322265625
1.538818359375
1.4953124999999998
1.5533203125
1.5251220703125
1.56298828125
1.5541259765625
1.5331787109375
1.513037109375
1.609716796875
1.5847412109374999
1.5791015625
1.6604736328124998
1.8328857421875
1.690283203125
1.6201904296874998
1.5927978515624999
1.5162597656249999
1.482421875
1.3253173828125
1.316455078125
1.3929931640625
1.496923828125
1.5073974609374998
1.53076171875
1.4896728515625
1.5686279296874999
1.5944091796875
1.6048828124999999
1.585546875
1.5412353515625
1.545263671875
1.4920898437499999
1.429248046875
1.2753662109375
1.5001464843749999
1.5275390624999998
1.53720703125
1.5605712890624999
1.609716796875
1.796630859375
1.8264404296874999
1.6701416015625
1.606494140625
1.5895751953125
1.587158203125
1.5863525390625
1.6048828124999999
1.59521484375
1.5654052734375
1.5525146484374999
1.558154296875
1.545263671875
1.477587890625
1.4638916015624999
1.7611816406249998
1.6645019531249998
1.6081054687499998
1.5758789062499998
1.5541259765625
1.49853515625
1.3905761718749998
1.3994384765624999
1.3712402343749999
1.4348876953124998
1.4751708984374998
1.525927734375
1.5412353515625
1.5782958984375
1.56298828125
1.5428466796875
1.6129394531249999
1.5396240234374998
1.542041015625
1.5283447265624999
1.490478515625
1.2697265624999998
1.458251953125
1.51787109375
1.5364013671874999
1.5476806640624998
1.6129394531249999
1.7821289062499999
1.8417480468749998
1.732177734375
1.6612792968749999
1.5791015625
1.5621826171875
1.5984375
1.542041015625
1.5444580078124999
1.53076171875
1.5331787109375
1.538818359375
1.5412353515625
1.5766845703124999
1.5662109375
1.8385253906249999
1.6951171875
1.625830078125
1.55009765625
1.5605712890624999
1.525927734375
1.4195800781249999
1.3551269531249999
1.393798828125
1.4687255859375
1.4977294921875
1.5194824218749998
1.506591796875
1.53076171875
1.5404296874999999
1.5484863281249999
1.571044921875
1.571044921875
1.52109375
1.5621826171875
1.5541259765625
1.2584472656249999
1.4244140625
1.5347900390625
1.5726562499999999
1.6008544921874999
1.5815185546875
1.6524169921874998
1.7442626953125
1.6935058593749999
1.641943359375
1.638720703125
1.574267578125
1.5444580078124999
1.5146484375
1.5605712890624999
1.60166015625
1.603271484375
1.5637939453124998
1.55009765625
1.5283447265624999
1.50498046875
1.7813232421874998
1.690283203125
1.558154296875
1.545263671875
1.5766845703124999
1.5267333984375
1.3873535156249999
1.3494873046875
1.3921875
1.4413330078125
1.4493896484375
1.5243164062499999
1.5436523437499998
1.5492919921875
1.5404296874999999
1.5267333984375
1.5565429687499999
1.542041015625
1.5331787109375
1.5573486328125
1.5517089843749998
1.2640869140625
1.3752685546874999
1.53076171875
1.5315673828124998
1.5605712890624999
1.6177734375
1.6427490234375
1.799853515625
1.719287109375
1.6459716796875
1.5984375
1.5895751953125
1.6153564453125
1.6081054687499998
1.6314697265625
1.5807128906249999
1.58232421875
1.5380126953125
1.525927734375
1.5001464843749999
1.5082031249999999
1.6532226562499999
1.799853515625
1.6806152343749998
1.6081054687499998
1.5186767578125
1.4961181640624999
1.4864501953125
1.3527099609375
1.3607666015625
1.456640625
1.53720703125
1.4977294921875
1.5073974609374998
1.558154296875
1.5476806640624998
1.5138427734375
1.5533203125
1.53720703125
1.5517089843749998
1.571044921875
1.5517089843749998
1.2906738281249999
1.3921875
1.5041748046874999
1.5114257812499998
1.5331787109375
1.6266357421875
1.6773925781249999
1.8538330078124998
1.7337890624999999
1.6201904296874998
1.6185791015625
1.585546875
1.5283447265624999
1.4953124999999998
1.52109375
1.5396240234374998
1.5436523437499998
1.63388671875
1.6129394531249999
1.6089111328124999
1.5645996093749999
1.67900390625
1.8328857421875
1.6604736328124998
1.6161621093749998
1.5791015625
1.5315673828124998
1.506591796875
1.3801025390625
1.3712402343749999
1.4469726562499998
1.4864501953125
1.51787109375
1.47275390625
1.5347900390625
1.5605712890624999
1.525927734375
1.5621826171875
1.53076171875
1.5162597656249999
1.5670166015625
1.5162597656249999
1.4058837890625
1.3059814453124998
1.4574462890625
1.5146484375
1.5654052734375
1.6250244140624999
1.6371093749999999
1.815966796875
1.791796875
1.674169921875
1.5605712890624999
1.5597656249999998
1.558154296875
1.5243164062499999
1.538818359375
1.53720703125
1.5122314453124999
1.480810546875
1.5073974609374998
1.5662109375
1.558154296875
1.5565429687499999
1.7974365234374998
1.683837890625
1.6153564453125
1.533984375
1.5033691406249998
1.4308593749999998
1.2938964843749998
1.3341796874999998
1.426025390625
1.4767822265625
1.53076171875
1.5355957031249998
1.5509033203125
1.4953124999999998
1.5460693359375
1.5283447265624999
1.546875
1.5380126953125
1.5670166015625
1.5525146484374999
1.458251953125
1.1915771484375
1.4203857421875
1.5299560546875
1.58232421875
1.6363037109374998
1.6475830078125
1.8707519531249999
1.9150634765624999
1.7579589843749999
1.667724609375
1.638720703125
1.5750732421875
1.5323730468749999
1.5347900390625
1.5887695312499999
1.4638916015624999
1.4993408203124998
1.5645996093749999
1.6524169921874998
1.6218017578125
1.59521484375
1.88525390625
1.7039794921875
1.6185791015625
1.6314697265625
1.606494140625
1.50498046875
1.3688232421875
1.27294921875
1.3229003906249999
1.3921875
1.4719482421874999
1.4961181640624999
1.4791992187499998
1.5251220703125
1.533984375
1.4961181640624999
1.5645996093749999
1.5799072265624998
1.5726562499999999
1.5404296874999999
1.490478515625
1.14404296875
1.3446533203125
1.477587890625
1.5557373046874998
1.571044921875
1.6024658203125
1.7555419921875
1.8457763671874998
1.7474853515625
1.6403320312499998
1.574267578125
1.5887695312499999
1.5702392578125
1.577490234375
1.587158203125
1.5323730468749999
1.558154296875
1.5525146484374999
1.5355957031249998
1.5315673828124998
1.5275390624999998
1.7877685546875
1.6765869140624998
1.5605712890624999
1.6000488281249998
1.5573486328125
1.464697265625
1.3994384765624999
1.3494873046875
1.4364990234375
1.4558349609374999
1.4445556640625
1.47275390625
1.49853515625
1.5460693359375
1.533984375
1.5251220703125
1.5186767578125
1.51787109375
1.5404296874999999
1.522705078125
1.546875
1.213330078125
1.3559326171875
1.4316650390624999
1.525927734375
1.6121337890624998
1.6411376953124999
1.6798095703125
1.7974365234374998
1.6854492187499999
1.62744140625
1.5573486328125
1.46953125
1.585546875
1.5597656249999998
1.4953124999999998
1.4469726562499998
1.4840332031249999
1.490478515625
1.5597656249999998
1.5525146484374999
1.5315673828124998
1.8578613281249998
1.7499023437499999
1.65966796875
1.6105224609375
1.5541259765625
1.5154541015624998
1.3502929687499998
1.345458984375
1.3510986328124999
1.42119140625
1.5331787109375
1.571044921875
1.5299560546875
1.546875
1.574267578125
1.5807128906249999
1.5355957031249998
1.5001464843749999
1.5492919921875
1.5879638671874998
1.59521484375
1.2455566406249998
1.2745605468749999
1.5396240234374998
1.5645996093749999
1.65966796875
1.6604736328124998
1.7096191406249999
1.920703125
1.8457763671874998
1.6250244140624999
1.5428466796875
1.561376953125
1.5782958984375
1.5726562499999999
1.5509033203125
1.5919921874999998
1.6266357421875
1.6242187499999998
1.5919921874999998
1.5662109375
1.5492919921875
1.60166015625
1.7740722656249999
1.6645019531249998
1.6363037109374998
1.5750732421875
1.5509033203125
1.48564453125
1.3607666015625
1.3229003906249999
1.40830078125
1.456640625
1.4872558593749998
1.53076171875
1.5766845703124999
1.5726562499999999
1.558154296875
1.5573486328125
1.56943359375
1.5428466796875
1.5412353515625
1.5734619140625
1.2012451171875
1.2640869140625
1.4066894531249998
1.4751708984374998
1.5082031249999999
1.603271484375
1.687060546875
1.9150634765624999
1.8095214843749998
1.7329833984374998
1.6322753906249998
1.5654052734375
1.5734619140625
1.5645996093749999
1.5122314453124999
1.6000488281249998
1.5597656249999998
1.5766845703124999
1.5815185546875
1.5799072265624998
1.6048828124999999
1.6290527343749999
1.82724609375
1.6459716796875
1.6129394531249999
1.5799072265624998
1.554931640625
1.5001464843749999
1.3502929687499998
1.3865478515624998
1.490478515625
1.4622802734375
1.480810546875
1.496923828125
1.5106201171875
1.53076171875
1.5831298828125
1.625830078125
1.5807128906249999
1.5839355468749998
1.5436523437499998
1.5654052734375
1.482421875
1.361572265625
1.5025634765625
1.5662109375
1.5565429687499999
1.56298828125
1.6048828124999999
1.8119384765625
1.7893798828124998
1.703173828125
1.6451660156249999
1.5718505859374998
1.5235107421874998
1.58232421875
1.55009765625
1.577490234375
1.5863525390625
1.5436523437499998
1.5355957031249998
1.5476806640624998
1.56298828125
1.5815185546875
1.82080078125
1.6685302734374998
1.606494140625
1.574267578125
1.5025634765625
1.445361328125
1.348681640625
1.3478759765625
1.4091064453125
1.432470703125
1.4590576171874998
1.5090087890625
1.558154296875
1.558154296875
1.542041015625
1.5041748046874999
1.5001464843749999
1.5557373046874998
1.5887695312499999
1.5992431640625
1.561376953125
1.27294921875
1.46953125
1.5251220703125
1.611328125
1.6056884765625
1.603271484375
1.77890625
1.7909912109375
1.7080078125
1.6564453124999998
1.5766845703124999
1.561376953125
1.6177734375
1.574267578125
1.5573486328125
1.542041015625
1.5726562499999999
1.5186767578125
1.5202880859374999
1.5323730468749999
1.5589599609375
1.8618896484374998
1.6653076171874999
1.58232421875
1.58232421875
1.5404296874999999
1.509814453125
1.4147460937499998
1.3728515625
1.3825195312499998
1.4373046875
1.5025634765625
1.5082031249999999
1.5138427734375
1.5484863281249999
1.571044921875
1.59521484375
1.53720703125
1.4945068359375
1.52109375
1.5533203125
1.5323730468749999
1.2455566406249998
1.4010498046875
1.464697265625
1.593603515625
1.5758789062499998
1.590380859375
1.7934082031249998
1.8393310546875
1.7531249999999998
1.6153564453125
1.6121337890624998
1.5235107421874998
1.5831298828125
1.5347900390625
1.5879638671874998
1.606494140625
1.5573486328125
1.4759765624999999
1.5484863281249999
1.5960205078124998
1.5541259765625
1.7821289062499999
1.7080078125
1.64677734375
1.6306640625
1.59521484375
1.4888671875
1.3494873046875
1.3905761718749998
1.4123291015625
1.4800048828124999
1.5009521484375
1.493701171875
1.4630859374999998
1.5170654296875
1.6137451171875
1.5718505859374998
1.5645996093749999
1.533984375
1.53720703125
1.5734619140625
1.5637939453124998
1.2673095703125
1.4308593749999998
1.5041748046874999
1.5017578125
1.6024658203125
1.62744140625
1.71123046875
1.8635009765625
1.7184814453125
1.635498046875
1.5887695312499999
1.5782958984375
1.5976318359375
1.546875
1.5807128906249999
1.5517089843749998
