1.5525146484374999
1.719287109375
1.7716552734375
1.72734375
1.5863525390625
1.5807128906249999
1.5734619140625
1.5492919921875
1.5654052734375
1.5750732421875
1.59521484375
1.5380126953125
1.5718505859374998
1.5637939453124998
1.5702392578125
1.5509033203125
1.6121337890624998
1.7329833984374998
1.606494140625
1.5815185546875
1.6008544921874999
1.5396240234374998
1.4953124999999998
1.4518066406249999
1.393798828125
1.43408203125
1.477587890625
1.49853515625
1.5033691406249998
1.587158203125
1.6000488281249998
1.587158203125
1.5678222656249998
1.5355957031249998
1.5444580078124999
1.52109375
1.5146484375
1.4332763671875
1.3664062499999998
1.509814453125
1.5073974609374998
1.5428466796875
1.5670166015625
1.59521484375
1.8038818359375
1.7418457031249999
1.6451660156249999
1.577490234375
1.56298828125
1.5565429687499999
1.5589599609375
1.5428466796875
1.5533203125
1.577490234375
1.5734619140625
1.5251220703125
1.5364013671874999
1.5557373046874998
1.64677734375
1.7499023437499999
1.65966796875
1.606494140625
1.5919921874999998
1.538818359375
1.4711425781249998
1.426025390625
1.4195800781249999
1.4510009765624998
1.4679199218749999
1.5235107421874998
1.5186767578125
1.53076171875
1.554931640625
1.5815185546875
1.546875
1.5492919921875
1.5654052734375
1.5243164062499999
1.5573486328125
1.464697265625
1.345458984375
1.4920898437499999
1.5315673828124998
1.5573486328125
1.5799072265624998
1.5831298828125
1.7426513671875
1.7088134765624998
1.6564453124999998
1.61455078125
1.558154296875
1.5782958984375
1.585546875
1.5412353515625
1.5565429687499999
1.5484863281249999
1.5597656249999998
1.5509033203125
1.5919921874999998
1.5396240234374998
1.5347900390625
1.72412109375
1.6379150390625
1.5919921874999998
1.5984375
1.5605712890624999
1.509814453125
1.4493896484375
1.400244140625
1.4123291015625
1.48564453125
1.5533203125
1.53720703125
1.533984375
1.5573486328125
1.5331787109375
1.5315673828124998
1.53076171875
1.5573486328125
1.5557373046874998
1.5380126953125
1.4759765624999999
1.329345703125
1.4655029296875
1.5541259765625
1.5702392578125
1.5807128906249999
1.5766845703124999
1.7619873046874999
1.7523193359375
1.6773925781249999
1.5637939453124998
1.53720703125
1.5654052734375
1.5605712890624999
1.5678222656249998
1.5678222656249998
1.590380859375
1.5678222656249998
1.55009765625
1.5299560546875
1.545263671875
1.5235107421874998
1.7370117187499998
1.6435546875
1.6072998046875
1.5895751953125
1.5484863281249999
1.5299560546875
1.4171630859375
1.464697265625
1.4711425781249998
1.4703369140625
1.4977294921875
1.5106201171875
1.493701171875
1.490478515625
1.538818359375
1.561376953125
1.56943359375
1.558154296875
1.5645996093749999
1.561376953125
1.5138427734375
1.316455078125
1.4574462890625
1.5347900390625
1.5355957031249998
1.5517089843749998
1.6024658203125
1.6669189453125
1.7217041015624999
1.6636962890625
1.651611328125
1.5911865234375
1.5678222656249998
1.5960205078124998
1.6427490234375
1.542041015625
1.5170654296875
1.5831298828125
1.5686279296874999
1.53076171875
1.5299560546875
1.513037109375
1.748291015625
1.6773925781249999
1.6000488281249998
1.63388671875
1.56943359375
1.4953124999999998
1.448583984375
1.4719482421874999
1.4622802734375
1.482421875
1.4888671875
1.4767822265625
1.5492919921875
1.5186767578125
1.542041015625
1.5782958984375
1.538818359375
1.5654052734375
1.6089111328124999
1.5662109375
1.5315673828124998
1.3309570312499999
1.4026611328124998
1.5122314453124999
1.49853515625
1.5251220703125
1.5887695312499999
1.6282470703124998
1.7821289062499999
1.67578125
1.5968261718749999
1.6089111328124999
1.571044921875
1.5782958984375
1.5799072265624998
1.5637939453124998
1.53076171875
1.56943359375
1.5492919921875
1.525927734375
1.5364013671874999
1.5404296874999999
1.6443603515624998
1.6685302734374998
1.6153564453125
1.6201904296874998
1.603271484375
1.5202880859374999
1.4791992187499998
1.4276367187499999
1.4348876953124998
1.4679199218749999
1.4953124999999998
1.50498046875
1.5218994140625
1.5073974609374998
1.5944091796875
1.5492919921875
1.542041015625
1.5597656249999998
1.577490234375
1.6000488281249998
1.5637939453124998
1.3317626953125
1.368017578125
1.4711425781249998
1.522705078125
1.5283447265624999
1.5984375
1.6346923828125
1.7442626953125
1.69833984375
1.6209960937499999
1.577490234375
1.5484863281249999
1.5734619140625
1.5887695312499999
1.5484863281249999
1.5766845703124999
1.5251220703125
1.55009765625
1.587158203125
1.5766845703124999
1.5444580078124999
1.6298583984375
1.7329833984374998
1.593603515625
1.5637939453124998
1.5782958984375
1.5299560546875
1.4719482421874999
1.4195800781249999
1.3865478515624998
1.4630859374999998
1.5041748046874999
1.5186767578125
1.5654052734375
1.6129394531249999
1.5815185546875
1.5114257812499998
1.5090087890625
1.5122314453124999
1.5436523437499998
1.5396240234374998
1.5533203125
1.4493896484375
1.3857421875
1.5162597656249999
1.5299560546875
1.545263671875
1.5815185546875
1.6371093749999999
1.748291015625
1.73056640625
1.69833984375
1.6024658203125
1.5831298828125
1.5347900390625
1.5275390624999998
1.5670166015625
1.546875
1.5218994140625
1.5347900390625
1.5678222656249998
1.5702392578125
1.5766845703124999
1.590380859375
1.7176757812499999
1.65
1.6000488281249998
1.5960205078124998
1.5428466796875
1.5243164062499999
1.4332763671875
1.4236083984374999
1.458251953125
1.4574462890625
1.522705078125
1.5243164062499999
1.533984375
1.5122314453124999
1.5492919921875
1.5412353515625
1.5533203125
1.53720703125
1.571044921875
1.5315673828124998
1.5033691406249998
1.3422363281249998
1.4928955078125
1.533984375
1.5194824218749998
1.5436523437499998
1.5807128906249999
1.7635986328125
1.7853515624999998
1.6475830078125
1.61455078125
1.5807128906249999
1.587158203125
1.5807128906249999
1.5597656249999998
1.5678222656249998
1.5380126953125
1.5275390624999998
1.5597656249999998
1.5597656249999998
1.5815185546875
1.554931640625
1.7088134765624998
1.6322753906249998
1.5968261718749999
1.5927978515624999
1.5621826171875
1.5331787109375
1.445361328125
1.4606689453125
1.4767822265625
1.47275390625
1.4526123046875
1.47275390625
1.5106201171875
1.5202880859374999
1.5404296874999999
1.5525146484374999
1.5726562499999999
1.5565429687499999
1.5444580078124999
1.5734619140625
1.5017578125
1.335791015625
1.4477783203124999
1.5347900390625
1.53076171875
1.5533203125
1.5436523437499998
1.706396484375
1.7611816406249998
1.6781982421875
1.6105224609375
1.5758789062499998
1.5678222656249998
1.5807128906249999
1.538818359375
1.590380859375
1.5807128906249999
1.58232421875
1.5597656249999998
1.53076171875
1.529150390625
1.5492919921875
1.7700439453124999
1.6653076171874999
1.5960205078124998
1.58232421875
1.5791015625
1.5090087890625
1.4501953125
1.4510009765624998
1.4606689453125
1.4840332031249999
1.4872558593749998
1.53720703125
1.5041748046874999
1.5267333984375
1.5428466796875
1.5654052734375
1.5621826171875
1.5331787109375
1.5436523437499998
1.5839355468749998
1.5605712890624999
1.3083984375
1.4477783203124999
1.5138427734375
1.509814453125
1.58232421875
1.5807128906249999
1.625830078125
1.7660156249999999
1.6814208984374999
1.6185791015625
1.60166015625
1.55009765625
1.5484863281249999
1.5509033203125
1.5944091796875
1.5597656249999998
1.5428466796875
1.5573486328125
1.5476806640624998
1.5839355468749998
1.5557373046874998
1.7257324218749999
1.6967285156249998
1.6443603515624998
1.5847412109374999
1.554931640625
1.5428466796875
1.4171630859375
1.4187744140624998
1.4066894531249998
1.4437499999999999
1.474365234375
1.5533203125
1.5380126953125
1.529150390625
1.5251220703125
1.5460693359375
1.574267578125
1.5573486328125
1.533984375
1.5267333984375
1.53720703125
1.3664062499999998
1.456640625
1.5331787109375
1.5138427734375
1.5323730468749999
1.5509033203125
1.6218017578125
1.7861572265624999
1.7047851562499998
1.6524169921874998
1.6250244140624999
1.6008544921874999
1.5396240234374998
1.5484863281249999
1.554931640625
1.5726562499999999
1.52109375
1.53720703125
1.5412353515625
1.5605712890624999
1.5517089843749998
1.6000488281249998
1.6894775390624999
1.603271484375
1.6089111328124999
1.590380859375
1.5380126953125
1.50498046875
1.4606689453125
1.4542236328125
1.46953125
1.4896728515625
1.5146484375
1.5138427734375
1.5186767578125
1.5396240234374998
1.5621826171875
1.5476806640624998
1.5839355468749998
1.5428466796875
1.5275390624999998
1.5355957031249998
1.3349853515624999
1.3744628906249998
1.493701171875
1.53720703125
1.5517089843749998
1.5662109375
1.5670166015625
1.7579589843749999
1.690283203125
1.6475830078125
1.5879638671874998
1.5605712890624999
1.5927978515624999
1.5517089843749998
1.5347900390625
1.5597656249999998
1.5597656249999998
1.5734619140625
1.593603515625
1.5670166015625
1.5275390624999998
1.5782958984375
1.7523193359375
1.6306640625
1.5968261718749999
1.5839355468749998
1.5686279296874999
1.5090087890625
1.4308593749999998
1.400244140625
1.4630859374999998
1.4872558593749998
1.4767822265625
1.4791992187499998
1.506591796875
1.525927734375
1.554931640625
1.593603515625
1.5807128906249999
1.5605712890624999
1.56298828125
1.5492919921875
1.47275390625
1.41796875
1.5138427734375
1.5355957031249998
1.52109375
1.5235107421874998
1.585546875
1.7337890624999999
1.7571533203124998
1.65966796875
1.6443603515624998
1.5927978515624999
1.571044921875
1.5323730468749999
1.52109375
1.5170654296875
1.546875
1.5541259765625
1.5428466796875
1.5436523437499998
1.585546875
1.5404296874999999
1.7337890624999999
1.658056640625
1.611328125
1.6161621093749998
1.5863525390625
1.5364013671874999
1.4139404296875
1.4034667968749999
1.44052734375
1.48564453125
1.5347900390625
1.5315673828124998
1.5106201171875
1.5267333984375
1.5331787109375
1.5194824218749998
1.574267578125
1.5444580078124999
1.5589599609375
1.5686279296874999
1.529150390625
1.3365966796875
1.3921875
1.5009521484375
1.571044921875
1.5621826171875
1.571044921875
1.7233154296875
1.7531249999999998
1.6242187499999998
1.5839355468749998
1.5509033203125
1.5573486328125
1.5565429687499999
1.5879638671874998
1.60166015625
1.5331787109375
1.574267578125
1.5718505859374998
1.509814453125
1.5428466796875
1.5565429687499999
1.7257324218749999
1.62744140625
1.5927978515624999
1.5758789062499998
1.5662109375
1.5323730468749999
1.4389160156249998
1.3994384765624999
1.4308593749999998
1.4630859374999998
1.533984375
1.513037109375
1.5460693359375
1.5243164062499999
1.561376953125
1.5033691406249998
1.5186767578125
1.55009765625
1.5621826171875
1.5726562499999999
1.546875
1.3261230468749998
1.458251953125
1.5082031249999999
1.5404296874999999
1.5436523437499998
1.5637939453124998
1.7096191406249999
1.7603759765625
1.64677734375
1.6129394531249999
1.5734619140625
1.58232421875
1.590380859375
1.593603515625
1.5831298828125
1.5138427734375
1.5025634765625
1.5396240234374998
1.554931640625
1.5597656249999998
1.5436523437499998
1.74345703125
1.71123046875
1.63388671875
1.6556396484375
1.5927978515624999
1.482421875
1.4518066406249999
1.4074951171874999
1.4316650390624999
1.4735595703125
1.513037109375
1.4977294921875
1.5154541015624998
1.5218994140625
1.5444580078124999
1.5976318359375
1.56943359375
1.56943359375
1.5283447265624999
1.5315673828124998
1.5758789062499998
1.3559326171875
1.464697265625
1.5001464843749999
1.496923828125
1.5364013671874999
1.5831298828125
1.6242187499999998
1.7716552734375
1.65966796875
1.590380859375
1.5887695312499999
1.5911865234375
1.5807128906249999
1.5218994140625
1.5283447265624999
1.5919921874999998
1.5992431640625
1.5815185546875
1.5476806640624998
1.4953124999999998
1.4671142578124998
1.6910888671875
1.6830322265625
1.611328125
1.63388671875
1.558154296875
1.5396240234374998
1.5782958984375
1.4791992187499998
1.4284423828125
1.4590576171874998
1.464697265625
1.4888671875
1.5057861328125
1.5436523437499998
1.5637939453124998
1.5509033203125
1.545263671875
1.5315673828124998
1.546875
1.53720703125
1.545263671875
1.3527099609375
1.4115234374999999
1.525927734375
1.49853515625
1.5412353515625
1.5654052734375
1.603271484375
1.76279296875
1.7289550781249998
1.6693359374999999
1.6024658203125
1.5678222656249998
1.5517089843749998
1.5525146484374999
1.577490234375
1.5533203125
1.56298828125
1.5541259765625
1.5589599609375
1.5621826171875
1.53720703125
1.5839355468749998
1.7168701171874998
1.6137451171875
1.6177734375
1.5758789062499998
1.5275390624999998
1.482421875
1.4139404296875
1.4203857421875
1.4590576171874998
1.4864501953125
1.509814453125
1.496923828125
1.5202880859374999
1.5347900390625
1.5460693359375
1.546875
1.5766845703124999
1.5331787109375
1.5235107421874998
1.5799072265624998
1.3422363281249998
1.3954101562499999
1.4655029296875
1.5355957031249998
1.558154296875
1.5380126953125
1.5726562499999999
1.7990478515625
1.7362060546875
1.622607421875
1.6056884765625
1.6298583984375
1.5605712890624999
1.5492919921875
1.5380126953125
1.5355957031249998
1.5541259765625
1.5654052734375
1.5525146484374999
1.5364013671874999
1.574267578125
1.6000488281249998
1.7370117187499998
1.6306640625
1.5879638671874998
1.6000488281249998
1.5919921874999998
1.5009521484375
1.4397216796874999
1.4042724609375
1.4284423828125
1.4550292968749998
1.480810546875
1.4872558593749998
1.5186767578125
1.5573486328125
1.574267578125
1.56298828125
1.533984375
1.5702392578125
1.5541259765625
1.5364013671874999
1.5001464843749999
1.316455078125
1.4751708984374998
1.5057861328125
1.5637939453124998
1.5565429687499999
1.5911865234375
1.7345947265625
1.7281494140625
1.62744140625
1.6040771484374998
1.574267578125
1.5621826171875
1.5533203125
1.59521484375
1.587158203125
1.5750732421875
1.5734619140625
1.5436523437499998
1.5597656249999998
1.542041015625
1.5662109375
1.7595703125
1.64677734375
1.6177734375
1.5791015625
1.5194824218749998
1.490478515625
1.413134765625
1.4066894531249998
1.416357421875
1.5001464843749999
1.513037109375
1.5315673828124998
1.542041015625
1.5492919921875
1.546875
1.546875
1.5597656249999998
1.5662109375
1.5364013671874999
1.5541259765625
1.529150390625
1.340625
1.482421875
1.482421875
1.5412353515625
1.5355957031249998
1.5968261718749999
1.7474853515625
1.7587646484375
1.6733642578124999
1.5621826171875
1.5460693359375
1.5791015625
1.5621826171875
1.5605712890624999
1.542041015625
1.5621826171875
1.577490234375
1.603271484375
1.554931640625
1.5605712890624999
1.529150390625
1.7603759765625
1.6379150390625
1.590380859375
1.5670166015625
1.5766845703124999
1.5412353515625
1.442138671875
1.4276367187499999
1.4276367187499999
1.47275390625
1.5235107421874998
1.5057861328125
1.5251220703125
1.5299560546875
1.5766845703124999
1.5347900390625
1.49853515625
1.5082031249999999
1.5621826171875
1.561376953125
1.5678222656249998
1.329345703125
1.4558349609374999
1.4711425781249998
1.538818359375
1.5621826171875
1.5782958984375
1.65966796875
1.78857421875
1.690283203125
1.6314697265625
1.585546875
1.5670166015625
1.546875
1.5267333984375
1.5243164062499999
1.5017578125
1.5517089843749998
1.5597656249999998
1.5436523437499998
1.5637939453124998
1.5436523437499998
1.7490966796874998
1.7313720703125
1.638720703125
1.5960205078124998
1.5476806640624998
1.4840332031249999
1.47275390625
1.4413330078125
1.40185546875
1.4751708984374998
1.48564453125
1.5315673828124998
1.5347900390625
1.5509033203125
1.529150390625
1.5380126953125
1.5597656249999998
1.5509033203125
1.5525146484374999
1.5573486328125
1.5662109375
1.3341796874999998
1.4364990234375
1.4840332031249999
1.4872558593749998
1.5968261718749999
1.6000488281249998
1.6234130859375
1.7410400390624998
1.6991455078125
1.65966796875
1.6185791015625
1.5404296874999999
1.554931640625
1.5436523437499998
1.5847412109374999
1.5517089843749998
1.56298828125
1.5662109375
1.5557373046874998
1.561376953125
1.5492919921875
1.7490966796874998
1.703173828125
1.6056884765625
1.6000488281249998
1.5492919921875
1.52109375
1.4501953125
1.43408203125
1.416357421875
1.4445556640625
1.4977294921875
1.5283447265624999
1.5025634765625
1.5887695312499999
1.5637939453124998
1.496923828125
1.5589599609375
1.533984375
1.5235107421874998
1.5355957031249998
1.5492919921875
1.364794921875
1.3857421875
1.4711425781249998
1.5073974609374998
1.5565429687499999
1.6008544921874999
1.6443603515624998
1.767626953125
1.732177734375
1.6089111328124999
1.5863525390625
1.5863525390625
1.590380859375
1.5573486328125
1.5927978515624999
1.5476806640624998
1.5509033203125
1.5476806640624998
1.522705078125
1.5412353515625
1.5565429687499999
1.5831298828125
1.7394287109375
1.590380859375
1.6089111328124999
1.5927978515624999
1.5331787109375
1.5138427734375
1.461474609375
1.4381103515625
1.4501953125
1.4759765624999999
1.4679199218749999
1.4759765624999999
1.53720703125
1.5927978515624999
1.5766845703124999
1.5541259765625
1.5218994140625
1.5275390624999998
1.5380126953125
1.53720703125
1.5057861328125
1.3801025390625
1.5090087890625
1.5347900390625
1.5186767578125
1.5766845703124999
1.5984375
1.7861572265624999
1.7088134765624998
1.65
1.5879638671874998
1.5863525390625
1.5927978515624999
1.5492919921875
1.5645996093749999
1.5412353515625
1.5645996093749999
1.577490234375
1.5541259765625
1.5782958984375
1.5637939453124998
1.58232421875
1.7426513671875
1.611328125
1.5927978515624999
1.5799072265624998
1.53720703125
1.4928955078125
1.429248046875
1.4187744140624998
1.4316650390624999
1.5009521484375
1.5138427734375
1.545263671875
1.5380126953125
1.533984375
1.545263671875
1.5347900390625
1.5525146484374999
1.5815185546875
1.5517089843749998
1.5533203125
1.545263671875
1.3341796874999998
1.493701171875
1.5364013671874999
1.5347900390625
1.5517089843749998
1.5992431640625
1.72412109375
1.722509765625
1.6250244140624999
1.611328125
1.5670166015625
1.6000488281249998
1.58232421875
1.5734619140625
1.5565429687499999
1.52109375
1.5235107421874998
1.5315673828124998
1.5573486328125
1.571044921875
1.5541259765625
1.74345703125
1.6363037109374998
1.5750732421875
1.65966796875
1.622607421875
1.5919921874999998
1.4526123046875
1.3849365234375
1.393798828125
1.4437499999999999
1.4961181640624999
1.4961181640624999
1.522705078125
1.6242187499999998
1.5597656249999998
1.5509033203125
1.529150390625
1.5718505859374998
1.5807128906249999
1.5807128906249999
1.5202880859374999
1.29228515625
1.426025390625
1.4953124999999998
1.5299560546875
1.538818359375
1.571044921875
1.7152587890625
1.7490966796874998
1.6927001953124998
1.62744140625
1.587158203125
1.5533203125
1.5670166015625
1.545263671875
1.5662109375
1.554931640625
1.5484863281249999
1.5565429687499999
1.5670166015625
1.5791015625
1.5863525390625
1.7853515624999998
1.6314697265625
1.6121337890624998
1.6105224609375
1.606494140625
1.5323730468749999
1.4711425781249998
1.4244140625
1.3978271484375
1.4622802734375
1.4832275390624998
1.5057861328125
1.5073974609374998
1.5589599609375
1.5347900390625
1.5573486328125
1.622607421875
1.5726562499999999
1.5863525390625
1.5436523437499998
1.5033691406249998
1.271337890625
1.4058837890625
1.4920898437499999
1.533984375
1.542041015625
1.6000488281249998
1.63388671875
1.819189453125
1.7104248046875
1.6040771484374998
1.5589599609375
1.5654052734375
1.571044921875
1.525927734375
1.5605712890624999
1.5412353515625
1.56298828125
1.5750732421875
1.5460693359375
1.5654052734375
1.574267578125
1.7781005859374999
1.7313720703125
1.603271484375
1.538818359375
1.5726562499999999
1.5106201171875
1.4284423828125
1.3986328124999998
1.4066894531249998
1.4606689453125
1.5090087890625
1.5847412109374999
1.5202880859374999
1.5597656249999998
1.5621826171875
1.5412353515625
1.4791992187499998
1.5460693359375
1.546875
1.5460693359375
1.542041015625
1.3382080078124998
1.3656005859375
1.456640625
1.5146484375
1.5492919921875
1.585546875
1.6411376953124999
1.82080078125
1.7603759765625
1.6685302734374998
1.5976318359375
1.5323730468749999
1.5517089843749998
1.5750732421875
1.5791015625
1.545263671875
1.56298828125
1.5444580078124999
1.55009765625
1.5525146484374999
1.5283447265624999
1.687060546875
1.7499023437499999
1.6532226562499999
1.619384765625
1.5428466796875
1.525927734375
1.529150390625
1.3825195312499998
1.3188720703124999
1.3639892578125
1.4373046875
1.4228027343749998
1.464697265625
1.5799072265624998
1.5267333984375
1.4888671875
1.5025634765625
1.5082031249999999
1.55009765625
1.5404296874999999
1.5033691406249998
1.2705322265624999
1.2479736328125
1.3857421875
1.44052734375
1.5355957031249998
1.5517089843749998
1.7297607421874999
1.993212890625
1.9593749999999999
1.8409423828125
1.6806152343749998
1.5944091796875
1.5509033203125
1.5194824218749998
1.5267333984375
1.5621826171875
1.5863525390625
1.622607421875
1.6056884765625
1.5573486328125
1.525927734375
1.55009765625
1.8377197265624998
1.74345703125
1.714453125
1.6427490234375
1.4719482421874999
1.4219970703125
1.2777832031249998
1.18271484375
1.300341796875
1.3881591796875
1.4477783203124999
1.4800048828124999
1.55009765625
1.5807128906249999
1.56943359375
1.6040771484374998
1.56298828125
1.5750732421875
1.4977294921875
1.474365234375
1.4308593749999998
1.2479736328125
1.3954101562499999
1.3857421875
1.5235107421874998
1.593603515625
1.651611328125
1.8925048828125
1.9303710937499998
1.7990478515625
1.7660156249999999
1.6830322265625
1.6218017578125
1.6725585937499998
1.6669189453125
1.6056884765625
1.49853515625
1.49853515625
1.4630859374999998
1.4912841796874998
1.5235107421874998
1.58232421875
1.948095703125
1.828857421875
1.6910888671875
1.6048828124999999
1.5355957031249998
1.416357421875
1.2995361328125
1.1754638671875
1.1625732421875
1.3422363281249998
1.405078125
1.5041748046874999
1.474365234375
1.5218994140625
1.585546875
1.5750732421875
1.6121337890624998
1.5758789062499998
1.587158203125
1.5267333984375
1.5275390624999998
1.123095703125
1.3253173828125
1.4074951171874999
1.474365234375
1.5299560546875
1.6379150390625
1.9311767578124999
2.028662109375
1.89169921875
1.80791015625
1.714453125
1.6209960937499999
1.6282470703124998
1.577490234375
1.5364013671874999
1.561376953125
1.611328125
1.5380126953125
1.4655029296875
1.53720703125
1.5355957031249998
1.9271484374999999
1.8199951171875
1.7047851562499998
1.64677734375
1.5428466796875
1.4864501953125
1.3108154296874999
1.1666015625
1.1899658203124999
1.2511962890625
1.3946044921874998
1.4953124999999998
1.4445556640625
1.5670166015625
1.5686279296874999
1.5831298828125
1.5654052734375
1.5138427734375
1.509814453125
1.5347900390625
1.585546875
1.1375976562499999
1.174658203125
1.3108154296874999
1.4284423828125
1.5573486328125
1.5799072265624998
2.0826416015625
2.131787109375
2.0069091796875
1.77890625
1.6975341796874999
1.6129394531249999
1.5565429687499999
1.513037109375
1.5444580078124999
1.5396240234374998
1.5758789062499998
1.587158203125
1.53076171875
1.48564453125
1.4501953125
1.8651123046875
1.91748046875
1.7507080078125
1.7080078125
1.6427490234375
1.4590576171874998
1.1964111328125
1.147265625
1.1690185546875
1.2254150390625
1.3873535156249999
1.5315673828124998
1.5347900390625
1.5243164062499999
1.5484863281249999
1.58232421875
1.577490234375
1.5589599609375
1.6081054687499998
1.5782958984375
1.5138427734375
1.13115234375
1.1980224609374999
1.33740234375
1.4171630859375
1.5944091796875
1.6693359374999999
1.8022705078124999
2.165625
2.0681396484375
1.8473876953125
1.7015624999999999
1.5637939453124998
1.5347900390625
1.4759765624999999
1.4711425781249998
1.477587890625
1.5355957031249998
1.546875
1.571044921875
1.5460693359375
1.5186767578125
1.8135498046874998
1.8626953124999999
1.7829345703125
1.699951171875
1.6161621093749998
1.538818359375
1.3470703124999999
1.2342773437499999
1.1512939453125
1.1416259765624999
1.2898681640624998
1.4228027343749998
1.4872558593749998
1.5541259765625
1.6250244140624999
1.6645019531249998
1.6564453124999998
1.6371093749999999
1.577490234375
1.4510009765624998
1.4816162109375
1.087646484375
1.06669921875
1.32451171875
1.4244140625
1.542041015625
1.6886718749999998
1.7934082031249998
2.1333984375
2.183349609375
1.9537353515625
1.8046875
1.603271484375
1.5299560546875
1.4598632812499999
1.5750732421875
1.525927734375
1.4888671875
1.5235107421874998
1.533984375
1.496923828125
1.5275390624999998
1.658056640625
1.9593749999999999
1.896533203125
1.7700439453124999
1.611328125
1.4558349609374999
1.3792968749999999
1.255224609375
1.0932861328124999
1.106982421875
1.24072265625
1.340625
1.4171630859375
1.480810546875
1.58232421875
1.6081054687499998
1.6346923828125
1.60166015625
1.554931640625
1.5476806640624998
1.5734619140625
1.19560546875
1.0481689453125
1.1996337890625
1.3857421875
1.4912841796874998
1.6177734375
1.751513671875
2.1841552734375
2.1664306640624997
2.0713623046875
1.8707519531249999
1.699951171875
1.6491943359374999
1.53720703125
1.4413330078125
1.384130859375
1.3744628906249998
1.4920898437499999
1.4832275390624998
1.533984375
1.5186767578125
1.6161621093749998
2.0230224609375
1.9513183593749999
1.7926025390625
1.6483886718749998
1.3108154296874999
1.0248046874999999
0.468896484375
0.1168212890625
0.040283203125
0.04189453125
0.0580078125
0.0990966796875
0.1998046875
0.2038330078125
0.270703125
0.3472412109375
0.44230957031249996
0.6243896484375
0.7927734375
0.9031494140624999
0.8580322265625
0.294873046875
0.0926513671875
0.0378662109375
0.0394775390625
0.040283203125
0.1353515625
0.6493652343749999
1.08603515625
1.5347900390625
1.799853515625
1.9489013671875
2.215576171875
2.29775390625
2.3396484374999997
2.3879882812499997
2.489501953125
2.5467041015625
2.518505859375
2.56845703125
2.5555664062499996
2.56201171875
3.04541015625
3.0446044921874997
3.0462158203125
3.0478271484375
3.0462158203125
3.0470214843749996
2.8012939453124996
2.4766113281249997
2.20107421875
1.9650146484375
1.7370117187499998
1.5662109375
1.4066894531249998
1.3954101562499999
1.2616699218749998
1.06669921875
1.1738525390624999
1.203662109375
1.19560546875
1.148876953125
1.1029541015625
0.3762451171875
0.18852539062499998
0.0378662109375
0.038671874999999994
0.04189453125
0.040283203125
0.4680908203125
0.98291015625
1.2463623046874999
1.5621826171875
1.7724609375
1.8216064453124998
1.909423828125
2.064111328125
2.09150390625
2.0568603515625
2.1728759765625
2.1946289062499997
2.1462890624999997
2.151123046875
2.183349609375
2.7263671874999997
2.9390625
3.0462158203125
3.043798828125
3.0494384765625
3.04541015625
2.7303955078124997
2.479833984375
1.989990234375
1.7958251953125
1.6314697265625
1.445361328125
1.1931884765625
1.0481689453125
1.0159423828125
0.9498779296875
0.9643798828125
0.8910644531249999
0.8580322265625
0.9547119140625
0.9434326171874999
0.427001953125
0.1071533203125
0.0394775390625
0.041088867187499996
0.040283203125
0.038671874999999994
0.2908447265625
0.7959960937499999
1.1819091796874999
1.4461669921875
1.6306640625
1.8216064453124998
1.8232177734375
1.98837890625
1.98193359375
2.0012695312499997
2.035107421875
2.0133544921874997
2.0181884765625
2.0568603515625
2.0504150390625
2.5096435546875
2.7392578125
2.8931396484375
3.0470214843749996
3.0478271484375
3.04541015625
2.9882080078124997
2.4693603515625
2.0858642578124997
1.8119384765625
1.5791015625
1.4429443359374998
1.3188720703124999
1.2399169921875
1.14404296875
1.0803955078125
1.06025390625
1.0368896484374999
1.058642578125
1.013525390625
0.9877441406249999
0.510791015625
0.1796630859375
0.043505859375
0.040283203125
0.040283203125
0.040283203125
0.11440429687499999
0.7774658203125
1.08603515625
1.3462646484374998
1.5235107421874998
1.577490234375
1.6620849609375
1.7797119140625
1.8054931640624998
1.9464843749999998
1.996435546875
1.9650146484375
2.0004638671875
1.96904296875
1.980322265625
2.25263671875
2.763427734375
2.9640380859374997
3.0478271484375
3.0486328124999997
3.0446044921874997
2.8979736328124996
2.5660400390625
2.2598876953125
1.8957275390625
1.7176757812499999
1.4945068359375
1.3019531249999998
1.2511962890625
1.1609619140625
1.1021484375
1.0207763671874999
0.9321533203125
0.9071777343749999
0.8926757812499999
0.9434326171874999
0.631640625
0.0394775390625
0.040283203125
0.04189453125
0.0378662109375
0.0378662109375
0.0765380859375
0.554296875
1.11826171875
1.3881591796875
1.587158203125
1.716064453125
1.8715576171875
1.9440673828125
1.9948242187499998
2.1132568359375
2.1076171875
2.0044921875
2.0697509765624997
2.064111328125
2.080224609375
2.0254394531249997
2.76826171875
2.9600097656249997
3.0462158203125
3.0510498046874996
3.0494384765625
3.0413818359375
2.7126708984374996
2.3146728515625
2.067333984375
1.8054931640624998
1.5355957031249998
1.3462646484374998
1.1835205078125
1.0239990234375
0.9861328125
0.9853271484374999
0.9313476562499999
0.8958984375
0.8523925781249999
0.800830078125
0.6646728515625
0.042700195312499994
0.043505859375
0.040283203125
0.041088867187499996
0.0394775390625
0.040283203125
0.491455078125
0.9257080078125
1.2705322265624999
1.5533203125
1.6459716796875
1.815966796875
1.8755859375
2.0109375
2.0818359374999997
2.1615966796875
2.1906005859374997
2.164013671875
2.2051025390625
2.1599853515625
2.1342041015624997
2.747314453125
2.940673828125
3.0446044921874997
3.0462158203125
3.0470214843749996
3.0325195312499997
2.7142822265624997
2.4403564453124997
1.9859619140625
1.7450683593749998
1.5686279296874999
1.4026611328124998
1.2286376953125
1.1367919921875
1.0658935546875
1.0207763671874999
1.0006347656249999
0.9651855468749999
0.97001953125
0.9756591796874999
0.8910644531249999
0.2135009765625
0.0394775390625
0.04189453125
0.040283203125
0.041088867187499996
0.07814941406249999
0.30615234375
0.8056640625
1.3212890625
1.5831298828125
1.7184814453125
1.8755859375
2.0020751953125
2.1293701171875
2.164013671875
2.0729736328125
2.0729736328125
2.151123046875
2.1374267578125
2.0778076171874997
2.1140624999999997
2.578125
2.8456054687499996
2.96484375
3.0470214843749996
3.0462158203125
3.043798828125
2.8963623046875
2.384765625
2.00771484375
1.75634765625
1.4228027343749998
1.2254150390625
1.077978515625
0.903955078125
0.8789794921874999
0.8225830078124999
0.7839111328124999
0.7879394531249999
0.752490234375
0.784716796875
0.7379882812499999
0.159521484375
0.037060546874999996
0.040283203125
0.0394775390625
0.041088867187499996
0.040283203125
0.18046874999999998
0.7702148437499999
1.1690185546875
1.4888671875
1.5968261718749999
1.7764892578125
1.9118408203125
2.0302734375
1.9795166015624999
2.0971435546875
2.08828125
2.1245361328125
2.126953125
2.0810302734375
2.1333984375
2.4580810546875
2.7988769531249997
3.01318359375
3.0446044921874997
3.043798828125
3.0446044921874997
2.9785400390624996
2.6619140624999997
2.1325927734375
1.843359375
1.654833984375
1.5146484375
1.3430419921874999
1.2528076171875
1.1722412109375
1.100537109375
0.98291015625
0.9353759765624999
0.9015380859375
0.8306396484374999
0.8830078124999999
0.5164306640624999
0.041088867187499996
0.0443115234375
0.043505859375
0.0394775390625
0.040283203125
0.10151367187499999
0.5615478515625
0.9788818359375
1.2383056640624999
1.4236083984374999
1.6072998046875
1.7426513671875
1.8151611328125
1.9327880859375
2.047998046875
1.9730712890625
1.9827392578124998
2.0133544921874997
2.028662109375
2.0890869140625
2.3694580078125
2.8061279296875
2.9140869140624996
3.043798828125
3.0470214843749996
3.0462158203125
2.95517578125
2.5853759765624997
2.270361328125
1.9537353515625
1.6975341796874999
1.5476806640624998
1.3180664062499998
1.1512939453125
1.0739501953125
1.0650878906249999
0.9547119140625
0.9128173828124999
0.8789794921874999
0.8588378906249999
0.797607421875
0.5124023437499999
0.0523681640625
0.043505859375
0.038671874999999994
0.040283203125
0.0378662109375
0.064453125
0.5470458984375
0.9804931640625
1.3237060546875
1.577490234375
1.71123046875
1.8377197265624998
1.8618896484374998
1.8900878906249998
1.9464843749999998
1.9730712890625
2.0794189453125
2.1470947265625
2.1535400390625
2.1382324218749997
2.1205078125
2.7166992187499996
2.9398681640624997
3.050244140625
3.04541015625
3.043798828125
3.0139892578125
2.6772216796875
2.3404541015625
2.08505859375
1.8183837890624999
1.6153564453125
1.4316650390624999
1.2826171874999999
1.155322265625
1.0352783203125
0.90556640625
0.910400390625
0.90556640625
0.9007324218749999
0.8016357421875
0.8322509765624999
0.09748535156249999
0.041088867187499996
0.041088867187499996
0.040283203125
0.041088867187499996
0.041088867187499996
0.3069580078125
0.994189453125
1.1271240234375
1.3978271484375
1.5251220703125
1.6024658203125
1.7410400390624998
1.8699462890624998
1.9545410156249998
2.0254394531249997
1.9625976562499998
2.0520263671875
2.0391357421875
1.973876953125
1.93681640625
2.4911132812499996
2.6885009765624996
2.9366455078125
3.0446044921874997
3.0478271484375
3.0462158203125
2.719921875
2.4524414062499997
2.128564453125
1.7909912109375
1.5073974609374998
1.3446533203125
1.2383056640624999
1.116650390625
1.1150390625
1.1214843749999999
0.9353759765624999
0.87978515625
0.8427246093749999
0.9176513671875
0.9410156249999999
0.25217285156249997
0.041088867187499996
0.042700195312499994
0.04189453125
0.040283203125
0.038671874999999994
0.2827880859375
0.7879394531249999
1.1617675781249999
1.4735595703125
1.6209960937499999
1.7257324218749999
1.8216064453124998
1.915869140625
1.972265625
2.096337890625
2.1116455078125
2.165625
2.1301757812499997
2.1293701171875
2.1462890624999997
2.5160888671875
2.94873046875
3.0421875
3.0486328124999997
3.043798828125
3.02607421875
2.8874999999999997
2.50400390625
2.07216796875
1.8409423828125
1.5597656249999998
1.3140380859374998
1.21171875
1.0763671875
0.9676025390624999
0.9208740234374999
0.85400390625
0.8580322265625
0.829833984375
0.8185546874999999
0.849169921875
0.2771484375
0.037060546874999996
0.040283203125
0.040283203125
0.040283203125
0.037060546874999996
0.04189453125
0.7001220703125
1.0497802734375
1.3172607421875
1.4590576171874998
1.69833984375
1.7635986328125
1.8884765625
2.03994140625
2.1873779296875
2.16884765625
2.165625
2.160791015625
2.0947265625
2.0979492187499997
2.3742919921875
2.8367431640625
3.021240234375
3.04541015625
3.0470214843749996
3.0421875
2.9946533203124996
2.698974609375
2.34931640625
2.060888671875
1.690283203125
1.577490234375
1.4123291015625
1.2020507812499999
1.1303466796875
1.0836181640625
1.08603515625
1.095703125
1.0530029296874999
0.9756591796874999
0.887841796875
0.44230957031249996
0.091845703125
0.037060546874999996
0.0443115234375
0.040283203125
0.041088867187499996
0.0394775390625
0.5260986328125
0.8822021484375
1.2753662109375
1.4993408203124998
1.667724609375
1.7748779296875
1.843359375
1.9384277343749998
2.0165771484375
2.096337890625
2.13662109375
2.176904296875
2.2026855468749997
2.147900390625
2.135009765625
2.850439453125
2.872998046875
3.0446044921874997
3.04541015625
3.0462158203125
3.04541015625
2.7529541015624996
2.34931640625
2.0375244140624997
1.738623046875
1.4477783203124999
1.3704345703124998
1.2109130859375
1.181103515625
1.119873046875
0.928125
0.8999267578125
0.849169921875
0.8910644531249999
0.8934814453125
0.6050537109374999
0.127294921875
0.042700195312499994
0.04189453125
0.041088867187499996
0.0378662109375
0.037060546874999996
0.5502685546875
0.8693115234375
1.2286376953125
1.4381103515625
1.5726562499999999
1.69189453125
1.819189453125
1.9021728515624998
1.973876953125
2.0302734375
2.064111328125
2.1551513671875
2.152734375
2.1164794921875
2.1205078125
2.66513671875
2.874609375
3.0188232421874996
3.0470214843749996
3.04541015625
2.972900390625
2.666748046875
2.3267578125
2.0415527343749997
1.7571533203124998
1.5073974609374998
1.2898681640624998
1.0973144531249999
1.106982421875
1.0642822265625
0.9958007812499999
0.9418212890625
0.9224853515625
0.9313476562499999
0.9305419921875
0.878173828125
0.2102783203125
0.042700195312499994
0.041088867187499996
0.0443115234375
0.040283203125
0.040283203125
0.40927734374999997
0.9385986328125
1.3067871093749999
1.477587890625
1.6298583984375
1.8119384765625
1.8949218749999999
1.98515625
2.05283203125
2.101171875
2.10439453125
2.0504150390625
2.0197998046875
1.931982421875
1.957763671875
2.513671875
2.7005859374999996
2.8681640625
3.034130859375
3.0470214843749996
3.04541015625
2.81015625
2.4202148437499997
2.080224609375
1.7748779296875
1.4783935546875
1.3059814453124998
1.044140625
1.0336669921875
1.0304443359375
0.9635742187499999
0.8765624999999999
0.865283203125
0.8403076171874999
0.8531982421875
0.8113037109375
0.16677246093749998
0.038671874999999994
0.040283203125
0.0394775390625
0.0394775390625
0.0394775390625
0.3544921875
0.8709228515624999
1.1915771484375
1.4703369140625
1.7281494140625
1.8417480468749998
1.8820312499999998
1.9432617187499999
1.9996582031249999
2.015771484375
2.1680419921875
2.164013671875
2.1454833984375
2.2212158203125
2.2051025390625
2.4927246093749997
2.8447998046875
3.0462158203125
3.0470214843749996
3.0462158203125
3.043798828125
3.0027099609374996
2.6780273437499997
2.2582763671875
1.9166748046875
1.687060546875
1.4711425781249998
1.2785888671874999
1.1456542968749999
1.0691162109374999
1.026416015625
1.0409179687499999
0.9949951171875
0.9651855468749999
0.9482666015625
0.928125
0.4439208984375
0.037060546874999996
0.041088867187499996
0.041088867187499996
0.0362548828125
0.038671874999999994
0.10554199218749999
0.6308349609374999
1.1174560546874999
1.361572265625
1.5879638671874998
1.6612792968749999
1.7958251953125
1.883642578125
1.8796142578125
1.9867675781249998
2.0504150390625
2.0391357421875
2.051220703125
2.0334960937499997
2.0665283203125
2.0947265625
2.7577880859375
2.9116699218749997
3.0365478515624997
3.0486328124999997
3.0486328124999997
3.0429931640624996
2.673193359375
2.255859375
2.0149658203125
1.732177734375
1.477587890625
1.3285400390625
1.2455566406249998
1.1432373046875
1.0409179687499999
0.894287109375
0.9168457031249999
0.9063720703125
0.8910644531249999
0.8830078124999999
0.41572265625
0.041088867187499996
0.040283203125
0.04189453125
0.040283203125
0.038671874999999994
0.040283203125
0.5534912109375
0.8749511718749999
1.147265625
1.4389160156249998
1.6008544921874999
1.6943115234375
1.7635986328125
1.87236328125
1.9891845703125
2.0230224609375
2.012548828125
2.093115234375
2.1140624999999997
2.1164794921875
2.08505859375
2.6401611328124996
2.921337890625
3.0478271484375
3.0462158203125
3.04541015625
3.0083496093749997
2.7078369140625
2.384765625
2.04638671875
1.7652099609374998
1.6129394531249999
1.44052734375
1.2221923828124999
1.1239013671875
1.0562255859375
1.026416015625
0.9224853515625
0.8604492187499999
0.7798828124999999
0.8499755859375
0.87978515625
0.191748046875
0.0394775390625
0.0394775390625
0.0394775390625
0.04189453125
0.038671874999999994
0.48178710937499997
0.920068359375
1.3494873046875
1.5275390624999998
1.6701416015625
1.835302734375
1.8739746093749998
1.9601806640625
2.0649169921875
2.1277587890625
2.0471923828125
2.0633056640625
2.1140624999999997
2.0471923828125
2.0625
2.6836669921875
2.8979736328124996
3.0462158203125
3.0462158203125
3.0462158203125
3.0462158203125
2.8077392578125
2.4814453125
2.1970458984375
1.883642578125
1.6105224609375
1.4381103515625
1.3092041015625
1.1867431640625
1.10859375
1.0376953125
1.0143310546875
0.9893554687499999
1.0046630859374999
1.0449462890624999
1.0119140625
0.298095703125
0.10554199218749999
0.040283203125
0.040283203125
0.041088867187499996
0.040283203125
0.36496582031249997
0.8314453125
1.0707275390625
1.3019531249999998
1.5138427734375
1.5927978515624999
1.690283203125
1.79501953125
1.85625
1.915869140625
1.980322265625
2.05283203125
1.9924072265625
1.9537353515625
1.920703125
2.357373046875
2.642578125
3.0252685546875
3.04541015625
3.0470214843749996
3.0462158203125
2.9583984374999996
2.6256591796874997
2.2115478515625
1.89169921875
1.635498046875
1.442138671875
1.3027587890624999
1.190771484375
1.11826171875
1.095703125
1.044140625
0.9603515625
0.8918701171875
0.7919677734374999
0.7919677734374999
0.3552978515625
0.04189453125
0.041088867187499996
0.0394775390625
0.037060546874999996
0.042700195312499994
0.1039306640625
0.7025390625
1.1416259765624999
1.3672119140624999
1.542041015625
1.670947265625
1.754736328125
1.835302734375
1.9110351562499999
2.054443359375
2.0665283203125
2.028662109375
2.0423583984375
1.9907958984374998
2.0214111328124997
2.3759033203124997
2.827880859375
2.9197265624999997
3.0470214843749996
3.0486328124999997
3.0429931640624996
3.043798828125
2.6232421875
2.2365234375
1.9658203125
1.6878662109375
1.4759765624999999
1.3148437499999999
1.19560546875
1.074755859375
0.9563232421875
0.9385986328125
0.8910644531249999
0.8451416015625
0.7677978515624999
0.8080810546874999
0.2972900390625
0.041088867187499996
0.042700195312499994
0.040283203125
0.04189453125
0.040283203125
0.07009277343749999
0.594580078125
1.0167480468749999
1.2455566406249998
1.5186767578125
1.6371093749999999
1.72734375
1.832080078125
1.899755859375
1.9916015624999999
2.0085205078125
2.0520263671875
2.0713623046875
2.0657226562499997
2.131787109375
2.1068115234375
2.711865234375
2.9906249999999996
3.0494384765625
3.0462158203125
3.0478271484375
3.0470214843749996
2.81015625
2.43955078125
2.070556640625
1.8586669921874999
1.574267578125
1.340625
1.1408203125
1.071533203125
1.013525390625
0.9724365234375
0.9152343749999999
0.936181640625
0.9224853515625
0.9716308593749999
0.9168457031249999
0.038671874999999994
0.040283203125
0.041088867187499996
0.040283203125
0.040283203125
0.0523681640625
0.4842041015625
1.01513671875
1.2697265624999998
1.4477783203124999
1.5750732421875
1.719287109375
1.8183837890624999
1.915869140625
1.9940185546875
2.0391357421875
2.03994140625
2.0359130859375
2.0729736328125
2.0302734375
2.0794189453125
2.6498291015624997
2.8311035156249997
2.9189208984375
3.04541015625
3.0526611328124997
3.04541015625
2.8536621093749996
2.3525390625
2.083447265625
1.828857421875
1.4880615234374999
1.327734375
1.173046875
1.036083984375
0.9861328125
0.9466552734375
0.88623046875
0.8725341796874999
0.8838134765625
0.87333984375
0.8177490234375
0.1119873046875
0.041088867187499996
0.0378662109375
0.040283203125
0.040283203125
0.0394775390625
0.39638671875
0.8612548828125
1.148876953125
1.4655029296875
1.5670166015625
1.6532226562499999
1.6822265625
1.8135498046874998
1.899755859375
1.896533203125
1.9698486328125
2.0254394531249997
1.9996582031249999
2.0923095703125
2.018994140625
2.441162109375
2.848828125
3.0470214843749996
3.050244140625
3.04541015625
3.04541015625
2.86494140625
2.5821533203125
2.09150390625
1.8296630859374998
1.6612792968749999
1.5106201171875
1.2705322265624999
1.1666015625
1.0376953125
1.007080078125
0.9579345703125
0.9611572265624999
0.9643798828125
0.9595458984374999
0.9555175781249999
0.45358886718749997
0.042700195312499994
0.037060546874999996
0.043505859375
0.0378662109375
0.040283203125
0.07412109374999999
0.7049560546875
1.1722412109375
1.416357421875
1.5347900390625
1.7152587890625
1.7740722656249999
1.82724609375
1.9327880859375
1.9110351562499999
1.9956298828124999
1.9835449218749999
1.9811279296875
2.0036865234375
2.023828125
2.37509765625
2.7239501953125
2.924560546875
3.0470214843749996
3.043798828125
3.0470214843749996
2.9970703125
2.6208251953125
2.2187988281249997
1.9698486328125
1.7821289062499999
1.60166015625
1.4542236328125
1.255224609375
1.1666015625
0.9692138671874999
1.1222900390625
1.0465576171875
1.036083984375
0.9998291015624999
0.9643798828125
0.43747558593749997
0.040283203125
0.038671874999999994
0.037060546874999996
0.0378662109375
0.043505859375
0.08942871093749999
0.5526855468749999
0.9095947265625
1.22138671875
1.4147460937499998
1.5678222656249998
1.667724609375
1.8393310546875
1.9400390625
1.9537353515625
1.964208984375
1.989990234375
2.0455810546874997
2.0842529296875
2.0568603515625
2.02060546875
2.68125
2.9036132812499997
3.0462158203125
3.0470214843749996
3.0446044921874997
2.9882080078124997
2.6981689453124997
2.3887939453125
1.98193359375
1.7732666015624998
1.6169677734374999
1.3962158203125
1.3083984375
1.2286376953125
1.11181640625
1.0828125
1.0465576171875
1.1029541015625
1.069921875
1.039306640625
1.02158203125
0.22880859374999998
0.06606445312499999
0.042700195312499994
0.043505859375
0.038671874999999994
0.043505859375
0.443115234375
0.9990234375
1.2221923828124999
1.4679199218749999
1.5662109375
1.6943115234375
1.7450683593749998
1.7942138671874999
1.8884765625
1.9859619140625
1.9948242187499998
2.1076171875
2.1615966796875
2.1906005859374997
2.2324951171875
2.8423828125
2.985791015625
3.0470214843749996
3.04541015625
3.0421875
2.9922363281249997
2.6852783203125
2.3855712890625
2.157568359375
1.9102294921874998
1.716064453125
1.477587890625
1.348681640625
1.22783203125
1.171435546875
1.0642822265625
1.0086914062499999
0.978076171875
1.0127197265624999
0.9708251953125
0.91201171875
0.1998046875
0.0475341796875
0.040283203125
0.040283203125
0.042700195312499994
0.043505859375
0.38671875
0.849169921875
1.14404296875
1.4195800781249999
1.5919921874999998
1.7692382812499998
1.8344970703124999
1.9029785156249999
1.9650146484375
1.9505126953124998
2.047998046875
2.08505859375
2.0955322265625
2.0842529296875
2.0947265625
2.4870849609374996
2.85205078125
2.9914306640625
3.0421875
3.0462158203125
3.0405761718749997
2.795654296875
2.4371337890625
1.973876953125
1.76279296875
1.5218994140625
1.3422363281249998
1.2366943359375
1.2028564453125
1.1512939453125
1.0127197265624999
0.9990234375
0.992578125
0.8983154296875
0.8934814453125
0.8765624999999999
0.130517578125
0.04189453125
0.0394775390625
0.0394775390625
0.041088867187499996
0.042700195312499994
0.14501953125
0.7677978515624999
1.1464599609375
1.3817138671875
1.5541259765625
1.7329833984374998
1.8377197265624998
1.931982421875
2.0890869140625
2.07861328125
2.1785156249999997
2.1728759765625
2.1197021484375
2.2171875
2.2671386718749997
2.6063232421875
2.9543701171874996
3.0446044921874997
3.0478271484375
3.0462158203125
3.04541015625
3.0228515624999996
2.6369384765625
2.3823486328125
2.2776123046875
2.115673828125
2.0085205078125
1.928759765625
1.8232177734375
1.844970703125
1.80791015625
1.8506103515624999
1.9674316406249999
2.0584716796875
2.0906982421875
2.165625
1.8441650390625
1.53720703125
1.4252197265625
1.46953125
1.5243164062499999
1.5726562499999999
1.8344970703124999
2.5789306640625
2.9092529296875
3.04541015625
3.050244140625
3.0462158203125
3.050244140625
3.0486328124999997
3.04541015625
3.04541015625
3.0470214843749996
3.04541015625
3.0462158203125
3.0470214843749996
3.0494384765625
3.04541015625
3.0478271484375
3.0429931640624996
3.0462158203125
3.0486328124999997
3.0462158203125
3.0486328124999997
3.0470214843749996
3.0462158203125
3.0478271484375
3.0470214843749996
3.0446044921874997
3.0462158203125
3.0357421875
3.04541015625
3.0446044921874997
3.0470214843749996
3.04541015625
3.050244140625
3.0470214843749996
3.04541015625
3.043798828125
2.8609130859375
2.9060302734374996
2.88427734375
2.8149902343749997
2.7674560546875
2.85205078125
3.0462158203125
3.0486328124999997
3.0470214843749996
3.037353515625
2.8552734374999997
2.7086425781249996
2.5853759765624997
2.3726806640625
2.1809326171875
2.1889892578125
2.0898925781249997
2.05283203125
1.9384277343749998
1.71123046875
1.3712402343749999
1.65966796875
1.3631835937499999
0.9974121093749999
0.7379882812499999
0.37060546875
0.041088867187499996
0.041088867187499996
0.040283203125
0.041088867187499996
0.040283203125
0.040283203125
0.040283203125
0.040283203125
0.038671874999999994
0.037060546874999996
0.040283203125
0.04189453125
0.041088867187499996
0.0378662109375
0.0443115234375
0.056396484375
0.0394775390625
0.04189453125
0.045117187499999996
0.14018554687499998
0.1998046875
0.40202636718749996
0.8177490234375
1.1367919921875
1.2423339843749999
1.100537109375
1.00224609375
0.8016357421875
0.6759521484375
0.5841064453125
0.5607421874999999
0.65419921875
0.7371826171875
0.8685058593749999
0.88623046875
1.074755859375
1.17626953125
1.5106201171875
1.477587890625
1.4469726562499998
1.3591552734374999
1.2342773437499999
1.1239013671875
0.878173828125
0.7637695312499999
0.7017333984374999
0.8024414062499999
0.94423828125
1.0352783203125
1.07958984375
1.1851318359375
1.268115234375
1.2342773437499999
1.268115234375
1.2826171874999999
1.31162109375
1.30517578125
1.2955078125
0.7984130859374999
0.889453125
1.1061767578125
1.3019531249999998
1.3494873046875
1.4389160156249998
1.5364013671874999
1.9456787109375
1.8046875
1.6830322265625
1.4558349609374999
1.2906738281249999
1.2495849609374998
1.2890625
1.3736572265625
1.4042724609375
1.4638916015624999
1.464697265625
1.432470703125
1.377685546875
1.4389160156249998
1.780517578125
1.7716552734375
1.6814208984374999
1.5887695312499999
1.55009765625
1.40830078125
1.222998046875
1.126318359375
1.1778808593749999
1.24072265625
1.34384765625
1.4316650390624999
1.493701171875
1.4711425781249998
1.5073974609374998
1.5090087890625
1.5557373046874998
1.5879638671874998
1.5073974609374998
1.533984375
1.493701171875
1.15048828125
1.07958984375
1.3156494140625
1.4348876953124998
1.52109375
1.6048828124999999
1.7096191406249999
2.0359130859375
1.9231201171874999
1.7603759765625
1.622607421875
1.538818359375
1.5734619140625
1.5146484375
1.5750732421875
1.4945068359375
1.4679199218749999
1.5138427734375
1.5492919921875
1.522705078125
1.5573486328125
1.662890625
1.8820312499999998
1.754736328125
1.6540283203125
1.593603515625
1.47275390625
1.3801025390625
1.2383056640624999
1.21494140625
1.3027587890624999
1.4042724609375
1.51787109375
1.5323730468749999
1.5645996093749999
1.611328125
1.53076171875
1.5122314453124999
1.5960205078124998
1.60166015625
1.5605712890624999
1.538818359375
1.22783203125
1.2020507812499999
1.364794921875
1.47275390625
1.50498046875
1.5863525390625
1.699951171875
1.9779052734375
1.9182861328124998
1.7821289062499999
1.6435546875
1.5202880859374999
1.4791992187499998
1.53720703125
1.554931640625
1.5525146484374999
1.5758789062499998
1.61455078125
1.5807128906249999
1.4993408203124998
1.5331787109375
1.5654052734375
1.8651123046875
1.7080078125
1.635498046875
1.58232421875
1.5162597656249999
1.46953125
1.361572265625
1.2415283203124998
1.2947021484374999
1.3599609375
1.490478515625
1.49853515625
1.5114257812499998
1.546875
1.538818359375
1.542041015625
1.538818359375
1.5492919921875
1.5186767578125
1.5734619140625
1.5243164062499999
1.2342773437499999
1.3631835937499999
1.4550292968749998
1.5364013671874999
1.590380859375
1.67578125
1.8868652343749999
1.931982421875
1.77568359375
1.6475830078125
1.53076171875
1.4872558593749998
1.5106201171875
1.577490234375
1.546875
1.561376953125
1.52109375
1.554931640625
1.5815185546875
1.6395263671875
1.6201904296874998
1.9078125
1.7603759765625
1.65
1.545263671875
1.4791992187499998
1.4655029296875
1.33740234375
1.27939453125
1.3067871093749999
1.416357421875
1.4316650390624999
1.482421875
1.513037109375
1.587158203125
1.5444580078124999
1.5637939453124998
1.5895751953125
1.587158203125
1.5589599609375
1.5927978515624999
1.6330810546874999
1.2576416015624998
1.3639892578125
1.4066894531249998
1.490478515625
1.5726562499999999
1.6048828124999999
1.8046875
1.85947265625
1.7861572265624999
1.6886718749999998
1.611328125
1.5686279296874999
1.5509033203125
1.5509033203125
1.56298828125
1.5476806640624998
1.5138427734375
1.5839355468749998
1.545263671875
1.5355957031249998
1.5428466796875
1.80791015625
1.7088134765624998
1.5839355468749998
1.6040771484374998
1.55009765625
1.5218994140625
1.377685546875
1.2818115234374998
1.297119140625
1.380908203125
1.4993408203124998
1.5331787109375
1.5863525390625
1.5283447265624999
1.5404296874999999
1.52109375
1.5299560546875
1.5267333984375
1.62744140625
1.60166015625
1.5662109375
1.200439453125
1.33740234375
1.4469726562499998
1.5275390624999998
1.546875
1.6024658203125
1.85302734375
1.8981445312499998
1.7845458984375
1.6298583984375
1.5791015625
1.5460693359375
1.5726562499999999
1.5436523437499998
1.6121337890624998
1.5702392578125
1.5670166015625
1.5275390624999998
1.5509033203125
1.5154541015624998
1.496923828125
1.780517578125
1.7990478515625
1.6185791015625
1.6298583984375
1.587158203125
1.5057861328125
1.35673828125
1.2890625
1.2697265624999998
1.4066894531249998
1.4703369140625
1.5492919921875
1.5073974609374998
1.5235107421874998
1.5267333984375
1.5428466796875
1.5637939453124998
1.6137451171875
1.5678222656249998
1.561376953125
1.5106201171875
1.2383056640624999
1.3156494140625
1.4437499999999999
1.5082031249999999
1.577490234375
1.5726562499999999
1.7072021484375
1.8989501953124999
1.7692382812499998
1.6161621093749998
1.60166015625
1.5347900390625
1.5218994140625
1.5235107421874998
1.5782958984375
1.5686279296874999
1.5992431640625
1.5847412109374999
1.593603515625
1.529150390625
1.525927734375
1.7982421874999999
1.7853515624999998
1.7184814453125
1.6395263671875
1.561376953125
1.506591796875
1.393798828125
1.3269287109374999
1.3317626953125
1.393798828125
1.4719482421874999
1.4872558593749998
1.5170654296875
1.4920898437499999
1.5492919921875
1.5492919921875
1.5807128906249999
1.5323730468749999
1.5428466796875
1.52109375
1.5194824218749998
1.3180664062499998
1.2995361328125
1.49853515625
1.5355957031249998
1.554931640625
1.5944091796875
1.6886718749999998
1.915869140625
1.84013671875
1.67578125
1.6177734375
1.545263671875
1.509814453125
1.52109375
1.5911865234375
1.6040771484374998
1.6129394531249999
1.603271484375
1.609716796875
1.525927734375
1.5525146484374999
1.5517089843749998
1.7974365234374998
1.674169921875
1.6435546875
1.51787109375
1.4832275390624998
1.4469726562499998
1.3744628906249998
1.340625
1.4034667968749999
1.47275390625
1.522705078125
1.4977294921875
1.5533203125
1.5404296874999999
1.513037109375
1.5235107421874998
1.56298828125
1.5283447265624999
1.5645996093749999
1.6137451171875
1.3607666015625
1.3011474609375
1.3946044921874998
1.4671142578124998
1.480810546875
1.5782958984375
1.65
1.9070068359374999
1.8498046874999998
1.7120361328125
1.625830078125
1.6024658203125
1.571044921875
1.5162597656249999
1.529150390625
1.5017578125
1.5114257812499998
1.5412353515625
1.5758789062499998
1.6185791015625
1.6282470703124998
1.5275390624999998
1.8151611328125
1.619384765625
1.5758789062499998
1.6242187499999998
1.5670166015625
1.4783935546875
1.3768798828125
1.3229003906249999
1.3865478515624998
1.4550292968749998
1.4872558593749998
1.5041748046874999
1.5323730468749999
1.5976318359375
1.5807128906249999
1.5557373046874998
1.5839355468749998
1.5605712890624999
1.5444580078124999
1.5484863281249999
1.5839355468749998
1.2753662109375
1.4364990234375
1.4800048828124999
1.4767822265625
1.6105224609375
1.6379150390625
1.77890625
1.8570556640625
1.7136474609374999
1.6395263671875
1.5879638671874998
1.5637939453124998
1.554931640625
1.5251220703125
1.5863525390625
1.5758789062499998
1.5509033203125
1.5597656249999998
1.5726562499999999
1.5283447265624999
1.6056884765625
1.87236328125
1.751513671875
1.6250244140624999
1.558154296875
1.533984375
1.456640625
1.3704345703124998
1.353515625
1.3599609375
1.3801025390625
1.51787109375
1.5347900390625
1.49853515625
1.5734619140625
1.5267333984375
1.5355957031249998
1.5718505859374998
1.5380126953125
1.587158203125
1.587158203125
1.522705078125
1.2463623046874999
1.3599609375
1.458251953125
1.482421875
1.5839355468749998
1.590380859375
1.7942138671874999
1.9062011718749998
1.8006591796875
1.71123046875
1.5911865234375
1.5484863281249999
1.5412353515625
1.506591796875
1.538818359375
1.5396240234374998
1.5815185546875
1.6346923828125
1.5919921874999998
1.5057861328125
1.5557373046874998
1.72412109375
1.7233154296875
1.641943359375
1.5750732421875
1.5428466796875
1.474365234375
1.3897705078125
1.3341796874999998
1.34384765625
1.4042724609375
1.4848388671875
1.480810546875
1.4953124999999998
1.5444580078124999
1.5686279296874999
1.6250244140624999
1.6056884765625
1.5436523437499998
1.5525146484374999
1.5347900390625
1.5251220703125
1.2383056640624999
1.3631835937499999
1.45341796875
1.5106201171875
1.5968261718749999
1.6081054687499998
1.7724609375
1.8812255859375
1.7652099609374998
1.6773925781249999
1.6218017578125
1.5444580078124999
1.5645996093749999
1.5887695312499999
1.5565429687499999
1.5323730468749999
1.5565429687499999
1.509814453125
1.5170654296875
1.5662109375
1.5533203125
1.7909912109375
1.7748779296875
1.6604736328124998
1.6645019531249998
1.5589599609375
1.4920898437499999
1.4638916015624999
1.3857421875
1.3583496093749998
1.4155517578124999
1.4622802734375
1.4526123046875
1.4928955078125
1.5404296874999999
1.525927734375
1.5323730468749999
1.5645996093749999
1.5605712890624999
1.5645996093749999
1.5315673828124998
1.5476806640624998
1.2850341796875
1.3704345703124998
1.4703369140625
1.5283447265624999
1.574267578125
1.5887695312499999
1.6250244140624999
1.8361083984375
1.78857421875
1.6951171875
1.6161621093749998
1.577490234375
1.5887695312499999
1.5863525390625
1.5444580078124999
1.5315673828124998
1.5275390624999998
1.5428466796875
1.5202880859374999
1.5573486328125
1.5863525390625
1.77890625
1.815966796875
1.651611328125
1.5960205078124998
1.5654052734375
1.546875
1.4655029296875
1.3672119140624999
1.3365966796875
1.4107177734374998
1.4284423828125
1.4751708984374998
1.4816162109375
1.5460693359375
1.561376953125
1.593603515625
1.5734619140625
1.5782958984375
1.5637939453124998
1.5194824218749998
1.5484863281249999
1.2906738281249999
1.3204833984375
1.4590576171874998
1.5364013671874999
1.55009765625
1.5839355468749998
1.63388671875
1.8385253906249999
1.8022705078124999
1.6846435546874998
1.6403320312499998
1.5863525390625
1.5605712890624999
1.542041015625
1.5315673828124998
1.5573486328125
1.5476806640624998
1.56298828125
1.545263671875
1.5396240234374998
1.5082031249999999
1.5396240234374998
1.7716552734375
1.7184814453125
1.6443603515624998
1.6451660156249999
1.6000488281249998
1.48564453125
1.3559326171875
1.3833251953124999
1.3873535156249999
1.46953125
1.493701171875
1.47275390625
1.571044921875
1.5976318359375
1.5565429687499999
1.53076171875
1.53720703125
1.55009765625
1.5323730468749999
1.5396240234374998
1.3382080078124998
1.2834228515625
1.3921875
1.5017578125
1.56298828125
1.5589599609375
1.65
1.8578613281249998
1.7990478515625
1.674169921875
1.6322753906249998
1.5927978515624999
1.5404296874999999
1.5331787109375
1.5573486328125
1.5025634765625
1.5597656249999998
1.5589599609375
1.5879638671874998
1.5654052734375
1.5766845703124999
1.5509033203125
1.7772949218749998
1.687060546875
1.6048828124999999
1.6040771484374998
1.5645996093749999
1.4888671875
1.384130859375
1.3398193359375
1.4066894531249998
1.4219970703125
1.4510009765624998
1.5154541015624998
1.5565429687499999
1.585546875
1.56298828125
1.5645996093749999
1.5533203125
1.5831298828125
1.509814453125
1.5025634765625
1.5726562499999999
1.2858398437499998
1.4397216796874999
1.4510009765624998
1.5412353515625
1.5984375
1.6564453124999998
1.783740234375
1.82724609375
1.71123046875
1.6048828124999999
1.5895751953125
1.5267333984375
1.545263671875
1.5565429687499999
1.5396240234374998
1.5460693359375
1.5162597656249999
1.5662109375
1.5734619140625
1.5476806640624998
1.5686279296874999
1.8425537109374999
1.7047851562499998
1.6153564453125
1.590380859375
1.5347900390625
1.5404296874999999
1.4026611328124998
1.4010498046875
1.3865478515624998
1.4115234374999999
1.4671142578124998
1.5283447265624999
1.5138427734375
1.5573486328125
1.5355957031249998
1.5323730468749999
1.5017578125
1.493701171875
1.5218994140625
1.5533203125
1.571044921875
1.2568359375
1.4203857421875
1.5275390624999998
1.5404296874999999
1.6185791015625
1.635498046875
1.7208984374999998
1.85302734375
1.73056640625
1.5960205078124998
1.522705078125
1.558154296875
1.5654052734375
1.5444580078124999
1.58232421875
1.6000488281249998
1.6008544921874999
1.5911865234375
1.5331787109375
1.5484863281249999
1.538818359375
1.72734375
1.7772949218749998
1.6846435546874998
1.6081054687499998
1.561376953125
1.4630859374999998
1.4373046875
1.397021484375
1.3768798828125
1.4477783203124999
1.445361328125
1.4880615234374999
1.5033691406249998
1.4888671875
1.5766845703124999
1.558154296875
1.5984375
1.53076171875
1.59521484375
1.5605712890624999
1.6008544921874999
1.2528076171875
1.3478759765625
1.4437499999999999
1.5138427734375
1.5597656249999998
1.5992431640625
1.6645019531249998
1.8264404296874999
1.6894775390624999
1.6733642578124999
1.619384765625
1.53720703125
1.53076171875
1.5839355468749998
1.5791015625
1.56298828125
1.5509033203125
1.5766845703124999
1.5541259765625
1.55009765625
1.5355957031249998
1.7072021484375
1.803076171875
1.6322753906249998
1.606494140625
1.5243164062499999
1.5146484375
1.4687255859375
1.3873535156249999
1.368017578125
1.3978271484375
1.4872558593749998
1.5114257812499998
1.5589599609375
1.5766845703124999
1.5331787109375
1.522705078125
1.571044921875
1.558154296875
1.5484863281249999
1.5347900390625
1.5492919921875
1.329345703125
1.3736572265625
1.4461669921875
1.50498046875
1.5484863281249999
1.5919921874999998
1.6121337890624998
1.7990478515625
1.7345947265625
1.6773925781249999
1.6153564453125
1.5654052734375
1.554931640625
1.5702392578125
1.5944091796875
1.5509033203125
1.5815185546875
1.603271484375
1.545263671875
1.5541259765625
1.5347900390625
1.7128417968749998
1.7523193359375
1.6330810546874999
1.5645996093749999
1.5911865234375
1.558154296875
1.513037109375
1.37607421875
1.3446533203125
1.4187744140624998
1.413134765625
1.48564453125
1.5082031249999999
1.5194824218749998
1.55009765625
1.5565429687499999
1.561376953125
1.546875
1.545263671875
1.5484863281249999
1.5444580078124999
1.3583496093749998
1.300341796875
1.4397216796874999
1.5194824218749998
1.5444580078124999
1.6081054687499998
1.6371093749999999
1.8046875
1.764404296875
1.719287109375
1.6371093749999999
1.5799072265624998
1.6008544921874999
1.5001464843749999
1.493701171875
1.5243164062499999
1.6282470703124998
1.6209960937499999
1.5976318359375
1.5404296874999999
1.5082031249999999
1.545263671875
1.8296630859374998
1.6314697265625
1.6177734375
1.606494140625
1.5170654296875
1.4445556640625
1.3736572265625
1.4155517578124999
1.442138671875
1.4872558593749998
1.5380126953125
1.5323730468749999
1.506591796875
1.5170654296875
1.603271484375
1.5533203125
1.571044921875
1.574267578125
1.5106201171875
1.5009521484375
1.5202880859374999
1.2769775390625
1.4389160156249998
1.5299560546875
1.5082031249999999
1.5984375
1.611328125
1.8183837890624999
1.79501953125
1.72734375
1.635498046875
1.5436523437499998
1.5992431640625
1.5944091796875
1.5678222656249998
1.5557373046874998
1.5404296874999999
1.5283447265624999
1.5637939453124998
1.542041015625
1.5194824218749998
1.5436523437499998
1.7974365234374998
1.7200927734375
1.63388671875
1.5887695312499999
1.5557373046874998
1.5331787109375
1.4091064453125
1.348681640625
1.3849365234375
1.4598632812499999
1.4711425781249998
1.5041748046874999
1.5073974609374998
1.5895751953125
1.6008544921874999
1.5476806640624998
1.542041015625
1.5662109375
1.53720703125
1.5146484375
1.52109375
1.2125244140625
1.43408203125
1.4542236328125
1.546875
1.6435546875
1.6991455078125
1.7660156249999999
1.8626953124999999
1.6991455078125
1.67900390625
1.5960205078124998
1.5106201171875
1.5001464843749999
1.5597656249999998
1.5831298828125
1.558154296875
1.5331787109375
1.5662109375
1.5283447265624999
1.5347900390625
1.603271484375
1.8224121093749999
1.6765869140624998
1.5766845703124999
1.5476806640624998
1.542041015625
1.5428466796875
1.4477783203124999
1.3784912109374998
1.3978271484375
1.4348876953124998
1.4437499999999999
1.5275390624999998
1.5073974609374998
1.5492919921875
1.5436523437499998
1.56298828125
1.5678222656249998
1.545263671875
1.5283447265624999
1.5807128906249999
1.61455078125
1.3712402343749999
1.4308593749999998
1.40185546875
1.4364990234375
1.522705078125
1.5412353515625
1.6379150390625
1.7829345703125
1.7829345703125
1.6701416015625
1.6830322265625
1.6532226562499999
1.6564453124999998
1.6306640625
1.5887695312499999
1.50498046875
1.4735595703125
1.5218994140625
1.5243164062499999
1.52109375
1.5654052734375
1.7474853515625
1.7378173828124999
1.71123046875
1.6846435546874998
1.5831298828125
1.4848388671875
1.46630859375
1.3639892578125
1.3801025390625
1.400244140625
1.4832275390624998
1.5138427734375
1.5138427734375
1.4896728515625
1.5275390624999998
1.5114257812499998
1.5565429687499999
1.5492919921875
1.587158203125
1.5702392578125
1.5565429687499999
1.27294921875
1.3502929687499998
1.4864501953125
1.513037109375
1.5637939453124998
1.593603515625
1.6612792968749999
1.8240234375
1.719287109375
1.6564453124999998
1.5484863281249999
1.5509033203125
1.558154296875
1.5428466796875
1.51787109375
1.558154296875
1.58232421875
1.5992431640625
1.5791015625
1.5017578125
1.593603515625
1.7458740234374999
1.7772949218749998
1.658056640625
1.6218017578125
1.545263671875
1.4945068359375
1.4848388671875
1.3817138671875
1.3744628906249998
1.3639892578125
1.464697265625
1.5347900390625
1.5782958984375
1.5726562499999999
1.5766845703124999
1.545263671875
1.522705078125
1.5202880859374999
1.5170654296875
1.5476806640624998
1.53076171875
1.351904296875
1.3059814453124998
1.4719482421874999
1.4872558593749998
1.542041015625
1.5662109375
1.6298583984375
1.815966796875
1.7901855468749999
1.6822265625
1.622607421875
1.5637939453124998
1.5791015625
1.5662109375
1.5557373046874998
1.5807128906249999
1.5645996093749999
1.5412353515625
1.5637939453124998
1.5847412109374999
1.5911865234375
1.5565429687499999
1.7595703125
1.6209960937499999
1.5815185546875
1.5919921874999998
1.5484863281249999
1.48564453125
1.3704345703124998
1.3946044921874998
1.4276367187499999
1.4800048828124999
1.5057861328125
1.5251220703125
1.5347900390625
1.625830078125
1.6218017578125
1.5541259765625
1.5364013671874999
1.47275390625
1.5001464843749999
1.5412353515625
1.3817138671875
1.2785888671874999
1.42119140625
1.482421875
1.5573486328125
1.5597656249999998
1.6475830078125
1.8369140625
1.84013671875
1.7394287109375
1.5927978515624999
1.5041748046874999
1.5557373046874998
1.5750732421875
1.5839355468749998
1.5436523437499998
1.5662109375
1.5299560546875
1.546875
1.5364013671874999
1.5766845703124999
1.5879638671874998
1.8216064453124998
1.658056640625
1.63388671875
1.577490234375
1.5275390624999998
1.4783935546875
1.3688232421875
1.3712402343749999
1.3897705078125
1.4542236328125
1.490478515625
1.5444580078124999
1.5025634765625
1.533984375
1.6105224609375
1.561376953125
1.5347900390625
1.5436523437499998
1.574267578125
1.5766845703124999
1.5919921874999998
1.3180664062499998
1.3905761718749998
1.4630859374999998
1.5122314453124999
1.571044921875
1.60166015625
1.6814208984374999
1.7821289062499999
1.7136474609374999
1.64677734375
1.6056884765625
1.574267578125
1.5927978515624999
1.5726562499999999
1.5887695312499999
1.55009765625
1.5267333984375
1.5766845703124999
1.5670166015625
1.561376953125
1.4977294921875
1.7499023437499999
1.6935058593749999
1.6185791015625
1.6121337890624998
1.5782958984375
1.5009521484375
1.4244140625
1.4026611328124998
1.3905761718749998
1.4219970703125
1.4880615234374999
1.5122314453124999
1.5170654296875
1.538818359375
1.5645996093749999
1.4759765624999999
1.542041015625
1.4977294921875
1.5323730468749999
1.5662109375
1.5323730468749999
1.2834228515625
1.4759765624999999
1.5476806640624998
1.5082031249999999
1.4622802734375
1.6008544921874999
1.7345947265625
1.8393310546875
1.71123046875
1.6306640625
1.619384765625
1.542041015625
1.5428466796875
1.5662109375
1.5597656249999998
1.545263671875
1.5355957031249998
1.5509033203125
1.5678222656249998
1.5589599609375
1.56298828125
1.7861572265624999
1.7345947265625
1.65966796875
1.6451660156249999
1.5984375
1.5412353515625
1.4751708984374998
1.432470703125
1.3551269531249999
1.3422363281249998
1.480810546875
1.5057861328125
1.4945068359375
1.5009521484375
1.5919921874999998
1.5597656249999998
1.525927734375
1.546875
1.5557373046874998
1.593603515625
1.5670166015625
1.2963134765625
1.3365966796875
1.4493896484375
1.4832275390624998
1.53720703125
1.6475830078125
1.7176757812499999
1.8216064453124998
1.751513671875
1.6717529296875
1.6209960937499999
1.6056884765625
