1.6072998046875
1.5517089843749998
1.5355957031249998
1.546875
1.5509033203125
1.5404296874999999
1.8522216796875
1.9521240234375
1.6564453124999998
1.5758789062499998
1.52109375
1.46953125
1.3100097656249998
1.2858398437499998
1.2479736328125
1.3583496093749998
1.4622802734375
1.5114257812499998
1.5484863281249999
1.5565429687499999
1.5815185546875
1.5750732421875
1.5927978515624999
1.5565429687499999
1.5267333984375
1.513037109375
1.5315673828124998
1.2310546875
1.17626953125
1.5251220703125
1.5525146484374999
1.5734619140625
1.6556396484375
1.6693359374999999
2.064111328125
1.8441650390625
1.6524169921874998
1.5992431640625
1.5654052734375
1.5525146484374999
1.5404296874999999
1.5533203125
1.5766845703124999
1.5396240234374998
1.5444580078124999
1.5541259765625
1.5654052734375
1.5517089843749998
1.5460693359375
1.8981445312499998
1.65966796875
1.609716796875
1.5331787109375
1.4896728515625
1.458251953125
1.300341796875
1.300341796875
1.3905761718749998
1.464697265625
1.506591796875
1.5154541015624998
1.5323730468749999
1.5565429687499999
1.558154296875
1.5509033203125
1.5444580078124999
1.574267578125
1.5565429687499999
1.558154296875
1.3156494140625
1.1980224609374999
1.46953125
1.509814453125
1.574267578125
1.6040771484374998
1.6209960937499999
2.0504150390625
1.8256347656249998
1.6540283203125
1.60166015625
1.574267578125
1.529150390625
1.545263671875
1.5428466796875
1.561376953125
1.5541259765625
1.5573486328125
1.5509033203125
1.5460693359375
1.558154296875
1.545263671875
1.9617919921875
1.66611328125
1.5968261718749999
1.5807128906249999
1.52109375
1.4558349609374999
1.3704345703124998
1.3229003906249999
1.393798828125
1.45341796875
1.48564453125
1.509814453125
1.542041015625
1.5525146484374999
1.5782958984375
1.5533203125
1.554931640625
1.545263671875
1.5597656249999998
1.5573486328125
1.5662109375
1.219775390625
1.4719482421874999
1.5218994140625
1.5001464843749999
1.5911865234375
1.60166015625
1.8884765625
1.803076171875
1.6685302734374998
1.6105224609375
1.5815185546875
1.5831298828125
1.5807128906249999
1.5750732421875
1.53720703125
1.5476806640624998
1.5589599609375
1.5299560546875
1.554931640625
1.5492919921875
1.5428466796875
1.9070068359374999
1.72734375
1.6137451171875
1.587158203125
1.5476806640624998
1.480810546875
1.297119140625
1.3390136718749999
1.3664062499999998
1.46953125
1.506591796875
1.5283447265624999
1.5315673828124998
1.5251220703125
1.5460693359375
1.5541259765625
1.5831298828125
1.574267578125
1.5484863281249999
1.5404296874999999
1.55009765625
1.17626953125
1.3954101562499999
1.4880615234374999
1.522705078125
1.5960205078124998
1.625830078125
1.7861572265624999
1.85947265625
1.6564453124999998
1.5766845703124999
1.6153564453125
1.63388671875
1.611328125
1.5654052734375
1.5533203125
1.546875
1.5533203125
1.5702392578125
1.4928955078125
1.533984375
1.5645996093749999
1.764404296875
1.6959228515625
1.6040771484374998
1.5758789062499998
1.53076171875
1.5017578125
1.4195800781249999
1.3752685546874999
1.416357421875
1.4679199218749999
1.5202880859374999
1.5799072265624998
1.5202880859374999
1.5364013671874999
1.5025634765625
1.5041748046874999
1.5267333984375
1.5637939453124998
1.5605712890624999
1.5444580078124999
1.5605712890624999
1.1851318359375
1.393798828125
1.5283447265624999
1.5509033203125
1.577490234375
1.590380859375
1.7660156249999999
1.8699462890624998
1.7055908203124999
1.609716796875
1.5541259765625
1.5782958984375
1.5766845703124999
1.5589599609375
1.58232421875
1.5895751953125
1.5315673828124998
1.5670166015625
1.5605712890624999
1.5597656249999998
1.5541259765625
1.722509765625
1.7740722656249999
1.577490234375
1.5919921874999998
1.5662109375
1.4872558593749998
1.4630859374999998
1.3962158203125
1.3929931640625
1.4735595703125
1.5033691406249998
1.5082031249999999
1.5001464843749999
1.546875
1.5509033203125
1.5331787109375
1.5621826171875
1.5517089843749998
1.571044921875
1.5476806640624998
1.5218994140625
1.2979248046874998
1.3897705078125
1.55009765625
1.533984375
1.5645996093749999
1.6056884765625
1.6185791015625
1.85947265625
1.7047851562499998
1.6072998046875
1.5597656249999998
1.5654052734375
1.5799072265624998
1.5517089843749998
1.6250244140624999
1.6081054687499998
1.5662109375
1.55009765625
1.5396240234374998
1.5412353515625
1.5404296874999999
1.6765869140624998
1.770849609375
1.6459716796875
1.5927978515624999
1.5380126953125
1.5001464843749999
1.4501953125
1.3897705078125
1.3865478515624998
1.44052734375
1.529150390625
1.5299560546875
1.529150390625
1.5533203125
1.5476806640624998
1.5412353515625
1.5645996093749999
1.5702392578125
1.5645996093749999
1.5460693359375
1.5541259765625
1.38896484375
1.313232421875
1.4945068359375
1.5057861328125
1.5460693359375
1.5782958984375
1.6363037109374998
1.8369140625
1.764404296875
1.6371093749999999
1.5919921874999998
1.5734619140625
1.56298828125
1.5678222656249998
1.558154296875
1.5645996093749999
1.55009765625
1.5589599609375
1.5645996093749999
1.5573486328125
1.5355957031249998
1.533984375
1.7958251953125
1.6169677734374999
1.6024658203125
1.6056884765625
1.5565429687499999
1.5218994140625
1.3873535156249999
1.3631835937499999
1.4203857421875
1.4920898437499999
1.5218994140625
1.5235107421874998
1.5138427734375
1.509814453125
1.5396240234374998
1.5670166015625
1.5412353515625
1.5678222656249998
1.5573486328125
1.5380126953125
1.3994384765624999
1.3027587890624999
1.4945068359375
1.5146484375
1.558154296875
1.611328125
1.603271484375
1.8715576171875
1.7635986328125
1.6306640625
1.5686279296874999
1.5799072265624998
1.5637939453124998
1.5533203125
1.5541259765625
1.5460693359375
1.5492919921875
1.5557373046874998
1.5476806640624998
1.55009765625
1.56298828125
1.5364013671874999
1.835302734375
1.6830322265625
1.63388671875
1.6121337890624998
1.585546875
1.5154541015624998
1.413134765625
1.3768798828125
1.4155517578124999
1.474365234375
1.50498046875
1.51787109375
1.4977294921875
1.5565429687499999
1.525927734375
1.5533203125
1.5968261718749999
1.5484863281249999
1.545263671875
1.53720703125
1.52109375
1.2125244140625
1.482421875
1.5355957031249998
1.5355957031249998
1.5879638671874998
1.5976318359375
1.7394287109375
1.7813232421874998
1.6556396484375
1.6411376953124999
1.6081054687499998
1.5791015625
1.577490234375
1.5492919921875
1.5654052734375
1.593603515625
1.56298828125
1.545263671875
1.5686279296874999
1.5380126953125
1.5460693359375
1.8046875
1.706396484375
1.6105224609375
1.558154296875
1.5355957031249998
1.5299560546875
1.3857421875
1.3527099609375
1.4091064453125
1.432470703125
1.50498046875
1.5662109375
1.55009765625
1.545263671875
1.5315673828124998
1.5460693359375
1.5678222656249998
1.5476806640624998
1.561376953125
1.5396240234374998
1.5275390624999998
1.24072265625
1.400244140625
1.5073974609374998
1.509814453125
1.56943359375
1.6008544921874999
1.7595703125
1.8054931640624998
1.6765869140624998
1.6000488281249998
1.6137451171875
1.587158203125
1.58232421875
1.5565429687499999
1.5637939453124998
1.5444580078124999
1.577490234375
1.5702392578125
1.5597656249999998
1.5509033203125
1.5525146484374999
1.7337890624999999
1.6959228515625
1.609716796875
1.60166015625
1.558154296875
1.5146484375
1.4477783203124999
1.4155517578124999
1.4252197265625
1.426025390625
1.48564453125
1.5090087890625
1.5267333984375
1.5492919921875
1.5605712890624999
1.5315673828124998
1.51787109375
1.5114257812499998
1.5686279296874999
1.5597656249999998
1.5799072265624998
1.26005859375
1.3768798828125
1.5315673828124998
1.5380126953125
1.5911865234375
1.6056884765625
1.6322753906249998
1.835302734375
1.706396484375
1.611328125
1.6290527343749999
1.5605712890624999
1.5517089843749998
1.5541259765625
1.5654052734375
1.5565429687499999
1.5460693359375
1.5444580078124999
1.5557373046874998
1.5476806640624998
1.5791015625
1.7047851562499998
1.7426513671875
1.6266357421875
1.6008544921874999
1.5283447265624999
1.506591796875
1.429248046875
1.4244140625
1.3921875
1.4735595703125
1.4751708984374998
1.4928955078125
1.5218994140625
1.5331787109375
1.5484863281249999
1.5509033203125
1.5605712890624999
1.529150390625
1.5573486328125
1.5597656249999998
1.538818359375
1.37607421875
1.4034667968749999
1.4888671875
1.5057861328125
1.56298828125
1.5992431640625
1.6282470703124998
1.8578613281249998
1.7120361328125
1.625830078125
1.5654052734375
1.5484863281249999
1.5492919921875
1.5444580078124999
1.56943359375
1.5654052734375
1.5863525390625
1.5484863281249999
1.5517089843749998
1.5645996093749999
1.5541259765625
1.6717529296875
1.791796875
1.65966796875
1.6242187499999998
1.5525146484374999
1.4880615234374999
1.4630859374999998
1.3946044921874998
1.3607666015625
1.432470703125
1.5122314453124999
1.5283447265624999
1.5251220703125
1.5509033203125
1.538818359375
1.5492919921875
1.5323730468749999
1.5444580078124999
1.558154296875
1.5702392578125
1.5323730468749999
1.3994384765624999
1.3140380859374998
1.4711425781249998
1.5162597656249999
1.545263671875
1.60166015625
1.6459716796875
1.8183837890624999
1.7281494140625
1.6072998046875
1.56943359375
1.5726562499999999
1.5484863281249999
1.5476806640624998
1.5895751953125
1.5863525390625
1.5557373046874998
1.571044921875
1.58232421875
1.5218994140625
1.538818359375
1.5605712890624999
1.8062988281249999
1.6234130859375
1.60166015625
1.5863525390625
1.5033691406249998
1.5033691406249998
1.4187744140624998
1.3994384765624999
1.4389160156249998
1.4719482421874999
1.4912841796874998
1.51787109375
1.5887695312499999
1.5654052734375
1.5557373046874998
1.5428466796875
1.5404296874999999
1.5283447265624999
1.5476806640624998
1.5734619140625
1.5428466796875
1.31162109375
1.5162597656249999
1.51787109375
1.5331787109375
1.5799072265624998
1.5766845703124999
1.8046875
1.722509765625
1.6524169921874998
1.5887695312499999
1.5686279296874999
1.571044921875
1.58232421875
1.6056884765625
1.611328125
1.5839355468749998
1.5718505859374998
1.5380126953125
1.5396240234374998
1.546875
1.5170654296875
1.79501953125
1.6693359374999999
1.5766845703124999
1.5726562499999999
1.5436523437499998
1.5138427734375
1.3905761718749998
1.4123291015625
1.41796875
1.4791992187499998
1.5218994140625
1.5275390624999998
1.5541259765625
1.546875
1.56943359375
1.5686279296874999
1.561376953125
1.5927978515624999
1.5670166015625
1.5331787109375
1.522705078125
1.2528076171875
1.4429443359374998
1.525927734375
1.52109375
1.5637939453124998
1.5919921874999998
1.7772949218749998
1.82724609375
1.6379150390625
1.606494140625
1.5807128906249999
1.5670166015625
1.5766845703124999
1.5605712890624999
1.538818359375
1.5557373046874998
1.5533203125
1.5412353515625
1.571044921875
1.5589599609375
1.542041015625
1.8095214843749998
1.6806152343749998
1.574267578125
1.5597656249999998
1.56298828125
1.546875
1.4638916015624999
1.40185546875
1.46630859375
1.4735595703125
1.4888671875
1.4993408203124998
1.5114257812499998
1.5444580078124999
1.5355957031249998
1.513037109375
1.5476806640624998
1.5750732421875
1.5428466796875
1.5509033203125
1.5597656249999998
1.2697265624999998
1.4437499999999999
1.5436523437499998
1.51787109375
1.5517089843749998
1.5831298828125
1.6733642578124999
1.8344970703124999
1.6991455078125
1.5887695312499999
1.5436523437499998
1.5299560546875
1.574267578125
1.5847412109374999
1.5815185546875
1.6008544921874999
1.545263671875
1.5686279296874999
1.5686279296874999
1.5815185546875
1.5492919921875
1.6612792968749999
1.6749755859375
1.60166015625
1.5702392578125
1.5597656249999998
1.5299560546875
1.49853515625
1.4244140625
1.4397216796874999
1.4719482421874999
1.5073974609374998
1.5170654296875
1.5235107421874998
1.571044921875
1.554931640625
1.5162597656249999
1.5565429687499999
1.5621826171875
1.538818359375
1.5492919921875
1.5637939453124998
1.2882568359375
1.3978271484375
1.51787109375
1.5404296874999999
1.5670166015625
1.5847412109374999
1.611328125
1.8183837890624999
1.6806152343749998
1.5863525390625
1.5573486328125
1.5726562499999999
1.5686279296874999
1.5533203125
1.5444580078124999
1.5766845703124999
1.5565429687499999
1.5799072265624998
1.53720703125
1.5517089843749998
1.571044921875
1.6781982421875
1.7362060546875
1.6056884765625
1.5984375
1.5637939453124998
1.533984375
1.4816162109375
1.4381103515625
1.4091064453125
1.4413330078125
1.482421875
1.51787109375
1.5299560546875
1.5251220703125
1.5541259765625
1.56298828125
1.5525146484374999
1.5364013671874999
1.5404296874999999
1.5299560546875
1.53720703125
1.3913818359374999
1.3309570312499999
1.522705078125
1.5299560546875
1.5678222656249998
1.5782958984375
1.6056884765625
1.7861572265624999
1.7200927734375
1.6483886718749998
1.606494140625
1.5863525390625
1.561376953125
1.5839355468749998
1.587158203125
1.5444580078124999
1.5484863281249999
1.5509033203125
1.5686279296874999
1.5589599609375
1.5404296874999999
1.545263671875
1.767626953125
1.6121337890624998
1.59521484375
1.5766845703124999
1.5299560546875
1.5315673828124998
1.44052734375
1.3833251953124999
1.4622802734375
1.5009521484375
1.5194824218749998
1.5186767578125
1.4928955078125
1.5412353515625
1.545263671875
1.5492919921875
1.5573486328125
1.546875
1.5460693359375
1.5766845703124999
1.4445556640625
1.3527099609375
1.4953124999999998
1.5082031249999999
1.5299560546875
1.5428466796875
1.611328125
1.799853515625
1.7378173828124999
1.638720703125
1.5807128906249999
1.5766845703124999
1.58232421875
1.5887695312499999
1.545263671875
1.5831298828125
1.5218994140625
1.56298828125
1.5815185546875
1.574267578125
1.53720703125
1.5444580078124999
1.8022705078124999
1.6266357421875
1.6040771484374998
1.5895751953125
1.5243164062499999
1.49853515625
1.3929931640625
1.42119140625
1.4550292968749998
1.5073974609374998
1.5251220703125
1.482421875
1.4791992187499998
1.538818359375
1.5637939453124998
1.5323730468749999
1.5678222656249998
1.52109375
1.5299560546875
1.5251220703125
1.5476806640624998
1.3430419921874999
1.50498046875
1.53720703125
1.5275390624999998
1.5847412109374999
1.6056884765625
1.703173828125
1.7426513671875
1.6403320312499998
1.5750732421875
1.5815185546875
1.585546875
1.5758789062499998
1.529150390625
1.5525146484374999
1.5597656249999998
1.5396240234374998
1.5766845703124999
1.5404296874999999
1.577490234375
1.546875
1.7934082031249998
1.6951171875
1.6040771484374998
1.5331787109375
1.5436523437499998
1.5404296874999999
1.4252197265625
1.4091064453125
1.4373046875
1.4880615234374999
1.4872558593749998
1.5347900390625
1.5412353515625
1.5243164062499999
1.542041015625
1.5380126953125
1.5364013671874999
1.5364013671874999
1.5509033203125
1.5847412109374999
1.5911865234375
1.3092041015625
1.4880615234374999
1.496923828125
1.5033691406249998
1.5380126953125
1.5782958984375
1.7426513671875
1.7724609375
1.65
1.5911865234375
1.5992431640625
1.5976318359375
1.5750732421875
1.571044921875
1.5791015625
1.5541259765625
1.5637939453124998
1.5331787109375
1.5492919921875
1.5484863281249999
1.542041015625
1.799853515625
1.6717529296875
1.609716796875
1.60166015625
1.5839355468749998
1.5073974609374998
1.416357421875
1.3921875
1.4195800781249999
1.4437499999999999
1.4993408203124998
1.5396240234374998
1.5267333984375
1.53720703125
1.546875
1.5702392578125
1.554931640625
1.574267578125
1.56298828125
1.5565429687499999
1.5702392578125
1.3220947265624998
1.4066894531249998
1.4783935546875
1.4993408203124998
1.538818359375
1.606494140625
1.7934082031249998
1.7257324218749999
1.641943359375
1.5839355468749998
1.58232421875
1.5863525390625
1.5919921874999998
1.56298828125
1.56943359375
1.5541259765625
1.5895751953125
1.574267578125
1.5637939453124998
1.5380126953125
1.546875
1.69833984375
1.7176757812499999
1.5831298828125
1.6137451171875
1.5726562499999999
1.542041015625
1.4389160156249998
1.4252197265625
1.4228027343749998
1.4800048828124999
1.5202880859374999
1.4896728515625
1.525927734375
1.5323730468749999
1.5283447265624999
1.55009765625
1.5476806640624998
1.5404296874999999
1.5766845703124999
1.5944091796875
1.53720703125
1.345458984375
1.3986328124999998
1.5138427734375
1.5146484375
1.5565429687499999
1.5944091796875
1.6435546875
1.79501953125
1.6564453124999998
1.6242187499999998
1.5758789062499998
1.5509033203125
1.5605712890624999
1.538818359375
1.5484863281249999
1.577490234375
1.5791015625
1.5541259765625
1.554931640625
1.5645996093749999
1.558154296875
1.6878662109375
1.7748779296875
1.6403320312499998
1.5621826171875
1.5605712890624999
1.5283447265624999
1.4912841796874998
1.3881591796875
1.3986328124999998
1.4348876953124998
1.5146484375
1.5235107421874998
1.5525146484374999
1.5090087890625
1.5484863281249999
1.5525146484374999
1.5396240234374998
1.545263671875
1.5186767578125
1.5557373046874998
1.574267578125
1.3905761718749998
1.332568359375
1.5017578125
1.5033691406249998
1.5057861328125
1.571044921875
1.622607421875
1.8119384765625
1.7136474609374999
1.667724609375
1.5927978515624999
1.554931640625
1.5637939453124998
1.5436523437499998
1.59521484375
1.6266357421875
1.5460693359375
1.538818359375
1.5243164062499999
1.5194824218749998
1.53076171875
1.522705078125
1.7523193359375
1.625830078125
1.5863525390625
1.561376953125
1.5436523437499998
1.5202880859374999
1.482421875
1.4783935546875
1.4630859374999998
1.4791992187499998
1.5492919921875
1.5218994140625
1.5033691406249998
1.5492919921875
1.5460693359375
1.5533203125
1.5484863281249999
1.5484863281249999
1.5654052734375
1.5444580078124999
1.41796875
1.313232421875
1.4735595703125
1.5218994140625
1.5194824218749998
1.5621826171875
1.5927978515624999
1.8232177734375
1.7458740234374999
1.6242187499999998
1.6040771484374998
1.6000488281249998
1.5557373046874998
1.5605712890624999
1.561376953125
1.5557373046874998
1.5243164062499999
1.5517089843749998
1.5460693359375
1.5645996093749999
1.5484863281249999
1.561376953125
1.8062988281249999
1.6540283203125
1.5944091796875
1.587158203125
1.5678222656249998
1.5001464843749999
1.4155517578124999
1.3825195312499998
1.4147460937499998
1.4518066406249999
1.5186767578125
1.4888671875
1.529150390625
1.5404296874999999
1.529150390625
1.554931640625
1.5380126953125
1.5243164062499999
1.5364013671874999
1.5428466796875
1.5428466796875
1.34384765625
1.50498046875
1.5186767578125
1.5082031249999999
1.5992431640625
1.6161621093749998
1.732177734375
1.7668212890625
1.71123046875
1.622607421875
1.5734619140625
1.5484863281249999
1.5758789062499998
1.58232421875
1.5678222656249998
1.55009765625
1.5879638671874998
1.5919921874999998
1.5484863281249999
1.5299560546875
1.5364013671874999
1.7700439453124999
1.6765869140624998
1.5879638671874998
1.5645996093749999
1.51787109375
1.5323730468749999
1.4276367187499999
1.4091064453125
1.4316650390624999
1.4767822265625
1.4832275390624998
1.5122314453124999
1.5057861328125
1.4993408203124998
1.4888671875
1.5404296874999999
1.561376953125
1.5879638671874998
1.6121337890624998
1.6040771484374998
1.53720703125
1.21494140625
1.3583496093749998
1.4953124999999998
1.5106201171875
1.5557373046874998
1.5702392578125
1.69189453125
1.8369140625
1.67900390625
1.654833984375
1.6185791015625
1.5984375
1.5927978515624999
1.5525146484374999
1.5154541015624998
1.5758789062499998
1.545263671875
1.5436523437499998
1.59521484375
1.5839355468749998
1.5541259765625
1.8498046874999998
1.740234375
1.6330810546874999
1.609716796875
1.533984375
1.5404296874999999
1.458251953125
1.380908203125
1.3688232421875
1.4115234374999999
1.442138671875
1.47275390625
1.4840332031249999
1.5275390624999998
1.5275390624999998
1.5331787109375
1.5347900390625
1.5299560546875
1.5976318359375
1.6089111328124999
1.5283447265624999
1.2544189453124999
1.4228027343749998
1.4953124999999998
1.5170654296875
1.5251220703125
1.5235107421874998
1.738623046875
1.88525390625
1.7652099609374998
1.6701416015625
1.5355957031249998
1.5347900390625
1.5662109375
1.5847412109374999
1.5678222656249998
1.5670166015625
1.5299560546875
1.5565429687499999
1.6072998046875
1.611328125
1.5839355468749998
1.7821289062499999
1.7853515624999998
1.6427490234375
1.6894775390624999
1.6008544921874999
1.542041015625
1.4510009765624998
1.3752685546874999
1.3575439453125
1.4123291015625
1.4155517578124999
1.4759765624999999
1.4429443359374998
1.4880615234374999
1.5009521484375
1.5509033203125
1.5678222656249998
1.5968261718749999
1.522705078125
1.474365234375
1.53720703125
1.1980224609374999
1.164990234375
1.271337890625
1.3261230468749998
1.4413330078125
1.5831298828125
1.6806152343749998
2.1197021484375
2.1342041015624997
1.9352050781249999
1.6927001953124998
1.5146484375
1.4864501953125
1.5251220703125
1.5033691406249998
1.5517089843749998
1.56298828125
1.5645996093749999
1.5911865234375
1.5299560546875
1.4719482421874999
1.7692382812499998
1.9408447265625
1.7579589843749999
1.52109375
1.335791015625
1.1093994140624999
0.9498779296875
0.5824951171875
0.46164550781249997
0.476953125
0.7387939453125
0.9579345703125
1.1400146484375
1.30517578125
1.4042724609375
1.4655029296875
1.5839355468749998
1.6532226562499999
1.7499023437499999
1.8538330078124998
1.9118408203125
1.319677734375
0.6566162109375
0.3037353515625
0.04189453125
0.041088867187499996
0.040283203125
0.12246093749999999
0.9273193359374999
1.377685546875
1.7281494140625
1.9029785156249999
2.064111328125
2.147900390625
2.173681640625
2.2187988281249997
2.2147705078124997
2.289697265625
2.2969482421875
2.2486083984375
2.18173828125
2.196240234375
2.1551513671875
3.0478271484375
3.0470214843749996
3.0470214843749996
3.0494384765625
3.0486328124999997
2.9261718749999996
2.4886962890624997
2.0173828124999997
1.6379150390625
1.4147460937499998
1.3059814453124998
1.0820068359375
0.9514892578124999
0.9482666015625
0.8104980468749999
0.85400390625
0.8515869140625
0.85400390625
0.839501953125
0.81533203125
0.8660888671875
0.040283203125
0.04189453125
0.038671874999999994
0.038671874999999994
0.041088867187499996
0.041088867187499996
0.6437255859375
1.2310546875
1.5428466796875
1.7555419921875
2.0133544921874997
2.0230224609375
2.19140625
2.230078125
2.230078125
2.2550537109374997
2.1978515625
2.2469970703124997
2.2187988281249997
2.2147705078124997
2.1873779296875
2.953564453125
3.0494384765625
3.0462158203125
3.0470214843749996
3.050244140625
3.04541015625
2.6756103515625
2.321923828125
1.928759765625
1.542041015625
1.327734375
1.1859374999999999
0.990966796875
0.8846191406249999
0.8064697265624999
0.7863281249999999
0.7927734375
0.7871337890625
0.7887451171875
0.8258056640625
0.8419189453125
0.041088867187499996
0.040283203125
0.040283203125
0.041088867187499996
0.037060546874999996
0.040283203125
0.48178710937499997
1.074755859375
1.4042724609375
1.7176757812499999
1.8385253906249999
1.93681640625
2.05283203125
2.1760986328125
2.2550537109374997
2.26875
2.357373046875
2.40087890625
2.34609375
2.2502197265625
2.215576171875
2.7948486328124997
3.0470214843749996
3.0462158203125
3.0478271484375
3.0462158203125
3.0462158203125
2.6997802734375
2.3468994140625
1.8336914062499998
1.5283447265624999
1.2536132812499998
0.968408203125
0.8016357421875
0.78310546875
0.7146240234375
0.5865234375
0.671923828125
0.710595703125
0.7081787109375
0.7283203125
0.7259033203124999
0.04189453125
0.041088867187499996
0.0443115234375
0.041088867187499996
0.040283203125
0.0378662109375
0.2634521484375
0.8910644531249999
1.3341796874999998
1.5186767578125
1.638720703125
1.85625
2.0407470703125
2.0858642578124997
2.222021484375
2.2131591796875
2.289697265625
2.244580078125
2.1382324218749997
2.1438720703125
2.13662109375
2.7908203124999997
3.04541015625
3.0446044921874997
3.04541015625
3.0470214843749996
3.0429931640624996
3.04541015625
2.4967529296874997
2.1358154296875
1.8216064453124998
1.46630859375
1.2141357421874999
1.029638671875
0.871728515625
0.7984130859374999
0.720263671875
0.752490234375
0.8080810546874999
0.7637695312499999
0.79921875
0.78310546875
0.0620361328125
0.040283203125
0.041088867187499996
0.041088867187499996
0.038671874999999994
0.0378662109375
0.15227050781249998
0.8805908203124999
1.3092041015625
1.574267578125
1.690283203125
1.7909912109375
1.928759765625
2.0069091796875
2.08828125
2.0343017578125
2.141455078125
2.1325927734375
2.1793212890625
2.176904296875
2.099560546875
2.1632080078125
2.9575927734375
3.0478271484375
3.0421875
3.0470214843749996
3.0446044921874997
2.9817626953125
2.634521484375
2.1060058593749997
1.8183837890624999
1.606494140625
1.4058837890625
1.2479736328125
1.1335693359374999
0.9740478515625
0.7919677734374999
0.845947265625
0.8048583984375
0.7597412109374999
0.6759521484375
0.62197265625
0.44230957031249996
0.040283203125
0.0443115234375
0.04189453125
0.037060546874999996
0.037060546874999996
0.04189453125
0.71220703125
1.287451171875
1.5525146484374999
1.6346923828125
1.8788085937499999
1.9827392578124998
2.1076171875
2.22041015625
2.196240234375
2.1922119140625
2.2244384765625
2.241357421875
2.2921142578125
2.2179931640625
2.209130859375
2.989013671875
3.0462158203125
3.0486328124999997
3.0446044921874997
3.0470214843749996
3.0470214843749996
2.6039062499999996
2.2389404296874997
1.9223144531249998
1.5887695312499999
1.3720458984375
1.1931884765625
1.036083984375
0.961962890625
0.8830078124999999
0.79921875
0.7178466796874999
0.7315429687499999
0.7138183593749999
0.736376953125
0.6993164062499999
0.04189453125
0.0394775390625
0.041088867187499996
0.04189453125
0.042700195312499994
0.04189453125
0.5857177734375
1.0248046874999999
1.4389160156249998
1.6540283203125
1.7531249999999998
1.9021728515624998
2.0633056640625
2.1785156249999997
2.2026855468749997
2.14951171875
2.165625
2.125341796875
2.157568359375
2.1422607421874997
2.1422607421874997
2.9261718749999996
3.0470214843749996
3.0486328124999997
3.0470214843749996
3.0462158203125
3.043798828125
2.7102539062499997
2.1970458984375
1.883642578125
1.606494140625
1.4735595703125
1.1835205078125
1.0320556640625
0.9144287109375
0.839501953125
0.7218749999999999
0.758935546875
0.7371826171875
0.7798828124999999
0.8040527343749999
0.7581298828124999
0.040283203125
0.041088867187499996
0.042700195312499994
0.040283203125
0.042700195312499994
0.041088867187499996
0.2900390625
1.07958984375
1.3913818359374999
1.5992431640625
1.783740234375
1.9166748046875
2.03994140625
2.1076171875
2.160791015625
2.1696533203125
2.2212158203125
2.1922119140625
2.1865722656249997
2.1229248046875
2.077001953125
2.7739013671875
3.0389648437499996
3.0429931640624996
3.0470214843749996
3.0486328124999997
3.043798828125
2.8254638671874996
2.486279296875
2.126953125
1.7281494140625
1.5106201171875
1.3446533203125
1.1899658203124999
1.152099609375
1.0481689453125
0.9466552734375
0.862060546875
0.78310546875
0.8354736328125
0.7935791015625
0.7718261718749999
0.040283203125
0.0394775390625
0.040283203125
0.040283203125
0.037060546874999996
0.04189453125
0.19255371093749998
0.8709228515624999
1.1778808593749999
1.5041748046874999
1.603271484375
1.7168701171874998
1.896533203125
1.9311767578124999
2.0149658203125
2.151123046875
2.14306640625
2.18173828125
2.2026855468749997
2.247802734375
2.2171875
2.5837646484374996
3.0470214843749996
3.0462158203125
3.0470214843749996
3.0510498046874996
3.0462158203125
3.043798828125
2.7013916015625
2.1140624999999997
1.7772949218749998
1.5944091796875
1.34384765625
1.1996337890625
1.1351806640625
0.9490722656249999
0.936181640625
0.8362792968749999
0.8080810546874999
0.7283203125
0.6832031249999999
0.6469482421874999
0.0394775390625
0.043505859375
0.0378662109375
0.040283203125
0.04189453125
0.037060546874999996
0.040283203125
0.8000244140624999
1.1537109374999999
1.3599609375
1.5654052734375
1.72412109375
1.9215087890625
1.998046875
2.0657226562499997
2.183349609375
2.1221191406249997
2.067333984375
2.126953125
2.12373046875
2.101171875
2.2405517578125
2.9430908203125
3.0494384765625
3.04541015625
3.0446044921874997
3.0486328124999997
2.9664550781249996
2.57490234375
2.1696533203125
1.861083984375
1.5492919921875
1.2995361328125
1.11826171875
0.9474609374999999
0.8660888671875
0.849169921875
0.7951904296875
0.77666015625
0.7379882812499999
0.736376953125
0.7315429687499999
0.40202636718749996
0.04189453125
0.042700195312499994
0.037060546874999996
0.040283203125
0.040283203125
0.041088867187499996
0.7661865234374999
1.1512939453125
1.5106201171875
1.7080078125
1.8465820312499999
1.9472900390624999
2.131787109375
2.2357177734375
2.2776123046875
2.2647216796875
2.2373291015625
2.2260498046875
2.231689453125
2.2486083984375
2.17529296875
2.8955566406249997
3.0470214843749996
3.0421875
3.043798828125
3.0446044921874997
3.0486328124999997
2.7062255859374997
2.126953125
1.8199951171875
1.5186767578125
1.297119140625
1.123095703125
0.95068359375
0.829833984375
0.8121093749999999
0.7516845703124999
0.7315429687499999
0.7404052734375
0.7557128906249999
0.8048583984375
0.8499755859375
0.040283203125
0.040283203125
0.041088867187499996
0.04189453125
0.040283203125
0.038671874999999994
0.24814453125
1.069921875
1.3994384765624999
1.5919921874999998
1.7974365234374998
1.8570556640625
2.006103515625
2.1551513671875
2.20751953125
2.2171875
2.2268554687499997
2.260693359375
2.26552734375
2.1841552734375
2.112451171875
2.92939453125
3.04541015625
3.0470214843749996
3.0470214843749996
3.050244140625
3.0462158203125
2.7416748046875
2.4016845703125
2.093115234375
1.683837890625
1.5347900390625
1.3599609375
1.168212890625
0.942626953125
0.9563232421875
0.929736328125
0.7984130859374999
0.78310546875
0.8443359374999999
0.8443359374999999
0.8523925781249999
0.042700195312499994
0.040283203125
0.04189453125
0.040283203125
0.040283203125
0.040283203125
0.4358642578125
1.0014404296875
1.3269287109374999
1.56943359375
1.7168701171874998
1.7990478515625
1.893310546875
1.9988525390624998
2.0439697265625
2.01416015625
2.0906982421875
2.083447265625
2.1116455078125
2.0778076171874997
2.0584716796875
2.513671875
2.99384765625
3.0494384765625
3.0478271484375
3.0470214843749996
3.04541015625
2.9737060546875
2.6337158203124997
2.0697509765624997
1.8417480468749998
1.542041015625
1.3575439453125
1.134375
1.09892578125
0.9869384765625
0.9796874999999999
0.8846191406249999
0.8209716796875
0.7790771484375
0.7355712890624999
0.78310546875
0.198193359375
0.0394775390625
0.0378662109375
0.041088867187499996
0.040283203125
0.0394775390625
0.040283203125
0.74443359375
1.11826171875
1.513037109375
1.72734375
1.92392578125
2.1205078125
2.1535400390625
2.1825439453124997
2.257470703125
2.1785156249999997
2.1857666015625
2.2292724609375
2.2590820312499997
2.27197265625
2.2647216796875
3.0462158203125
3.0510498046874996
3.0478271484375
3.0429931640624996
3.0510498046874996
3.0333251953125
2.6192138671875
1.9682373046875
1.7716552734375
1.56298828125
1.327734375
1.1464599609375
1.007080078125
1.044140625
0.8926757812499999
0.8193603515625
0.8322509765624999
0.8370849609375
0.9031494140624999
0.8338623046875
0.8056640625
0.040283203125
0.041088867187499996
0.0362548828125
0.04189453125
0.042700195312499994
0.040283203125
0.515625
1.1335693359374999
1.432470703125
1.6379150390625
1.8143554687499999
1.9360107421875
1.9907958984374998
2.0310791015625
2.0359130859375
2.118896484375
2.16884765625
2.157568359375
2.1680419921875
2.125341796875
2.12373046875
2.8810546875
3.0486328124999997
3.0462158203125
3.0470214843749996
3.0470214843749996
3.04541015625
2.66513671875
2.2437744140625
1.8409423828125
1.6564453124999998
1.3994384765624999
1.1931884765625
1.0675048828125
0.8805908203124999
0.7943847656249999
0.7798828124999999
0.7718261718749999
0.8032470703125
0.7855224609375
0.7887451171875
0.8193603515625
0.041088867187499996
0.043505859375
0.041088867187499996
0.040283203125
0.040283203125
0.037060546874999996
0.4447265625
0.9821044921875
1.3172607421875
1.4880615234374999
1.783740234375
1.8393310546875
1.9505126953124998
2.047998046875
2.0778076171874997
2.1889892578125
2.29453125
2.2840576171875
2.27197265625
2.204296875
2.1438720703125
2.731201171875
3.043798828125
3.04541015625
3.0446044921874997
3.0470214843749996
3.0478271484375
2.7996826171875
2.4419677734375
2.0262451171875
1.64677734375
1.456640625
1.2890625
1.1279296875
1.061865234375
0.9514892578124999
0.90556640625
0.862060546875
0.865283203125
0.7863281249999999
0.791162109375
0.8822021484375
0.21511230468749998
0.040283203125
0.041088867187499996
0.042700195312499994
0.0394775390625
0.037060546874999996
0.043505859375
0.797607421875
1.1222900390625
1.5251220703125
1.6483886718749998
1.7458740234374999
1.8264404296874999
1.973876953125
2.0810302734375
2.1035888671875
2.1019775390624997
2.1309814453125
2.135009765625
2.1664306640624997
2.157568359375
2.2598876953125
2.9817626953125
3.0462158203125
3.04541015625
3.050244140625
3.0494384765625
3.0027099609374996
2.6659423828124997
2.180126953125
1.8312744140625
1.5597656249999998
1.3212890625
1.0763671875
1.077978515625
1.01513671875
0.8846191406249999
0.84111328125
0.8548095703124999
0.8338623046875
0.797607421875
0.8113037109375
0.61552734375
0.0378662109375
0.0394775390625
0.0394775390625
0.037060546874999996
0.037060546874999996
0.040283203125
0.734765625
1.1690185546875
1.4598632812499999
1.5670166015625
1.706396484375
1.909423828125
1.9505126953124998
1.964208984375
2.0278564453125
2.070556640625
2.1180908203124997
2.1454833984375
2.1728759765625
2.1342041015624997
2.0310791015625
2.9334228515625
3.043798828125
3.04541015625
3.0470214843749996
3.043798828125
3.0478271484375
2.715087890625
2.260693359375
1.90458984375
1.7120361328125
1.4413330078125
1.2624755859374999
1.1110107421875
1.0368896484374999
0.9345703125
0.8572265625
0.8258056640625
0.8588378906249999
0.7694091796875
0.736376953125
0.736376953125
0.041088867187499996
0.0394775390625
0.038671874999999994
0.0378662109375
0.037060546874999996
0.0394775390625
0.270703125
1.0546142578125
1.353515625
1.6000488281249998
1.783740234375
1.8844482421875
2.0334960937499997
2.006103515625
2.1382324218749997
2.2107421874999997
2.1857666015625
2.152734375
2.180126953125
2.099560546875
2.023828125
2.70703125
2.9350341796875
3.0470214843749996
3.0421875
3.0462158203125
3.04541015625
2.763427734375
2.4419677734375
2.075390625
1.73056640625
1.448583984375
1.3075927734375
1.152099609375
1.0513916015625
1.0143310546875
1.0006347656249999
0.9724365234375
0.9385986328125
0.9579345703125
0.9047607421874999
0.8870361328124999
0.040283203125
0.040283203125
0.040283203125
0.0362548828125
0.042700195312499994
0.040283203125
0.322265625
0.81533203125
1.116650390625
1.3575439453125
1.5726562499999999
1.7853515624999998
1.920703125
2.1245361328125
2.204296875
2.2389404296874997
2.2147705078124997
2.1954345703125
2.1954345703125
2.1277587890625
2.099560546875
2.5579833984375
2.985791015625
3.0462158203125
3.050244140625
3.0478271484375
3.0486328124999997
3.0172119140625
2.6232421875
2.23330078125
1.864306640625
1.6475830078125
1.46953125
1.2463623046874999
1.1859374999999999
1.15693359375
1.0530029296874999
0.994189453125
0.9772705078124999
1.00224609375
0.966796875
0.9337646484375
0.394775390625
0.040283203125
0.038671874999999994
0.041088867187499996
0.040283203125
0.041088867187499996
0.040283203125
0.708984375
1.1802978515625
1.4147460937499998
1.585546875
1.6717529296875
1.8336914062499998
1.9440673828125
2.08828125
2.1035888671875
2.128564453125
2.13662109375
2.1406494140625
2.1454833984375
2.1680419921875
2.16884765625
3.0478271484375
3.0462158203125
3.043798828125
3.050244140625
3.0470214843749996
3.04541015625
2.695751953125
2.147900390625
1.8336914062499998
1.5831298828125
1.313232421875
1.1835205078125
1.042529296875
0.961962890625
0.9877441406249999
0.8612548828125
0.8145263671874999
0.720263671875
0.6912597656249999
0.6872314453124999
0.7146240234375
0.0362548828125
0.0394775390625
0.0394775390625
0.050756835937499994
0.038671874999999994
0.040283203125
0.5164306640624999
1.1947998046875
1.4655029296875
1.585546875
1.6701416015625
1.8224121093749999
1.9086181640625
2.015771484375
2.0794189453125
2.128564453125
2.1374267578125
2.1342041015624997
2.1487060546875
2.1333984375
2.0826416015625
2.8874999999999997
3.0494384765625
3.0494384765625
3.0429931640624996
3.0462158203125
3.0470214843749996
2.711865234375
2.29775390625
1.973876953125
1.651611328125
1.44052734375
1.2399169921875
1.0852294921874999
1.0078857421875
0.8346679687499999
0.8000244140624999
0.68642578125
0.610693359375
0.704150390625
0.7379882812499999
0.784716796875
0.041088867187499996
0.04189453125
0.0394775390625
0.0362548828125
0.041088867187499996
0.037060546874999996
0.127294921875
0.9853271484374999
1.2826171874999999
1.5315673828124998
1.6927001953124998
1.843359375
1.9343994140624998
1.9400390625
2.109228515625
2.1076171875
2.2341064453125
2.2671386718749997
2.254248046875
2.2034912109375
2.1873779296875
2.7271728515625
3.0486328124999997
3.050244140625
3.0470214843749996
3.0510498046874996
3.0470214843749996
2.7610107421874996
2.6135742187499997
2.27197265625
1.8393310546875
1.554931640625
1.3229003906249999
1.1174560546874999
1.0030517578125
0.9933837890624999
0.837890625
0.8177490234375
0.7943847656249999
0.800830078125
0.7476562499999999
0.765380859375
0.2215576171875
0.03544921875
0.04189453125
0.0394775390625
0.040283203125
0.037060546874999996
0.0555908203125
0.8201660156249999
1.2012451171875
1.442138671875
1.699951171875
1.8546386718749999
1.9271484374999999
1.998046875
2.1551513671875
2.0625
2.093115234375
2.1849609375
2.2486083984375
2.231689453125
2.135009765625
2.1245361328125
2.8947509765625
3.0494384765625
3.0470214843749996
3.04541015625
3.0478271484375
3.0429931640624996
2.698974609375
2.3775146484375
1.8941162109374998
1.6234130859375
1.4477783203124999
1.3212890625
1.1931884765625
1.0272216796875
0.9337646484375
0.8628662109374999
0.8701171875
0.8266113281249999
0.8056640625
0.87333984375
0.7194580078124999
0.0362548828125
0.041088867187499996
0.0394775390625
0.0394775390625
0.040283203125
0.040283203125
0.630029296875
1.0159423828125
1.40185546875
1.5718505859374998
1.6572509765624999
1.783740234375
1.9408447265625
1.957763671875
1.9617919921875
1.973876953125
1.9658203125
1.9779052734375
2.023828125
2.0343017578125
2.0278564453125
2.7086425781249996
3.0446044921874997
3.0470214843749996
3.0470214843749996
3.050244140625
3.04541015625
2.7432861328125
2.2792236328124997
1.9489013671875
1.7023681640625
1.4445556640625
1.174658203125
1.058642578125
0.9313476562499999
0.9289306640624999
0.9152343749999999
0.8854248046875
0.8290283203125
0.813720703125
0.8338623046875
0.8201660156249999
0.040283203125
0.04189453125
0.040283203125
0.040283203125
0.040283203125
0.040283203125
0.2876220703125
0.958740234375
1.4139404296875
1.6266357421875
1.7716552734375
1.8828369140624999
2.0069091796875
2.0955322265625
2.128564453125
2.176904296875
2.1857666015625
2.2196044921875
2.254248046875
2.2196044921875
2.1793212890625
2.8673583984374997
3.0510498046874996
3.04541015625
3.0470214843749996
3.0462158203125
3.0470214843749996
2.9704833984374996
2.512060546875
2.1076171875
1.893310546875
1.5509033203125
1.4542236328125
1.248779296875
1.036083984375
0.9434326171874999
0.9289306640624999
0.8749511718749999
0.8161376953124999
0.7436279296874999
0.7879394531249999
0.7742431640624999
0.0394775390625
0.045117187499999996
0.040283203125
0.0443115234375
0.041088867187499996
0.040283203125
0.040283203125
0.7661865234374999
1.1045654296875
1.4034667968749999
1.585546875
1.7039794921875
1.8232177734375
1.944873046875
1.93681640625
2.0657226562499997
2.0423583984375
2.0576660156249997
2.12373046875
2.15595703125
2.0898925781249997
2.5128662109374997
2.9946533203124996
3.0462158203125
3.04541015625
3.0470214843749996
3.0429931640624996
2.9511474609375
2.5797363281249996
2.23330078125
1.8417480468749998
1.545263671875
1.300341796875
1.1295410156249999
1.0449462890624999
1.0401123046875
1.003857421875
0.8918701171875
0.8604492187499999
0.897509765625
0.8644775390624999
0.82177734375
0.32065429687499997
0.040283203125
0.045117187499999996
0.040283203125
0.042700195312499994
0.0394775390625
0.042700195312499994
0.6227783203124999
1.0812011718749999
1.297119140625
1.6056884765625
1.7934082031249998
1.8925048828125
2.0568603515625
2.054443359375
2.13984375
2.1825439453124997
2.151123046875
2.1543457031249997
2.2026855468749997
2.1680419921875
2.1438720703125
2.9479248046874997
3.0486328124999997
3.0470214843749996
3.0510498046874996
3.0486328124999997
3.04541015625
2.721533203125
2.2905029296875
1.8087158203125
1.5807128906249999
1.4058837890625
1.1939941406249999
1.110205078125
1.044140625
0.9579345703125
0.9531005859374999
0.8999267578125
0.9176513671875
0.8572265625
0.8749511718749999
0.8983154296875
0.040283203125
0.041088867187499996
0.041088867187499996
0.040283203125
0.0394775390625
0.0394775390625
0.48178710937499997
0.9490722656249999
1.2697265624999998
1.461474609375
1.577490234375
1.670947265625
1.8240234375
2.00771484375
2.1197021484375
2.1487060546875
2.147900390625
2.1865722656249997
2.2236328125
2.18818359375
2.2026855468749997
2.9181152343749996
3.0470214843749996
3.0470214843749996
3.0470214843749996
3.0470214843749996
3.0429931640624996
2.8874999999999997
2.3581787109375
1.9698486328125
1.6556396484375
1.4244140625
1.203662109375
1.0385009765625
0.9837158203124999
0.8523925781249999
0.8225830078124999
0.8209716796875
0.8096923828125
0.839501953125
0.8604492187499999
0.8588378906249999
0.0443115234375
0.020947265625
0.038671874999999994
0.0362548828125
0.037060546874999996
0.041088867187499996
0.09990234375
0.9627685546875
1.2769775390625
1.5380126953125
1.6935058593749999
1.8707519531249999
1.941650390625
2.0069091796875
2.1382324218749997
2.1035888671875
2.1197021484375
2.0689453125
2.075390625
2.0069091796875
1.9658203125
2.5313964843749996
2.9841796874999997
3.0486328124999997
3.0462158203125
3.0486328124999997
3.0462158203125
2.8286865234375
2.462109375
2.1374267578125
1.8892822265625
1.6379150390625
1.44052734375
1.24072265625
0.98291015625
0.8660888671875
0.78955078125
0.7597412109374999
0.6985107421875
0.7315429687499999
0.74443359375
0.72509765625
0.111181640625
0.0378662109375
0.041088867187499996
0.043505859375
0.040283203125
0.040283203125
0.040283203125
0.7839111328124999
1.1456542968749999
1.3857421875
1.6290527343749999
1.8377197265624998
1.9279541015625
1.989990234375
2.0584716796875
2.07861328125
2.0697509765624997
2.1615966796875
2.2026855468749997
2.2083251953125
2.238134765625
2.205908203125
2.89072265625
3.043798828125
3.0486328124999997
3.0486328124999997
3.0470214843749996
3.0397705078125
2.7400634765625
2.3388427734375
1.8763916015625
1.6604736328124998
1.3825195312499998
1.0965087890625
1.0167480468749999
0.8991210937499999
0.8564208984374999
0.7742431640624999
0.742822265625
0.8000244140624999
0.8113037109375
0.8225830078124999
0.704150390625
0.041088867187499996
0.0443115234375
0.040283203125
0.04189453125
0.0394775390625
0.040283203125
0.5937744140625
1.06669921875
1.3728515625
1.474365234375
1.6371093749999999
1.7893798828124998
1.9198974609375
2.0052978515624997
2.006103515625
2.0165771484375
2.0939208984374997
2.1180908203124997
2.230078125
2.180126953125
2.14951171875
2.8593017578124997
3.0470214843749996
3.04541015625
3.04541015625
3.0429931640624996
3.050244140625
2.8536621093749996
2.39765625
2.0085205078125
1.770849609375
1.4735595703125
1.248779296875
1.018359375
0.9490722656249999
0.8741455078125
0.8628662109374999
0.8338623046875
0.8016357421875
0.8161376953124999
0.775048828125
0.8499755859375
0.040283203125
0.043505859375
0.04189453125
0.042700195312499994
0.037060546874999996
0.040283203125
0.15629882812499998
0.7903564453124999
1.19560546875
1.4316650390624999
1.6209960937499999
1.783740234375
1.88525390625
1.9569580078125
2.035107421875
2.083447265625
2.0681396484375
2.0761962890625
2.1148681640625
2.10439453125
2.1205078125
2.8391601562499997
3.0486328124999997
3.043798828125
3.04541015625
3.0462158203125
3.04541015625
2.905224609375
2.34931640625
2.03994140625
1.7853515624999998
1.5758789062499998
1.4244140625
1.26005859375
1.0594482421875
0.9353759765624999
0.87978515625
0.855615234375
0.8370849609375
0.8306396484374999
0.8129150390625
0.7291259765625
0.041088867187499996
0.040283203125
0.0394775390625
0.040283203125
0.04189453125
0.042700195312499994
0.040283203125
0.9410156249999999
1.3100097656249998
1.4413330078125
1.622607421875
1.7096191406249999
1.8167724609375
1.9440673828125
2.0391357421875
2.147900390625
2.0898925781249997
2.0568603515625
2.0576660156249997
2.1060058593749997
2.17529296875
2.54267578125
3.0486328124999997
3.0478271484375
3.0470214843749996
3.0478271484375
3.0486328124999997
3.0188232421874996
2.6337158203124997
2.2236328125
1.8336914062499998
1.5492919921875
1.4010498046875
1.2423339843749999
1.1384033203125
0.9627685546875
1.013525390625
0.9531005859374999
0.974853515625
0.990966796875
0.9756591796874999
1.0272216796875
0.4447265625
0.040283203125
0.041088867187499996
0.041088867187499996
0.0394775390625
0.0394775390625
0.043505859375
0.68642578125
1.0691162109374999
1.4236083984374999
1.5525146484374999
1.641943359375
1.783740234375
2.0109375
2.0657226562499997
2.112451171875
2.1680419921875
2.18173828125
2.18173828125
2.10439453125
2.1543457031249997
2.13662109375
2.924560546875
3.0462158203125
3.0470214843749996
3.0462158203125
3.0486328124999997
3.0470214843749996
2.7489257812499996
2.2187988281249997
1.9231201171874999
1.6943115234375
1.47275390625
1.313232421875
1.173046875
1.084423828125
0.9772705078124999
0.9531005859374999
0.8902587890625
0.8225830078124999
0.8644775390624999
0.8403076171874999
0.8685058593749999
0.04189453125
0.04189453125
0.037060546874999996
0.040283203125
0.0394775390625
0.041088867187499996
0.4729248046875
1.110205078125
1.4550292968749998
1.5476806640624998
1.7595703125
1.799853515625
1.9263427734374998
1.9948242187499998
2.067333984375
2.1180908203124997
2.14306640625
2.1358154296875
2.1938232421875
2.1084228515625
2.1922119140625
2.985791015625
3.0470214843749996
3.04541015625
3.0478271484375
3.0486328124999997
3.050244140625
2.70703125
2.360595703125
2.1076171875
1.7329833984374998
1.51787109375
1.3583496093749998
1.15693359375
1.03447265625
0.9651855468749999
0.8822021484375
0.8121093749999999
0.7935791015625
0.768603515625
0.758935546875
0.7959960937499999
0.045117187499999996
0.040283203125
0.0394775390625
0.041088867187499996
0.045117187499999996
0.038671874999999994
0.4640625
0.9394042968749999
1.2656982421874998
1.56943359375
1.7926025390625
1.8892822265625
2.08828125
2.131787109375
2.160791015625
2.2727783203125
2.2131591796875
2.2598876953125
2.225244140625
2.1462890624999997
2.1342041015624997
2.7134765625
3.0486328124999997
3.050244140625
3.0470214843749996
3.050244140625
3.0470214843749996
3.04541015625
3.04541015625
3.0462158203125
3.0486328124999997
3.0494384765625
3.0486328124999997
3.0462158203125
3.0478271484375
3.0462158203125
3.0462158203125
3.043798828125
3.0470214843749996
3.0486328124999997
3.043798828125
3.050244140625
3.0470214843749996
3.0494384765625
3.0462158203125
3.0462158203125
3.0470214843749996
3.050244140625
3.04541015625
3.0470214843749996
3.0429931640624996
3.043798828125
3.04541015625
3.04541015625
3.04541015625
3.0446044921874997
3.0470214843749996
3.0446044921874997
3.0462158203125
3.0486328124999997
3.0470214843749996
3.0462158203125
3.0470214843749996
3.0486328124999997
3.0470214843749996
3.0462158203125
3.043798828125
2.9020019531249996
2.6965576171874996
2.244580078125
1.658056640625
1.148876953125
0.65419921875
0.41733398437499997
0.20302734374999998
0.0459228515625
0.040283203125
0.041088867187499996
0.04189453125
0.23686523437499998
0.1474365234375
0.04189453125
0.041088867187499996
0.041088867187499996
0.041088867187499996
0.040283203125
0.042700195312499994
0.0378662109375
0.0652587890625
0.28359375
0.47856445312499996
1.2262207031249999
1.4115234374999999
1.3124267578125
1.2826171874999999
1.2020507812499999
1.0505859375
0.9531005859374999
0.9216796875
0.9893554687499999
0.9958007812499999
1.116650390625
1.1778808593749999
1.0997314453125
1.029638671875
0.9885498046875
1.6209960937499999
1.5041748046874999
1.4816162109375
1.3744628906249998
1.1722412109375
1.0376953125
0.742822265625
0.5212646484375
0.533349609375
0.7017333984374999
0.8846191406249999
0.91845703125
1.0143310546875
1.0916748046875
1.164990234375
1.232666015625
1.27294921875
1.3422363281249998
1.3672119140624999
1.4268310546874998
1.0006347656249999
0.7927734375
0.926513671875
1.0570312499999999
1.3180664062499998
1.4510009765624998
1.5146484375
1.972265625
2.0302734375
1.877197265625
1.6814208984374999
1.558154296875
1.4308593749999998
1.3905761718749998
1.3317626953125
1.3583496093749998
1.413134765625
1.4034667968749999
1.3744628906249998
1.3583496093749998
1.3728515625
1.380908203125
1.880419921875
1.82724609375
1.699951171875
1.5799072265624998
1.461474609375
1.30517578125
1.0820068359375
0.9812988281249999
1.0812011718749999
1.1819091796874999
1.2963134765625
1.429248046875
1.4759765624999999
1.5009521484375
1.4526123046875
1.45341796875
1.5106201171875
1.5025634765625
1.4832275390624998
1.493701171875
1.4912841796874998
1.02158203125
1.2020507812499999
1.3083984375
1.3656005859375
1.5355957031249998
1.6475830078125
1.993212890625
2.0576660156249997
1.9424560546874998
1.703173828125
1.590380859375
1.5637939453124998
1.4977294921875
1.5033691406249998
1.5323730468749999
1.61455078125
1.53076171875
1.5573486328125
1.585546875
1.5243164062499999
1.5122314453124999
1.9231201171874999
1.9102294921874998
1.8465820312499999
1.6290527343749999
1.5404296874999999
1.4501953125
1.1303466796875
1.0594482421875
1.0562255859375
1.168212890625
1.3140380859374998
1.445361328125
1.4800048828124999
1.4840332031249999
1.5782958984375
1.5815185546875
1.5758789062499998
1.59521484375
1.5782958984375
1.60166015625
1.5484863281249999
0.9788818359375
1.0965087890625
1.3043701171875
1.42119140625
1.5146484375
1.72412109375
2.0246337890625
2.2743896484375
2.2002685546875
1.877197265625
1.7418457031249999
1.6177734375
1.554931640625
1.5025634765625
1.4687255859375
1.5726562499999999
1.5170654296875
1.4840332031249999
1.477587890625
1.533984375
1.4961181640624999
1.8892822265625
1.9859619140625
1.8796142578125
1.7233154296875
1.571044921875
1.53076171875
1.276171875
1.1303466796875
1.0634765625
1.1939941406249999
1.353515625
1.409912109375
1.4630859374999998
1.5605712890624999
1.5573486328125
1.5621826171875
1.4993408203124998
1.6048828124999999
1.5412353515625
1.542041015625
1.558154296875
1.0376953125
1.1666015625
1.2689208984375
1.3857421875
1.5041748046874999
1.6129394531249999
1.7555419921875
2.205908203125
2.08828125
1.8755859375
1.667724609375
1.5355957031249998
1.5831298828125
1.525927734375
1.542041015625
1.5396240234374998
1.5815185546875
1.522705078125
1.490478515625
1.5162597656249999
1.5114257812499998
1.799853515625
1.989990234375
1.8328857421875
1.7370117187499998
1.6072998046875
1.5154541015624998
1.3712402343749999
1.1802978515625
1.1029541015625
1.2205810546875
1.2745605468749999
1.409912109375
1.533984375
1.5686279296874999
1.5412353515625
1.53720703125
1.5887695312499999
1.5815185546875
1.5670166015625
1.529150390625
1.561376953125
1.17626953125
1.11181640625
1.329345703125
1.4115234374999999
1.4912841796874998
1.6443603515624998
1.7595703125
2.1825439453124997
2.1019775390624997
1.9352050781249999
1.7740722656249999
1.6040771484374998
1.5202880859374999
1.5235107421874998
1.5170654296875
1.538818359375
1.5082031249999999
1.4816162109375
1.5235107421874998
1.448583984375
1.4501953125
1.851416015625
2.0085205078125
1.8578613281249998
1.8441650390625
1.6830322265625
1.5670166015625
1.3736572265625
1.1174560546874999
1.068310546875
1.1448486328125
1.281005859375
1.4574462890625
1.5073974609374998
1.5355957031249998
1.5541259765625
1.5444580078124999
1.5678222656249998
1.5718505859374998
1.5911865234375
1.5895751953125
1.6298583984375
1.248779296875
1.139208984375
1.3414306640625
1.429248046875
1.5162597656249999
1.5533203125
1.6403320312499998
2.070556640625
2.0633056640625
1.8473876953125
1.72734375
1.5815185546875
1.5863525390625
1.5863525390625
1.5686279296874999
1.546875
1.5202880859374999
1.5428466796875
1.6137451171875
1.5404296874999999
1.4864501953125
1.4703369140625
1.9360107421875
1.8014648437499998
1.7128417968749998
1.6411376953124999
1.5041748046874999
1.361572265625
1.1980224609374999
1.1351806640625
1.2238037109375
1.3736572265625
1.4308593749999998
1.5645996093749999
1.6072998046875
1.609716796875
1.5589599609375
1.5927978515624999
1.5766845703124999
1.5887695312499999
1.5541259765625
1.5766845703124999
1.5686279296874999
1.0997314453125
1.264892578125
1.3946044921874998
1.4888671875
1.5847412109374999
1.6653076171874999
2.075390625
2.0439697265625
1.8900878906249998
1.7531249999999998
1.585546875
1.5347900390625
1.5533203125
1.5347900390625
1.6008544921874999
1.5750732421875
1.5162597656249999
1.5122314453124999
1.5090087890625
1.5460693359375
1.5146484375
1.9553466796874999
1.8489990234375
1.7023681640625
1.662890625
1.4993408203124998
1.40830078125
1.20849609375
1.1698242187499999
1.2286376953125
1.32451171875
1.3994384765624999
1.5082031249999999
1.577490234375
1.6072998046875
1.5968261718749999
1.554931640625
1.5766845703124999
1.529150390625
1.5323730468749999
1.5670166015625
1.5686279296874999
1.1214843749999999
1.3100097656249998
1.380908203125
1.4606689453125
1.61455078125
1.6951171875
1.9754882812499999
2.0979492187499997
1.9215087890625
1.7208984374999998
1.6137451171875
1.5645996093749999
1.6129394531249999
1.5992431640625
1.5323730468749999
1.5162597656249999
1.5017578125
1.5154541015624998
1.558154296875
1.5404296874999999
1.55009765625
1.9569580078125
1.8473876953125
1.7571533203124998
1.6459716796875
1.5758789062499998
1.4832275390624998
1.300341796875
1.155322265625
1.216552734375
1.32451171875
1.413134765625
1.496923828125
1.4945068359375
1.5637939453124998
1.5831298828125
1.538818359375
1.571044921875
1.5460693359375
1.546875
1.5315673828124998
1.5509033203125
1.1456542968749999
1.252001953125
1.4953124999999998
1.5315673828124998
1.5645996093749999
1.6451660156249999
1.98515625
2.05927734375
1.84013671875
1.6403320312499998
1.5984375
1.5766845703124999
1.5807128906249999
1.53076171875
1.5758789062499998
1.5146484375
1.5017578125
1.577490234375
1.5895751953125
1.49853515625
1.49853515625
1.8498046874999998
1.8683349609375
1.7128417968749998
1.6105224609375
1.5541259765625
1.4638916015624999
1.4171630859375
1.3736572265625
1.3317626953125
1.3664062499999998
1.4187744140624998
1.474365234375
1.4840332031249999
1.4864501953125
1.513037109375
1.5678222656249998
1.5605712890624999
1.538818359375
1.5541259765625
1.5807128906249999
1.606494140625
1.132763671875
1.2818115234374998
1.4042724609375
1.4767822265625
1.58232421875
1.6435546875
1.7289550781249998
1.9827392578124998
1.8892822265625
1.71123046875
1.6121337890624998
1.571044921875
1.5533203125
1.577490234375
1.5597656249999998
1.5557373046874998
1.5146484375
1.561376953125
1.5355957031249998
1.5879638671874998
1.603271484375
1.7958251953125
1.8119384765625
1.76279296875
1.6733642578124999
1.6000488281249998
1.474365234375
1.332568359375
1.27294921875
1.22783203125
1.32451171875
1.3986328124999998
1.4848388671875
1.490478515625
1.5573486328125
1.5017578125
1.5331787109375
1.6161621093749998
1.60166015625
1.5678222656249998
1.5331787109375
1.5162597656249999
1.190771484375
1.1456542968749999
1.4284423828125
1.5299560546875
1.53076171875
1.6451660156249999
1.7128417968749998
1.980322265625
1.9110351562499999
1.7716552734375
1.658056640625
1.5573486328125
1.546875
1.5492919921875
1.53076171875
1.5863525390625
1.554931640625
1.4864501953125
1.5734619140625
1.5509033203125
1.5541259765625
1.5218994140625
1.8925048828125
1.7337890624999999
1.65
1.5484863281249999
1.4953124999999998
1.445361328125
1.3559326171875
1.3140380859374998
1.3623779296874998
1.448583984375
1.461474609375
1.4920898437499999
1.5839355468749998
1.5557373046874998
1.5911865234375
1.5533203125
1.5541259765625
1.5782958984375
1.5299560546875
1.545263671875
1.2858398437499998
1.1496826171874999
1.3986328124999998
1.53720703125
1.6081054687499998
1.619384765625
1.6765869140624998
1.9867675781249998
1.8900878906249998
1.7313720703125
1.6129394531249999
1.5589599609375
1.585546875
1.5839355468749998
1.5815185546875
1.4912841796874998
1.561376953125
1.577490234375
1.5726562499999999
1.5645996093749999
1.542041015625
1.574267578125
1.9311767578124999
1.783740234375
1.6290527343749999
1.5863525390625
1.4840332031249999
1.429248046875
1.2721435546875
1.2850341796875
1.36962890625
1.4219970703125
1.4880615234374999
1.5001464843749999
1.5033691406249998
1.5484863281249999
1.56298828125
1.56943359375
1.5782958984375
1.5863525390625
1.5073974609374998
1.5057861328125
1.55009765625
1.2262207031249999
1.405078125
1.4848388671875
1.5082031249999999
1.6129394531249999
1.6306640625
1.8296630859374998
1.8900878906249998
1.8046875
1.6693359374999999
1.5299560546875
1.5460693359375
1.558154296875
1.5879638671874998
1.5380126953125
1.5879638671874998
1.6000488281249998
1.5831298828125
1.590380859375
1.5202880859374999
1.56943359375
1.912646484375
1.738623046875
1.574267578125
1.5839355468749998
1.55009765625
1.4671142578124998
1.297119140625
1.2858398437499998
1.3349853515624999
1.442138671875
1.47275390625
1.47275390625
1.5218994140625
1.5194824218749998
1.5734619140625
1.5807128906249999
1.606494140625
1.5766845703124999
1.53076171875
1.5428466796875
1.5460693359375
1.1432373046875
1.3309570312499999
1.5202880859374999
1.522705078125
1.5492919921875
1.6185791015625
1.8546386718749999
1.9182861328124998
1.7732666015624998
1.6967285156249998
1.6282470703124998
1.5992431640625
1.5637939453124998
1.6185791015625
1.5927978515624999
1.56298828125
1.53076171875
1.5815185546875
1.5718505859374998
1.5412353515625
1.5355957031249998
1.812744140625
1.7257324218749999
1.6024658203125
1.5992431640625
1.545263671875
1.477587890625
1.351904296875
1.2995361328125
1.316455078125
1.3704345703124998
1.4977294921875
1.5412353515625
1.5645996093749999
1.574267578125
1.5863525390625
1.5678222656249998
1.5355957031249998
1.5267333984375
1.5726562499999999
1.5541259765625
1.506591796875
1.1367919921875
1.34384765625
1.4928955078125
1.4800048828124999
1.5444580078124999
1.6483886718749998
1.8046875
1.8981445312499998
1.799853515625
1.6371093749999999
1.6250244140624999
1.5911865234375
1.58232421875
1.5509033203125
1.58232421875
1.558154296875
1.53720703125
1.4896728515625
1.5436523437499998
1.513037109375
1.5839355468749998
1.7821289062499999
1.8393310546875
1.651611328125
1.651611328125
1.6330810546874999
1.53076171875
1.3801025390625
1.303564453125
1.3204833984375
1.400244140625
1.4622802734375
1.5082031249999999
1.5283447265624999
1.5565429687499999
1.5323730468749999
1.5509033203125
1.52109375
1.5162597656249999
1.5702392578125
1.5791015625
1.5509033203125
1.2995361328125
1.353515625
1.464697265625
1.525927734375
1.593603515625
1.6588623046875
1.6524169921874998
1.861083984375
1.8006591796875
1.6959228515625
1.593603515625
1.5315673828124998
1.5355957031249998
1.5460693359375
1.5492919921875
1.5396240234374998
1.558154296875
1.5637939453124998
1.574267578125
1.5460693359375
1.55009765625
1.7442626953125
1.82080078125
1.6910888671875
1.611328125
1.5428466796875
1.5146484375
1.448583984375
1.3204833984375
1.361572265625
1.3631835937499999
1.461474609375
1.4945068359375
1.5122314453124999
1.561376953125
1.5484863281249999
1.5267333984375
1.5517089843749998
1.55009765625
1.5927978515624999
1.5533203125
1.5509033203125
1.2963134765625
1.2802001953125
1.4840332031249999
1.522705078125
1.525927734375
1.622607421875
1.6830322265625
1.8828369140624999
1.7934082031249998
1.69189453125
1.641943359375
1.5565429687499999
1.5275390624999998
1.5380126953125
1.558154296875
1.593603515625
1.5847412109374999
1.5436523437499998
1.5887695312499999
1.529150390625
1.5162597656249999
1.5154541015624998
1.8731689453125
1.7120361328125
1.6161621093749998
1.5541259765625
1.5235107421874998
1.4590576171874998
1.3430419921874999
1.3059814453124998
1.3607666015625
1.4034667968749999
1.5082031249999999
1.49853515625
1.4832275390624998
1.5436523437499998
1.5621826171875
1.6024658203125
1.5758789062499998
1.6161621093749998
1.6169677734374999
1.590380859375
1.3059814453124998
1.2044677734375
1.442138671875
1.53720703125
1.5380126953125
1.5863525390625
1.6234130859375
1.92392578125
1.8465820312499999
1.7249267578124998
1.6040771484374998
1.5662109375
1.5444580078124999
1.5670166015625
1.5919921874999998
1.53720703125
1.538818359375
1.5162597656249999
1.4767822265625
1.5766845703124999
1.622607421875
1.5573486328125
1.851416015625
1.654833984375
1.5960205078124998
1.5702392578125
1.5541259765625
1.4711425781249998
1.3962158203125
1.3873535156249999
1.429248046875
1.4800048828124999
1.4735595703125
1.51787109375
1.5170654296875
1.5162597656249999
1.5267333984375
1.5251220703125
1.538818359375
1.5170654296875
1.53720703125
1.5678222656249998
1.5476806640624998
1.224609375
1.426025390625
1.496923828125
1.554931640625
1.619384765625
1.641943359375
1.861083984375
1.8095214843749998
1.7176757812499999
1.6242187499999998
1.5879638671874998
1.554931640625
1.5782958984375
1.5492919921875
1.5799072265624998
1.5275390624999998
1.6072998046875
1.525927734375
1.5251220703125
1.5662109375
1.5597656249999998
1.8538330078124998
1.7337890624999999
1.6830322265625
1.5525146484374999
1.5726562499999999
1.5315673828124998
1.3591552734374999
1.3067871093749999
1.3575439453125
1.4356933593749999
1.5114257812499998
1.5726562499999999
1.529150390625
1.5944091796875
1.55009765625
1.5057861328125
1.558154296875
1.56298828125
1.5565429687499999
1.5645996093749999
1.5976318359375
1.2205810546875
1.3752685546874999
1.4526123046875
1.52109375
1.577490234375
1.5895751953125
1.7200927734375
1.85302734375
1.77890625
1.6894775390624999
1.5807128906249999
1.5251220703125
1.58232421875
1.538818359375
1.5573486328125
1.5726562499999999
1.545263671875
1.538818359375
1.545263671875
1.5766845703124999
1.571044921875
1.8344970703124999
1.7507080078125
1.67900390625
1.625830078125
1.5670166015625
1.5218994140625
1.3833251953124999
1.2866455078124999
1.34384765625
1.4228027343749998
1.4848388671875
1.4880615234374999
1.5106201171875
1.5597656249999998
1.5678222656249998
1.48564453125
1.5235107421874998
1.6129394531249999
1.561376953125
1.5525146484374999
1.5645996093749999
1.2060791015624999
1.3494873046875
1.4477783203124999
1.4920898437499999
1.5525146484374999
1.62744140625
1.8602783203125
1.883642578125
1.770849609375
1.6524169921874998
1.6129394531249999
1.558154296875
1.5831298828125
1.5879638671874998
1.585546875
1.5267333984375
1.5645996093749999
1.5492919921875
1.5847412109374999
1.55009765625
1.49853515625
1.719287109375
1.79501953125
1.6773925781249999
1.585546875
1.4953124999999998
1.525927734375
1.4332763671875
1.4042724609375
1.3583496093749998
1.4187744140624998
1.416357421875
1.4558349609374999
1.5396240234374998
1.59521484375
1.5799072265624998
1.5799072265624998
1.6201904296874998
1.5533203125
1.538818359375
1.5146484375
1.5396240234374998
1.2560302734375
1.2802001953125
1.4606689453125
1.542041015625
1.5766845703124999
1.606494140625
1.6161621093749998
1.8659179687499998
1.7499023437499999
1.658056640625
1.6081054687499998
1.56298828125
1.5911865234375
1.5960205078124998
1.60166015625
1.5492919921875
1.577490234375
1.5702392578125
1.56943359375
1.554931640625
1.5509033203125
1.7370117187499998
1.8143554687499999
1.7088134765624998
1.5911865234375
1.5645996093749999
1.5509033203125
1.522705078125
1.3736572265625
1.377685546875
1.3897705078125
1.41796875
1.4622802734375
1.4783935546875
1.5186767578125
1.5428466796875
1.5782958984375
1.5976318359375
1.554931640625
1.5686279296874999
1.545263671875
1.5621826171875
1.287451171875
1.2608642578125
1.4300537109375
1.5001464843749999
1.5275390624999998
1.5702392578125
1.6645019531249998
1.9392333984374999
1.8498046874999998
1.699951171875
1.5960205078124998
1.5791015625
1.5927978515624999
1.5895751953125
1.5597656249999998
1.458251953125
1.525927734375
1.58232421875
1.5984375
1.5428466796875
1.4953124999999998
1.5404296874999999
1.8377197265624998
1.7080078125
1.6266357421875
1.590380859375
1.4816162109375
1.4373046875
1.3591552734374999
1.3591552734374999
1.4107177734374998
1.4501953125
1.5138427734375
1.46953125
1.5283447265624999
1.51787109375
1.5597656249999998
1.5533203125
1.5662109375
1.5509033203125
1.5484863281249999
1.5621826171875
1.3817138671875
1.281005859375
1.4759765624999999
1.4638916015624999
1.5428466796875
1.5460693359375
1.5944091796875
1.8385253906249999
1.8457763671874998
1.738623046875
1.6475830078125
1.5919921874999998
1.590380859375
1.5444580078124999
1.5686279296874999
1.5726562499999999
1.5782958984375
1.5815185546875
1.5476806640624998
1.5170654296875
1.5283447265624999
1.529150390625
1.880419921875
1.7152587890625
1.6209960937499999
1.5984375
1.5815185546875
1.5073974609374998
1.432470703125
1.3470703124999999
1.3551269531249999
1.3946044921874998
1.4687255859375
1.5106201171875
1.5243164062499999
1.5122314453124999
1.5194824218749998
1.5517089843749998
1.538818359375
1.6024658203125
1.5492919921875
1.5404296874999999
1.5718505859374998
1.2318603515625
1.4437499999999999
1.5364013671874999
1.558154296875
1.58232421875
1.6403320312499998
1.8409423828125
1.8336914062499998
1.69189453125
1.5919921874999998
1.5557373046874998
1.5525146484374999
1.5114257812499998
1.5275390624999998
1.554931640625
1.5565429687499999
1.5202880859374999
1.587158203125
1.5758789062499998
1.6185791015625
1.5944091796875
1.8618896484374998
1.7587646484375
1.651611328125
1.5170654296875
1.496923828125
1.4880615234374999
1.397021484375
1.3462646484374998
1.3728515625
1.43408203125
1.554931640625
1.5194824218749998
1.4953124999999998
1.4888671875
1.558154296875
1.56298828125
1.574267578125
1.5138427734375
1.5839355468749998
1.585546875
1.5122314453124999
1.1835205078125
1.3253173828125
1.5009521484375
1.593603515625
1.6000488281249998
1.5557373046874998
1.7732666015624998
1.843359375
1.7555419921875
1.6620849609375
1.5927978515624999
1.5839355468749998
1.590380859375
1.5968261718749999
1.6411376953124999
1.6161621093749998
1.4977294921875
1.4800048828124999
1.4381103515625
1.506591796875
1.52109375
1.812744140625
1.8280517578125
1.69833984375
1.5984375
1.5670166015625
1.4953124999999998
1.3712402343749999
1.380908203125
1.3607666015625
1.4236083984374999
1.4671142578124998
1.5082031249999999
1.5154541015624998
1.533984375
1.5364013671874999
1.5678222656249998
1.5573486328125
1.5944091796875
1.5992431640625
1.5557373046874998
1.5186767578125
1.1883544921875
1.3792968749999999
1.4759765624999999
1.5218994140625
1.5654052734375
1.5831298828125
1.6201904296874998
1.8312744140625
1.703173828125
1.6282470703124998
1.64677734375
1.62744140625
1.6008544921874999
1.5186767578125
1.5557373046874998
1.542041015625
1.5573486328125
1.5654052734375
1.5509033203125
1.5275390624999998
1.5347900390625
1.7458740234374999
1.8103271484374999
1.6540283203125
1.5831298828125
1.587158203125
1.5605712890624999
1.4244140625
1.3873535156249999
1.36962890625
1.458251953125
1.474365234375
1.545263671875
1.529150390625
1.5460693359375
1.5218994140625
1.513037109375
1.5218994140625
1.5001464843749999
1.546875
1.5484863281249999
1.5734619140625
1.3083984375
1.35673828125
1.5114257812499998
1.5057861328125
1.5090087890625
1.6161621093749998
1.6483886718749998
1.8755859375
1.7289550781249998
1.63388671875
1.5911865234375
1.56298828125
1.5654052734375
1.56298828125
1.58232421875
1.5654052734375
1.5476806640624998
1.5678222656249998
1.60166015625
1.6056884765625
1.58232421875
1.6612792968749999
1.7426513671875
1.6346923828125
1.606494140625
1.571044921875
1.5750732421875
1.48564453125
1.3551269531249999
1.3664062499999998
1.397021484375
1.4437499999999999
1.5138427734375
1.5082031249999999
1.4880615234374999
1.5412353515625
1.5517089843749998
1.5436523437499998
1.5968261718749999
1.546875
1.5444580078124999
1.59521484375
1.345458984375
1.3261230468749998
1.4767822265625
1.5114257812499998
1.522705078125
1.6185791015625
1.625830078125
1.844970703125
1.7861572265624999
1.6725585937499998
1.6306640625
1.561376953125
1.53720703125
1.5315673828124998
1.5678222656249998
1.6000488281249998
1.561376953125
1.6008544921874999
1.53720703125
1.5702392578125
1.5637939453124998
