1.5492919921875
1.5662109375
1.7136474609374999
1.635498046875
1.5992431640625
1.5976318359375
1.5541259765625
1.4961181640624999
1.4364990234375
1.40185546875
1.4477783203124999
1.4735595703125
1.5275390624999998
1.5654052734375
1.5637939453124998
1.5323730468749999
1.5565429687499999
1.5396240234374998
1.5025634765625
1.5533203125
1.5726562499999999
1.53720703125
1.558154296875
1.3527099609375
1.4622802734375
1.49853515625
1.5412353515625
1.6056884765625
1.625830078125
1.8199951171875
1.735400390625
1.6209960937499999
1.5927978515624999
1.5726562499999999
1.5541259765625
1.538818359375
1.5460693359375
1.5476806640624998
1.5533203125
1.5637939453124998
1.5968261718749999
1.5573486328125
1.56298828125
1.56298828125
1.767626953125
1.587158203125
1.5791015625
1.609716796875
1.5799072265624998
1.5073974609374998
1.4107177734374998
1.4284423828125
1.4219970703125
1.509814453125
1.4993408203124998
1.5146484375
1.55009765625
1.5404296874999999
1.525927734375
1.5686279296874999
1.538818359375
1.5186767578125
1.5831298828125
1.603271484375
1.5194824218749998
1.3204833984375
1.4638916015624999
1.5323730468749999
1.5428466796875
1.5404296874999999
1.5484863281249999
1.791796875
1.7442626953125
1.6346923828125
1.5839355468749998
1.58232421875
1.5726562499999999
1.5662109375
1.5726562499999999
1.56943359375
1.5992431640625
1.6105224609375
1.5984375
1.5484863281249999
1.533984375
1.4896728515625
1.754736328125
1.687060546875
1.6346923828125
1.5992431640625
1.53720703125
1.5235107421874998
1.4348876953124998
1.4276367187499999
1.4107177734374998
1.45341796875
1.5073974609374998
1.522705078125
1.5025634765625
1.513037109375
1.5323730468749999
1.5766845703124999
1.5589599609375
1.5565429687499999
1.50498046875
1.5202880859374999
1.5678222656249998
1.3527099609375
1.4348876953124998
1.4953124999999998
1.51787109375
1.5428466796875
1.5968261718749999
1.7168701171874998
1.7200927734375
1.6886718749999998
1.6081054687499998
1.6040771484374998
1.56943359375
1.59521484375
1.56943359375
1.55009765625
1.56298828125
1.5347900390625
1.5782958984375
1.6105224609375
1.5557373046874998
1.5847412109374999
1.71123046875
1.687060546875
1.6040771484374998
1.5839355468749998
1.5662109375
1.5476806640624998
1.4687255859375
1.42119140625
1.4364990234375
1.4236083984374999
1.4606689453125
1.4912841796874998
1.5645996093749999
1.5573486328125
1.5460693359375
1.5887695312499999
1.5702392578125
1.4759765624999999
1.4848388671875
1.53720703125
1.5758789062499998
1.319677734375
1.4187744140624998
1.493701171875
1.5621826171875
1.5476806640624998
1.5605712890624999
1.6435546875
1.7700439453124999
1.6935058593749999
1.6379150390625
1.5839355468749998
1.5637939453124998
1.5686279296874999
1.5686279296874999
1.5750732421875
1.5621826171875
1.5565429687499999
1.5492919921875
1.5267333984375
1.5299560546875
1.546875
1.6951171875
1.706396484375
1.6298583984375
1.6379150390625
1.5984375
1.5396240234374998
1.4510009765624998
1.4284423828125
1.4445556640625
1.4510009765624998
1.4558349609374999
1.5114257812499998
1.525927734375
1.5605712890624999
1.5637939453124998
1.5436523437499998
1.5380126953125
1.4977294921875
1.5251220703125
1.5605712890624999
1.5557373046874998
1.3712402343749999
1.3865478515624998
1.4880615234374999
1.513037109375
1.5541259765625
1.5702392578125
1.6185791015625
1.7813232421874998
1.7289550781249998
1.6620849609375
1.5654052734375
1.585546875
1.590380859375
1.5347900390625
1.55009765625
1.5734619140625
1.5565429687499999
1.5484863281249999
1.558154296875
1.5605712890624999
1.5815185546875
1.60166015625
1.719287109375
1.6363037109374998
1.5984375
1.6137451171875
1.546875
1.4872558593749998
1.4147460937499998
1.3921875
1.4373046875
1.493701171875
1.482421875
1.5009521484375
1.546875
1.538818359375
1.5073974609374998
1.5412353515625
1.5847412109374999
1.5734619140625
1.545263671875
1.496923828125
1.4155517578124999
1.3905761718749998
1.4630859374999998
1.509814453125
1.53720703125
1.51787109375
1.6105224609375
1.786962890625
1.7764892578125
1.7442626953125
1.5911865234375
1.5589599609375
1.5404296874999999
1.5492919921875
1.5807128906249999
1.5976318359375
1.58232421875
1.5734619140625
1.5517089843749998
1.509814453125
1.5251220703125
1.5525146484374999
1.751513671875
1.6379150390625
1.6234130859375
1.5662109375
1.5347900390625
1.4912841796874998
1.458251953125
1.5194824218749998
1.4888671875
1.5090087890625
1.506591796875
1.5218994140625
1.5090087890625
1.5218994140625
1.5597656249999998
1.5605712890624999
1.561376953125
1.6089111328124999
1.5154541015624998
1.5154541015624998
1.5807128906249999
1.3575439453125
1.493701171875
1.5146484375
1.5347900390625
1.5186767578125
1.5484863281249999
1.7362060546875
1.6959228515625
1.62744140625
1.5944091796875
1.5992431640625
1.5726562499999999
1.6048828124999999
1.5895751953125
1.5170654296875
1.5396240234374998
1.5355957031249998
1.5235107421874998
1.5557373046874998
1.56943359375
1.5791015625
1.7764892578125
1.6798095703125
1.603271484375
1.593603515625
1.5323730468749999
1.46953125
1.4526123046875
1.4542236328125
1.4606689453125
1.4920898437499999
1.4791992187499998
1.525927734375
1.5766845703124999
1.546875
1.53076171875
1.5275390624999998
1.5444580078124999
1.5162597656249999
1.5404296874999999
1.6024658203125
1.5734619140625
1.3510986328124999
1.46630859375
1.4759765624999999
1.4703369140625
1.4558349609374999
1.5766845703124999
1.7370117187499998
1.767626953125
1.6346923828125
1.5960205078124998
1.611328125
1.5887695312499999
1.5573486328125
1.5557373046874998
1.5863525390625
1.5807128906249999
1.5927978515624999
1.5726562499999999
1.5202880859374999
1.5492919921875
1.5557373046874998
1.751513671875
1.67900390625
1.619384765625
1.5799072265624998
1.56298828125
1.5315673828124998
1.4598632812499999
1.3994384765624999
1.445361328125
1.4977294921875
1.522705078125
1.4928955078125
1.4961181640624999
1.5597656249999998
1.53076171875
1.5162597656249999
1.538818359375
1.56298828125
1.5509033203125
1.574267578125
1.5412353515625
1.3108154296874999
1.4469726562499998
1.5090087890625
1.5347900390625
1.5525146484374999
1.5662109375
1.7249267578124998
1.7450683593749998
1.6443603515624998
1.5887695312499999
1.6048828124999999
1.5750732421875
1.5734619140625
1.5766845703124999
1.577490234375
1.5347900390625
1.5597656249999998
1.5662109375
1.5887695312499999
1.5887695312499999
1.5557373046874998
1.7370117187499998
1.754736328125
1.5686279296874999
1.5436523437499998
1.56943359375
1.5194824218749998
1.4719482421874999
1.445361328125
1.4445556640625
1.4735595703125
1.46953125
1.509814453125
1.493701171875
1.52109375
1.5476806640624998
1.5654052734375
1.5670166015625
1.545263671875
1.5831298828125
1.5678222656249998
1.5436523437499998
1.335791015625
1.4244140625
1.5122314453124999
1.5726562499999999
1.5831298828125
1.5984375
1.6540283203125
1.7289550781249998
1.6395263671875
1.5911865234375
1.53720703125
1.5605712890624999
1.5758789062499998
1.611328125
1.56943359375
1.5766845703124999
1.5637939453124998
1.542041015625
1.5114257812499998
1.5533203125
1.5758789062499998
1.6967285156249998
1.703173828125
1.6209960937499999
1.5960205078124998
1.5460693359375
1.5557373046874998
1.4590576171874998
1.416357421875
1.4373046875
1.4638916015624999
1.4840332031249999
1.513037109375
1.542041015625
1.5758789062499998
1.5476806640624998
1.5202880859374999
1.53076171875
1.5460693359375
1.5404296874999999
1.5484863281249999
1.5170654296875
1.4107177734374998
1.3704345703124998
1.4993408203124998
1.5444580078124999
1.5436523437499998
1.574267578125
1.58232421875
1.7821289062499999
1.7023681640625
1.6395263671875
1.625830078125
1.5992431640625
1.5541259765625
1.5887695312499999
1.593603515625
1.558154296875
1.5492919921875
1.525927734375
1.5557373046874998
1.5355957031249998
1.53720703125
1.546875
1.7490966796874998
1.6371093749999999
1.59521484375
1.6024658203125
1.5436523437499998
1.55009765625
1.5243164062499999
1.4115234374999999
1.4155517578124999
1.4542236328125
1.490478515625
1.5009521484375
1.5323730468749999
1.5702392578125
1.5662109375
1.554931640625
1.571044921875
1.554931640625
1.5380126953125
1.5162597656249999
1.340625
1.3946044921874998
1.5251220703125
1.5041748046874999
1.5460693359375
1.5944091796875
1.606494140625
1.7740722656249999
1.6806152343749998
1.61455078125
1.6435546875
1.6129394531249999
1.5863525390625
1.558154296875
1.5533203125
1.558154296875
1.5323730468749999
1.533984375
1.5275390624999998
1.5476806640624998
1.5637939453124998
1.585546875
1.796630859375
1.606494140625
1.6306640625
1.6040771484374998
1.5146484375
1.522705078125
1.4558349609374999
1.4316650390624999
1.4558349609374999
1.493701171875
1.5283447265624999
1.5162597656249999
1.5170654296875
1.5082031249999999
1.5444580078124999
1.5517089843749998
1.5597656249999998
1.577490234375
1.53720703125
1.5565429687499999
1.5243164062499999
1.3398193359375
1.5162597656249999
1.542041015625
1.5331787109375
1.5887695312499999
1.5670166015625
1.74345703125
1.683837890625
1.6363037109374998
1.546875
1.5670166015625
1.529150390625
1.5718505859374998
1.571044921875
1.5557373046874998
1.5992431640625
1.5525146484374999
1.5476806640624998
1.5517089843749998
1.5597656249999998
1.5782958984375
1.7595703125
1.6556396484375
1.625830078125
1.5637939453124998
1.5670166015625
1.5364013671874999
1.4236083984374999
1.4010498046875
1.4550292968749998
1.5090087890625
1.5202880859374999
1.5275390624999998
1.5412353515625
1.5782958984375
1.5662109375
1.5662109375
1.4888671875
1.4880615234374999
1.5323730468749999
1.5895751953125
1.5758789062499998
1.2987304687499999
1.4461669921875
1.4526123046875
1.4993408203124998
1.5428466796875
1.5919921874999998
1.719287109375
1.7531249999999998
1.6725585937499998
1.6346923828125
1.590380859375
1.56943359375
1.5654052734375
1.5645996093749999
1.5541259765625
1.5927978515624999
1.55009765625
1.542041015625
1.5847412109374999
1.5557373046874998
1.5678222656249998
1.7370117187499998
1.6540283203125
1.6177734375
1.6129394531249999
1.5444580078124999
1.53076171875
1.4123291015625
1.4203857421875
1.4244140625
1.4437499999999999
1.4888671875
1.5267333984375
1.5041748046874999
1.5541259765625
1.5267333984375
1.5138427734375
1.5364013671874999
1.6137451171875
1.5758789062499998
1.5541259765625
1.5476806640624998
1.3204833984375
1.4042724609375
1.4872558593749998
1.525927734375
1.538818359375
1.6048828124999999
1.7136474609374999
1.7619873046874999
1.6491943359374999
1.5831298828125
1.5927978515624999
1.6056884765625
1.5557373046874998
1.56298828125
1.58232421875
1.574267578125
1.542041015625
1.5347900390625
1.545263671875
1.5750732421875
1.585546875
1.7345947265625
1.7297607421874999
1.603271484375
1.6056884765625
1.545263671875
1.5057861328125
1.44052734375
1.4284423828125
1.432470703125
1.46953125
1.4622802734375
1.47275390625
1.5218994140625
1.5428466796875
1.5605712890624999
1.533984375
1.542041015625
1.5412353515625
1.585546875
1.538818359375
1.5436523437499998
1.3430419921874999
1.4236083984374999
1.5057861328125
1.5444580078124999
1.5782958984375
1.5799072265624998
1.609716796875
1.8014648437499998
1.7055908203124999
1.6379150390625
1.5815185546875
1.5678222656249998
1.5670166015625
1.5396240234374998
1.5492919921875
1.5976318359375
1.5597656249999998
1.533984375
1.52109375
1.5114257812499998
1.5347900390625
1.714453125
1.690283203125
1.59521484375
1.5726562499999999
1.6105224609375
1.5766845703124999
1.533984375
1.4493896484375
1.4558349609374999
1.4735595703125
1.5082031249999999
1.4759765624999999
1.4542236328125
1.5218994140625
1.5283447265624999
1.5509033203125
1.5597656249999998
1.5364013671874999
1.5541259765625
1.5750732421875
1.5517089843749998
1.351904296875
1.3728515625
1.5122314453124999
1.5323730468749999
1.5525146484374999
1.577490234375
1.5637939453124998
1.7072021484375
1.6693359374999999
1.6588623046875
1.6427490234375
1.6048828124999999
1.5758789062499998
1.5517089843749998
1.5686279296874999
1.56943359375
1.53076171875
1.5323730468749999
1.5412353515625
1.5637939453124998
1.5702392578125
1.5678222656249998
1.7289550781249998
1.6161621093749998
1.6137451171875
1.5734619140625
1.5533203125
1.5146484375
1.4284423828125
1.4373046875
1.4679199218749999
1.4888671875
1.4751708984374998
1.49853515625
1.5170654296875
1.5444580078124999
1.5243164062499999
1.5404296874999999
1.5750732421875
1.554931640625
1.545263671875
1.554931640625
1.3857421875
1.3712402343749999
1.5146484375
1.5444580078124999
1.5492919921875
1.5815185546875
1.5911865234375
1.7813232421874998
1.719287109375
1.6266357421875
1.5573486328125
1.5662109375
1.554931640625
1.5484863281249999
1.5436523437499998
1.55009765625
1.5645996093749999
1.561376953125
1.5831298828125
1.558154296875
1.5678222656249998
1.5605712890624999
1.7523193359375
1.65
1.585546875
1.5839355468749998
1.5911865234375
1.4896728515625
1.4066894531249998
1.405078125
1.456640625
1.509814453125
1.4872558593749998
1.4993408203124998
1.529150390625
1.522705078125
1.4888671875
1.5565429687499999
1.546875
1.5678222656249998
1.5758789062499998
1.5734619140625
1.5831298828125
1.3599609375
1.4759765624999999
1.5106201171875
1.4759765624999999
1.53720703125
1.5678222656249998
1.740234375
1.7297607421874999
1.667724609375
1.593603515625
1.593603515625
1.5734619140625
1.5476806640624998
1.58232421875
1.5436523437499998
1.554931640625
1.5428466796875
1.5444580078124999
1.56943359375
1.5476806640624998
1.5815185546875
1.7716552734375
1.699951171875
1.59521484375
1.5444580078124999
1.5428466796875
1.506591796875
1.426025390625
1.3954101562499999
1.4276367187499999
1.4888671875
1.5428466796875
1.5492919921875
1.5444580078124999
1.5170654296875
1.5436523437499998
1.5396240234374998
1.5863525390625
1.574267578125
1.558154296875
1.542041015625
1.5154541015624998
1.287451171875
1.4219970703125
1.5323730468749999
1.5645996093749999
1.59521484375
1.6209960937499999
1.7499023437499999
1.754736328125
1.66611328125
1.590380859375
1.5726562499999999
1.5444580078124999
1.5847412109374999
1.5726562499999999
1.574267578125
1.5517089843749998
1.545263671875
1.5565429687499999
1.5637939453124998
1.546875
1.5686279296874999
1.7531249999999998
1.6749755859375
1.6282470703124998
1.5726562499999999
1.5444580078124999
1.5251220703125
1.4228027343749998
1.409912109375
1.4026611328124998
1.456640625
1.4920898437499999
1.4832275390624998
1.480810546875
1.5444580078124999
1.5404296874999999
1.5380126953125
1.56943359375
1.587158203125
1.6008544921874999
1.6322753906249998
1.638720703125
1.37607421875
1.4244140625
1.4679199218749999
1.49853515625
1.529150390625
1.561376953125
1.651611328125
1.72734375
1.6459716796875
1.587158203125
1.587158203125
1.55009765625
1.5396240234374998
1.5541259765625
1.5847412109374999
1.5831298828125
1.6306640625
1.5533203125
1.5597656249999998
1.5509033203125
1.5541259765625
1.770849609375
1.7378173828124999
1.6250244140624999
1.5758789062499998
1.5315673828124998
1.506591796875
1.4332763671875
1.4155517578124999
1.40830078125
1.4389160156249998
1.496923828125
1.5283447265624999
1.506591796875
1.5347900390625
1.5404296874999999
1.529150390625
1.5170654296875
1.50498046875
1.5799072265624998
1.5847412109374999
1.5791015625
1.3929931640625
1.4469726562499998
1.5146484375
1.5267333984375
1.554931640625
1.533984375
1.5831298828125
1.7772949218749998
1.6653076171874999
1.5879638671874998
1.5589599609375
1.5758789062499998
1.5839355468749998
1.5492919921875
1.5557373046874998
1.6000488281249998
1.603271484375
1.5686279296874999
1.5331787109375
1.5718505859374998
1.545263671875
1.6927001953124998
1.7015624999999999
1.6403320312499998
1.6298583984375
1.587158203125
1.5186767578125
1.4840332031249999
1.4091064453125
1.41796875
1.4518066406249999
1.4598632812499999
1.5041748046874999
1.5323730468749999
1.5162597656249999
1.585546875
1.5436523437499998
1.5686279296874999
1.5791015625
1.5662109375
1.5380126953125
1.5645996093749999
1.3801025390625
1.3510986328124999
1.4961181640624999
1.4912841796874998
1.4888671875
1.5235107421874998
1.5533203125
1.76279296875
1.72734375
1.6153564453125
1.585546875
1.6443603515624998
1.6443603515624998
1.5839355468749998
1.5847412109374999
1.5565429687499999
1.5090087890625
1.5170654296875
1.5557373046874998
1.5412353515625
1.5476806640624998
1.5662109375
1.7901855468749999
1.7168701171874998
1.6822265625
1.619384765625
1.5218994140625
1.4542236328125
1.3664062499999998
1.380908203125
1.4139404296875
1.4590576171874998
1.4928955078125
1.5154541015624998
1.5460693359375
1.529150390625
1.5597656249999998
1.6000488281249998
1.603271484375
1.5678222656249998
1.5484863281249999
1.5364013671874999
1.513037109375
1.3607666015625
1.4896728515625
1.5154541015624998
1.4816162109375
1.5436523437499998
1.6209960937499999
1.815966796875
1.722509765625
1.6806152343749998
1.6177734375
1.5766845703124999
1.5662109375
1.5960205078124998
1.6024658203125
1.542041015625
1.4920898437499999
1.490478515625
1.5267333984375
1.5331787109375
1.4872558593749998
1.5557373046874998
1.7982421874999999
1.7217041015624999
1.6564453124999998
1.585546875
1.5009521484375
1.4598632812499999
1.4034667968749999
1.4187744140624998
1.4074951171874999
1.4348876953124998
1.5090087890625
1.4800048828124999
1.5154541015624998
1.5492919921875
1.545263671875
1.587158203125
1.5807128906249999
1.5678222656249998
1.577490234375
1.6000488281249998
1.6008544921874999
1.3341796874999998
1.4800048828124999
1.4896728515625
1.480810546875
1.5315673828124998
1.5428466796875
1.674169921875
1.7039794921875
1.67578125
1.6653076171874999
1.6298583984375
1.6314697265625
1.6048828124999999
1.6105224609375
1.5597656249999998
1.5807128906249999
1.5428466796875
1.5299560546875
1.5082031249999999
1.5162597656249999
1.5702392578125
1.7684326171875
1.7096191406249999
1.6306640625
1.558154296875
1.5218994140625
1.525927734375
1.429248046875
1.4228027343749998
1.4276367187499999
1.4735595703125
1.490478515625
1.4679199218749999
1.509814453125
1.554931640625
1.5533203125
1.5033691406249998
1.5525146484374999
1.5750732421875
1.529150390625
1.5138427734375
1.5428466796875
1.2431396484375
1.40185546875
1.4840332031249999
1.5041748046874999
1.5976318359375
1.6008544921874999
1.8046875
1.8071044921875
1.7611816406249998
1.64677734375
1.6169677734374999
1.5436523437499998
1.554931640625
1.5686279296874999
1.5484863281249999
1.5662109375
1.577490234375
1.56943359375
1.5533203125
1.538818359375
1.5517089843749998
1.8175781249999998
1.7684326171875
1.6822265625
1.6282470703124998
1.574267578125
1.593603515625
1.458251953125
1.3583496093749998
1.2890625
1.3422363281249998
1.3833251953124999
1.3986328124999998
1.4703369140625
1.5436523437499998
1.533984375
1.5138427734375
1.5863525390625
1.5355957031249998
1.5565429687499999
1.577490234375
1.5895751953125
1.2173583984375
1.2495849609374998
1.42119140625
1.405078125
1.5637939453124998
1.6177734375
1.7176757812499999
1.9110351562499999
1.8602783203125
1.7337890624999999
1.6185791015625
1.5275390624999998
1.5637939453124998
1.5057861328125
1.5162597656249999
1.5122314453124999
1.5315673828124998
1.4953124999999998
1.5073974609374998
1.5807128906249999
1.5831298828125
1.9384277343749998
1.993212890625
1.851416015625
1.6491943359374999
1.554931640625
1.42119140625
1.3220947265624998
1.252001953125
1.2141357421874999
1.2665039062499999
1.3986328124999998
1.5001464843749999
1.53720703125
1.587158203125
1.558154296875
1.5315673828124998
1.5726562499999999
1.5589599609375
1.5799072265624998
1.5726562499999999
1.561376953125
1.1899658203124999
1.1537109374999999
1.3478759765625
1.4461669921875
1.4977294921875
1.58232421875
1.7507080078125
2.051220703125
1.9400390625
1.8167724609375
1.7080078125
1.55009765625
1.533984375
1.5090087890625
1.4920898437499999
1.5621826171875
1.5517089843749998
1.5476806640624998
1.5879638671874998
1.6056884765625
1.5927978515624999
1.6725585937499998
1.9070068359374999
1.77890625
1.6943115234375
1.5299560546875
1.5041748046874999
1.413134765625
1.2189697265625
1.213330078125
1.1964111328125
1.3212890625
1.458251953125
1.4993408203124998
1.5517089843749998
1.56298828125
1.506591796875
1.49853515625
1.5654052734375
1.6169677734374999
1.5791015625
1.5621826171875
1.126318359375
1.1464599609375
1.3309570312499999
1.47275390625
1.53076171875
1.5944091796875
1.7724609375
2.0737792968749997
2.047998046875
1.9037841796875
1.740234375
1.6048828124999999
1.4735595703125
1.3913818359374999
1.4461669921875
1.4308593749999998
1.4655029296875
1.493701171875
1.4872558593749998
1.5315673828124998
1.5589599609375
1.609716796875
1.9867675781249998
1.920703125
1.7797119140625
1.6000488281249998
1.4219970703125
1.3067871093749999
1.1416259765624999
1.0352783203125
1.0086914062499999
1.1287353515625
1.2576416015624998
1.3019531249999998
1.3688232421875
1.4284423828125
1.3510986328124999
1.4461669921875
1.4381103515625
1.4477783203124999
1.40830078125
1.4042724609375
1.2898681640624998
0.797607421875
0.920068359375
1.0078857421875
1.1996337890625
1.3784912109374998
1.5750732421875
2.1986572265624997
2.6304931640625
2.6659423828124997
2.5015869140625
1.7853515624999998
1.7289550781249998
1.8441650390625
1.8892822265625
1.796630859375
1.79501953125
1.7982421874999999
1.767626953125
1.7184814453125
1.6669189453125
1.641943359375
2.321923828125
2.599072265625
2.8053222656249996
2.9503417968749996
2.9455078125
2.96484375
2.6498291015624997
2.2494140625
1.896533203125
1.6234130859375
1.3801025390625
1.2995361328125
1.084423828125
0.9273193359374999
0.84111328125
0.784716796875
0.7395996093749999
0.6832031249999999
0.6735351562499999
0.6646728515625
0.6018310546875
0.040283203125
0.041088867187499996
0.040283203125
0.038671874999999994
0.041088867187499996
0.0394775390625
0.5671875
0.9966064453125
1.3317626953125
1.4429443359374998
1.5347900390625
1.7047851562499998
1.812744140625
1.8361083984375
1.8264404296874999
1.7821289062499999
1.7958251953125
1.828857421875
1.8602783203125
1.8506103515624999
1.8385253906249999
2.392822265625
2.7134765625
2.9269775390625
3.01962890625
3.0478271484375
3.0349365234374996
2.7787353515624997
2.39765625
2.1454833984375
1.93681640625
1.69833984375
1.5017578125
1.3510986328124999
1.2318603515625
1.155322265625
1.029638671875
0.9724365234375
0.990966796875
0.9571289062499999
0.98291015625
0.9635742187499999
0.1297119140625
0.043505859375
0.040283203125
0.040283203125
0.04189453125
0.038671874999999994
0.4447265625
1.0167480468749999
1.2963134765625
1.47275390625
1.65966796875
1.8135498046874998
1.9537353515625
2.0439697265625
2.0794189453125
2.0633056640625
2.08505859375
2.0874755859375
2.04638671875
2.035107421875
2.0794189453125
2.5273681640624996
2.802099609375
3.0421875
3.0470214843749996
3.0478271484375
3.0446044921874997
2.7835693359375
2.4846679687499997
2.096337890625
1.8151611328125
1.6000488281249998
1.3817138671875
1.24072265625
1.2141357421874999
1.0352783203125
0.9611572265624999
0.897509765625
0.926513671875
0.878173828125
0.9095947265625
0.7919677734374999
0.20061035156249998
0.038671874999999994
0.04189453125
0.041088867187499996
0.040283203125
0.038671874999999994
0.2747314453125
0.7613525390625
1.1255126953124999
1.297119140625
1.482421875
1.5807128906249999
1.754736328125
1.8071044921875
1.915869140625
1.9231201171874999
1.980322265625
2.044775390625
1.9754882812499999
1.9907958984374998
1.9924072265625
2.2421630859375
2.8141845703125
2.905224609375
3.0478271484375
3.0462158203125
2.9962646484374997
2.9447021484375
2.5579833984375
2.209130859375
1.9924072265625
1.7684326171875
1.52109375
1.3664062499999998
1.2270263671875
1.0868408203125
0.9692138671874999
0.9434326171874999
0.9692138671874999
0.881396484375
0.8999267578125
0.90556640625
0.40605468749999996
0.04189453125
0.041088867187499996
0.041088867187499996
0.041088867187499996
0.040283203125
0.040283203125
0.7226806640625
1.0014404296875
1.2608642578125
1.513037109375
1.6161621093749998
1.6927001953124998
1.7337890624999999
1.8586669921874999
1.9787109374999998
1.948095703125
1.9432617187499999
1.993212890625
2.028662109375
2.015771484375
2.1333984375
2.698974609375
2.9422851562499996
3.0470214843749996
3.0446044921874997
3.04541015625
2.9076416015624997
2.63935546875
2.3477050781249997
1.9070068359374999
1.72734375
1.6242187499999998
1.4800048828124999
1.2608642578125
1.1593505859375
1.071533203125
0.9676025390624999
1.013525390625
0.9966064453125
0.9861328125
0.97646484375
0.6936767578124999
0.08137207031249999
0.0378662109375
0.040283203125
0.0378662109375
0.040283203125
0.0652587890625
0.6405029296875
0.9861328125
1.327734375
1.4630859374999998
1.6081054687499998
1.7249267578124998
1.8183837890624999
1.8876708984375
2.0149658203125
2.015771484375
2.0633056640625
2.128564453125
2.1084228515625
2.0906982421875
2.080224609375
2.7722900390625
2.9986816406249996
3.0470214843749996
3.0486328124999997
3.0478271484375
3.04541015625
2.7489257812499996
2.3396484374999997
2.0230224609375
1.7176757812499999
1.4759765624999999
1.3430419921874999
1.2528076171875
1.11826171875
1.0207763671874999
0.8854248046875
0.936181640625
0.9031494140624999
0.8805908203124999
0.8523925781249999
0.6485595703125
0.049951171875
0.0394775390625
0.040283203125
0.041088867187499996
0.040283203125
0.0443115234375
0.7275146484374999
1.0481689453125
1.2721435546875
1.461474609375
1.53720703125
1.6435546875
1.6951171875
1.8667236328124999
1.9408447265625
1.9859619140625
1.931982421875
2.0584716796875
2.0713623046875
2.09150390625
2.0689453125
2.6611083984375
3.0252685546875
3.04541015625
3.04541015625
3.0470214843749996
3.0462158203125
2.856884765625
2.5386474609375
2.093115234375
1.8006591796875
1.64677734375
1.5017578125
1.147265625
1.0489746093749999
0.9877441406249999
0.8709228515624999
0.8870361328124999
0.8934814453125
0.90234375
0.8983154296875
0.9450439453124999
0.2779541015625
0.041088867187499996
0.040283203125
0.041088867187499996
0.041088867187499996
0.040283203125
0.42861328125
0.8701171875
1.26328125
1.448583984375
1.619384765625
1.7458740234374999
1.8651123046875
1.9956298828124999
2.0036865234375
2.0093261718749997
2.0302734375
2.067333984375
2.1180908203124997
2.1060058593749997
2.1422607421874997
2.55234375
2.8625244140625
3.04541015625
3.0470214843749996
3.0429931640624996
3.0421875
2.9285888671875
2.537841796875
2.2171875
1.93359375
1.7080078125
1.558154296875
1.4107177734374998
1.3204833984375
1.2044677734375
1.1384033203125
1.11181640625
0.9949951171875
1.02158203125
1.068310546875
0.9933837890624999
0.346435546875
0.0362548828125
0.0394775390625
0.041088867187499996
0.0394775390625
0.040283203125
0.26022949218749997
0.7001220703125
1.045751953125
1.2592529296875
1.5106201171875
1.6959228515625
1.8071044921875
1.867529296875
1.93359375
2.126953125
2.07216796875
2.0745849609375
2.022216796875
1.998046875
1.9859619140625
2.24619140625
2.6748046875
2.9970703125
3.050244140625
3.0462158203125
3.0470214843749996
2.8778320312499996
2.6304931640625
2.312255859375
1.9593749999999999
1.7136474609374999
1.5831298828125
1.3672119140624999
1.2560302734375
1.1537109374999999
1.0239990234375
0.9740478515625
0.95068359375
0.9249023437499999
0.9385986328125
0.9369873046874999
0.4471435546875
0.040283203125
0.040283203125
0.040283203125
0.040283203125
0.040283203125
0.23928222656249998
0.7549072265625
1.094091796875
1.2979248046874998
1.4373046875
1.6000488281249998
1.6129394531249999
1.699951171875
1.7200927734375
1.9303710937499998
1.8498046874999998
1.8699462890624998
1.9698486328125
2.023828125
1.9730712890625
2.1535400390625
2.6788330078125
2.9543701171874996
3.04541015625
3.0486328124999997
3.050244140625
2.8721923828125
2.6127685546875
2.2647216796875
2.051220703125
1.7080078125
1.490478515625
1.3124267578125
1.1206787109375
1.0771728515624999
1.055419921875
1.069921875
1.03447265625
1.0578369140625
1.0409179687499999
0.98291015625
0.5583251953125
0.041088867187499996
0.040283203125
0.040283203125
0.037060546874999996
0.042700195312499994
0.045117187499999996
0.66064453125
0.958740234375
1.2705322265624999
1.4655029296875
1.6137451171875
1.6967285156249998
1.77890625
1.8377197265624998
1.9118408203125
1.9247314453125
1.9223144531249998
1.9078125
1.9625976562499998
2.0004638671875
2.0052978515624997
2.59423828125
2.8818603515624996
3.0301025390625
3.0470214843749996
3.0486328124999997
3.04541015625
2.7561767578125
2.4886962890624997
2.131787109375
1.9182861328124998
1.7499023437499999
1.5073974609374998
1.4034667968749999
1.3398193359375
1.232666015625
1.11826171875
1.09248046875
1.0610595703124999
0.990966796875
0.9708251953125
0.926513671875
0.07814941406249999
0.04189453125
0.038671874999999994
0.038671874999999994
0.0362548828125
0.043505859375
0.3875244140625
0.9257080078125
1.15693359375
1.335791015625
1.53076171875
1.6564453124999998
1.7700439453124999
1.8361083984375
1.7909912109375
1.98193359375
2.0181884765625
2.077001953125
2.0923095703125
2.0987548828125
2.03671875
2.616796875
2.8512451171874997
3.0462158203125
3.0478271484375
3.0462158203125
3.0446044921874997
2.8133789062499996
2.5168945312499997
2.1632080078125
1.835302734375
1.719287109375
1.5726562499999999
1.3551269531249999
1.123095703125
1.0328613281249999
0.9466552734375
0.8693115234375
0.928125
0.9385986328125
0.8024414062499999
0.784716796875
0.1232666015625
0.0378662109375
0.043505859375
0.040283203125
0.041088867187499996
0.041088867187499996
0.35368652343749996
0.74443359375
1.0094970703125
1.2947021484374999
1.4630859374999998
1.561376953125
1.735400390625
1.8151611328125
1.931982421875
2.01416015625
2.0415527343749997
2.047998046875
2.080224609375
2.1728759765625
2.1180908203124997
2.513671875
2.89072265625
3.0446044921874997
3.0462158203125
3.0470214843749996
3.0470214843749996
2.8149902343749997
2.599072265625
2.2260498046875
1.9956298828124999
1.76279296875
1.4590576171874998
1.2616699218749998
1.0997314453125
1.0650878906249999
1.036083984375
0.9837158203124999
0.8685058593749999
0.87978515625
0.7927734375
0.825
0.21672363281249998
0.037060546874999996
0.038671874999999994
0.038671874999999994
0.041088867187499996
0.04189453125
0.040283203125
0.781494140625
1.084423828125
1.281005859375
1.490478515625
1.6798095703125
1.8143554687499999
1.864306640625
1.9360107421875
1.993212890625
2.023828125
2.064111328125
2.1221191406249997
2.1140624999999997
2.1462890624999997
2.570068359375
2.9398681640624997
3.04541015625
3.0494384765625
3.0486328124999997
3.0429931640624996
2.9261718749999996
2.618408203125
2.2792236328124997
1.9513183593749999
1.61455078125
1.3784912109374998
1.2447509765625
1.052197265625
0.9450439453124999
0.942626953125
0.8193603515625
0.7549072265625
0.7557128906249999
0.7871337890625
0.74443359375
0.2892333984375
0.040283203125
0.041088867187499996
0.042700195312499994
0.040283203125
0.043505859375
0.038671874999999994
0.6711181640624999
0.9353759765624999
1.2608642578125
1.464697265625
1.6725585937499998
1.7845458984375
1.9569580078125
2.083447265625
2.18818359375
2.24619140625
2.2187988281249997
2.29453125
2.263916015625
2.2341064453125
2.2051025390625
2.874609375
3.0462158203125
3.0470214843749996
3.0478271484375
3.04541015625
3.043798828125
2.7972656249999996
2.286474609375
2.0165771484375
1.8119384765625
1.6290527343749999
1.353515625
1.2141357421874999
1.20849609375
1.126318359375
1.052197265625
1.013525390625
0.8628662109374999
0.929736328125
0.9063720703125
0.8467529296874999
0.04189453125
0.03544921875
0.041088867187499996
0.0394775390625
0.041088867187499996
0.040283203125
0.3665771484375
0.9176513671875
1.1706298828125
1.3712402343749999
1.625830078125
1.754736328125
1.8046875
1.9013671875
1.9343994140624998
1.9730712890625
1.9537353515625
1.94970703125
1.9779052734375
1.9746826171874998
2.0391357421875
2.6522460937499996
2.921337890625
3.0470214843749996
3.0470214843749996
3.0470214843749996
3.0421875
2.6860839843749997
2.367041015625
2.0987548828125
1.8465820312499999
1.6403320312499998
1.3704345703124998
1.1947998046875
1.0570312499999999
0.97001953125
0.9410156249999999
0.97646484375
0.9232910156249999
0.8934814453125
0.889453125
0.8660888671875
0.11279296875
0.0394775390625
0.040283203125
0.037060546874999996
0.0394775390625
0.037060546874999996
0.394775390625
0.8362792968749999
1.0505859375
1.2785888671874999
1.4332763671875
1.5654052734375
1.6346923828125
1.658056640625
1.7603759765625
1.9078125
1.9360107421875
1.931982421875
1.9916015624999999
2.0020751953125
2.015771484375
2.392822265625
2.8794433593749997
3.0486328124999997
3.0486328124999997
3.0478271484375
3.0470214843749996
2.8270751953124997
2.616796875
2.2244384765625
1.9859619140625
1.7023681640625
1.5138427734375
1.3575439453125
1.2689208984375
1.1561279296875
1.084423828125
1.0723388671875
1.0401123046875
1.044140625
1.0578369140625
1.06025390625
0.3440185546875
0.1458251953125
0.0394775390625
0.040283203125
0.042700195312499994
0.040283203125
0.040283203125
0.7476562499999999
1.0731445312499999
1.3100097656249998
1.5090087890625
1.6862548828125
1.8175781249999998
1.9110351562499999
1.998046875
2.0165771484375
2.099560546875
2.1333984375
2.1704589843749997
2.1793212890625
2.20107421875
2.5885986328125
2.9318115234374997
3.0494384765625
3.04541015625
3.0470214843749996
3.0462158203125
2.977734375
2.56201171875
2.1946289062499997
1.7958251953125
1.6201904296874998
1.4187744140624998
1.2890625
1.1214843749999999
1.11181640625
0.9901611328125
0.942626953125
0.91845703125
0.9031494140624999
0.8967041015624999
0.8765624999999999
0.3544921875
0.040283203125
0.0378662109375
0.045117187499999996
0.041088867187499996
0.0394775390625
0.0926513671875
0.768603515625
1.084423828125
1.2503906249999999
1.4550292968749998
1.574267578125
1.6886718749999998
1.8095214843749998
1.957763671875
1.9617919921875
2.023828125
2.07861328125
2.1060058593749997
2.144677734375
2.1148681640625
2.112451171875
2.79404296875
3.0478271484375
3.0470214843749996
3.0486328124999997
3.04541015625
3.0429931640624996
2.719921875
2.2856689453125
2.0294677734374997
1.8393310546875
1.6483886718749998
1.4477783203124999
1.31162109375
1.2431396484375
1.1126220703125
1.123095703125
1.1287353515625
1.0812011718749999
0.9901611328125
0.9990234375
0.9740478515625
0.0966796875
0.04189453125
0.04189453125
0.0378662109375
0.038671874999999994
0.0394775390625
0.5083740234374999
0.9958007812499999
1.16015625
1.2270263671875
1.3551269531249999
1.432470703125
1.5194824218749998
1.5863525390625
1.7217041015624999
1.7926025390625
1.8828369140624999
1.8884765625
1.8973388671875
1.9706542968749998
1.9867675781249998
2.6578857421874997
2.8593017578124997
3.0405761718749997
3.0470214843749996
3.0470214843749996
3.0470214843749996
2.7529541015624996
2.333203125
2.018994140625
1.7982421874999999
1.5355957031249998
1.3253173828125
1.173046875
1.1375976562499999
1.0014404296875
0.958740234375
0.9394042968749999
0.9152343749999999
0.8846191406249999
0.8660888671875
0.8991210937499999
0.143408203125
0.038671874999999994
0.040283203125
0.040283203125
0.04189453125
0.041088867187499996
0.43022460937499996
0.9144287109375
1.20849609375
1.3664062499999998
1.5879638671874998
1.6403320312499998
1.75634765625
1.835302734375
1.9682373046875
2.012548828125
2.093115234375
2.126953125
2.1704589843749997
2.15595703125
2.1543457031249997
2.5982666015625
2.9455078125
3.0429931640624996
3.0462158203125
3.04541015625
3.0478271484375
2.8633300781249997
2.6659423828124997
2.3009765625
1.9215087890625
1.7394287109375
1.5807128906249999
1.3962158203125
1.3784912109374998
1.2834228515625
1.2221923828124999
1.1400146484375
1.2012451171875
1.1432373046875
1.1295410156249999
1.0731445312499999
0.5115966796875
0.0845947265625
0.04189453125
0.040283203125
0.041088867187499996
0.040283203125
0.042700195312499994
0.6977050781249999
1.0143310546875
1.27939453125
1.3857421875
1.5492919921875
1.7176757812499999
1.7603759765625
1.8087158203125
1.9279541015625
1.95615234375
1.90458984375
1.9730712890625
2.0246337890625
2.1084228515625
2.2179931640625
2.856884765625
3.0357421875
3.0494384765625
3.0470214843749996
3.0470214843749996
2.9382568359374996
2.673193359375
2.1865722656249997
1.9279541015625
1.7039794921875
1.3704345703124998
1.235888671875
1.15048828125
1.0248046874999999
0.9257080078125
1.018359375
1.0852294921874999
0.9232910156249999
0.91201171875
0.9635742187499999
0.7484619140625
0.045117187499999996
0.053173828124999996
0.042700195312499994
0.0394775390625
0.04189453125
0.04189453125
0.5736328125
1.02802734375
1.21494140625
1.4389160156249998
1.6645019531249998
1.7958251953125
1.8699462890624998
2.0012695312499997
2.0939208984374997
2.1487060546875
2.180126953125
2.0987548828125
2.118896484375
2.0737792968749997
2.1825439453124997
2.8302978515625
2.9930419921875
3.0486328124999997
3.0446044921874997
3.0462158203125
3.0462158203125
2.6361328124999996
2.25263671875
1.9440673828125
1.7096191406249999
1.5106201171875
1.4034667968749999
1.2818115234374998
1.11181640625
1.06669921875
1.0030517578125
0.9643798828125
0.9861328125
0.9716308593749999
0.9490722656249999
0.837890625
0.16677246093749998
0.0443115234375
0.040283203125
0.04189453125
0.0394775390625
0.0394775390625
0.49306640625
0.871728515625
1.1537109374999999
1.413134765625
1.590380859375
1.6927001953124998
1.8151611328125
1.8618896484374998
1.8949218749999999
1.9940185546875
2.0181884765625
1.9835449218749999
2.03671875
2.03671875
2.0294677734374997
2.5789306640625
2.872998046875
3.0268798828124996
3.0470214843749996
3.0470214843749996
3.0421875
2.737646484375
2.405712890625
1.9996582031249999
1.7990478515625
1.651611328125
1.4477783203124999
1.2141357421874999
1.1464599609375
1.0401123046875
0.9257080078125
0.8701171875
0.8572265625
0.8668945312499999
0.8282226562499999
0.8677001953125
0.2425048828125
0.04189453125
0.0394775390625
0.040283203125
0.040283203125
0.041088867187499996
0.43747558593749997
0.8757568359375
1.203662109375
1.4107177734374998
1.5202880859374999
1.670947265625
1.7539306640624999
1.8264404296874999
1.8570556640625
2.0052978515624997
2.0697509765624997
2.0939208984374997
2.1382324218749997
2.131787109375
2.125341796875
2.466943359375
2.8802490234375
3.0478271484375
3.0486328124999997
3.0470214843749996
3.0486328124999997
2.876220703125
2.5491210937499997
2.1857666015625
1.8635009765625
1.6862548828125
1.4308593749999998
1.281005859375
1.1617675781249999
1.0932861328124999
0.9877441406249999
0.9482666015625
0.9385986328125
0.8644775390624999
0.910400390625
0.9176513671875
0.3665771484375
0.053173828124999996
0.0394775390625
0.040283203125
0.041088867187499996
0.040283203125
0.14018554687499998
0.8016357421875
1.077978515625
1.276171875
1.4364990234375
1.59521484375
1.6967285156249998
1.7700439453124999
1.8014648437499998
1.957763671875
1.8900878906249998
1.9674316406249999
2.0230224609375
2.015771484375
1.9996582031249999
2.27841796875
2.745703125
2.9817626953125
3.0470214843749996
3.04541015625
3.0470214843749996
2.9495361328125
2.7191162109375
2.37509765625
2.0657226562499997
1.851416015625
1.6056884765625
1.3817138671875
1.1609619140625
1.1214843749999999
1.12470703125
0.966796875
0.9305419921875
0.8749511718749999
0.95390625
0.9490722656249999
0.526904296875
0.14421386718749998
0.04189453125
0.0443115234375
0.040283203125
0.04189453125
0.0443115234375
0.5687988281249999
0.9087890624999999
1.224609375
1.4042724609375
1.6089111328124999
1.6991455078125
1.786962890625
1.9029785156249999
2.0093261718749997
2.0334960937499997
2.1164794921875
2.1889892578125
2.1785156249999997
2.1342041015624997
2.0979492187499997
2.69736328125
3.0091552734375
3.0470214843749996
3.0470214843749996
3.0486328124999997
2.9326171875
2.6949462890625
2.16884765625
1.941650390625
1.72734375
1.5315673828124998
1.3639892578125
1.2028564453125
1.1045654296875
1.0787841796875
0.9345703125
0.8886474609374999
0.9216796875
0.8950927734374999
0.9007324218749999
0.9305419921875
0.20947265625
0.04833984375
0.037060546874999996
0.0443115234375
0.041088867187499996
0.041088867187499996
0.3150146484375
0.91845703125
1.2181640624999999
1.4437499999999999
1.64677734375
1.7096191406249999
1.8046875
1.8489990234375
1.93681640625
2.0310791015625
2.07861328125
2.1648193359375
2.157568359375
2.1720703125
2.135009765625
2.7722900390625
3.0470214843749996
3.0446044921874997
3.04541015625
3.0470214843749996
3.0486328124999997
2.8311035156249997
2.56201171875
2.5144775390625
2.80048828125
3.043798828125
3.0429931640624996
3.0470214843749996
3.0470214843749996
3.0462158203125
3.0446044921874997
2.9922363281249997
3.0309082031249996
3.050244140625
3.0494384765625
3.0470214843749996
2.5837646484374996
2.3783203125
2.31064453125
2.1954345703125
2.3009765625
2.63935546875
3.0462158203125
3.0462158203125
3.0470214843749996
3.04541015625
3.0470214843749996
3.0462158203125
3.0478271484375
3.0470214843749996
3.050244140625
3.04541015625
3.0429931640624996
3.0446044921874997
3.0470214843749996
3.0470214843749996
3.0429931640624996
3.0470214843749996
3.04541015625
3.0486328124999997
3.0462158203125
3.0470214843749996
3.0486328124999997
3.0470214843749996
2.8012939453124996
2.6095458984374997
2.43310546875
2.1583740234374997
1.9360107421875
1.7748779296875
1.6693359374999999
1.6814208984374999
1.635498046875
1.5911865234375
1.4348876953124998
1.3873535156249999
1.5146484375
1.61455078125
1.7072021484375
2.054443359375
2.3267578125
2.47177734375
2.354150390625
2.2002685546875
1.989990234375
2.099560546875
1.95615234375
1.7571533203124998
1.15048828125
0.6630615234374999
0.198193359375
0.040283203125
0.041088867187499996
0.038671874999999994
0.040283203125
0.040283203125
0.040283203125
0.041088867187499996
0.04189453125
0.378662109375
0.64775390625
0.652587890625
0.54140625
0.45358886718749997
0.34079589843749997
0.053173828124999996
0.040283203125
0.038671874999999994
0.11279296875
0.2199462890625
0.3520751953125
0.4970947265625
0.549462890625
0.6832031249999999
0.742822265625
0.7968017578125
0.9047607421874999
0.9853271484374999
0.97646484375
0.945849609375
0.620361328125
0.41733398437499997
0.6936767578124999
0.8443359374999999
1.02158203125
1.19560546875
1.332568359375
1.7313720703125
1.703173828125
1.5750732421875
1.4364990234375
1.3067871093749999
1.197216796875
1.200439453125
1.1698242187499999
1.1996337890625
1.1867431640625
1.2141357421874999
1.2536132812499998
1.2826171874999999
1.3237060546875
1.348681640625
1.722509765625
1.6854492187499999
1.593603515625
1.44052734375
1.3156494140625
1.2576416015624998
1.007080078125
0.952294921875
0.9998291015624999
1.123095703125
1.2656982421874998
1.348681640625
1.332568359375
1.4236083984374999
1.4437499999999999
1.4791992187499998
1.4671142578124998
1.458251953125
1.480810546875
1.3833251953124999
1.216552734375
1.058642578125
1.2366943359375
1.3639892578125
1.44052734375
1.509814453125
1.667724609375
1.9190917968749999
1.91748046875
1.7877685546875
1.6572509765624999
1.49853515625
1.458251953125
1.46630859375
1.5001464843749999
1.4550292968749998
1.4590576171874998
1.4977294921875
1.46630859375
1.4735595703125
1.4920898437499999
1.5444580078124999
1.8667236328124999
1.7490966796874998
1.69189453125
1.6459716796875
1.4703369140625
1.4308593749999998
1.2544189453124999
1.1964111328125
1.2721435546875
1.37607421875
1.44052734375
1.5597656249999998
1.4953124999999998
1.5315673828124998
1.585546875
1.56943359375
1.538818359375
1.5146484375
1.5637939453124998
1.4864501953125
1.4840332031249999
1.2044677734375
1.3905761718749998
1.46630859375
1.50498046875
1.5323730468749999
1.6024658203125
1.803076171875
1.880419921875
1.7861572265624999
1.683837890625
1.6491943359374999
1.6298583984375
1.587158203125
1.5090087890625
1.513037109375
1.5001464843749999
1.5678222656249998
1.5162597656249999
1.506591796875
1.482421875
1.5444580078124999
1.8788085937499999
1.864306640625
1.69833984375
1.59521484375
1.5162597656249999
1.5750732421875
1.3607666015625
1.3414306640625
1.3430419921874999
1.4284423828125
1.4630859374999998
1.4622802734375
1.561376953125
1.6040771484374998
1.5895751953125
1.5799072265624998
1.4961181640624999
1.52109375
1.4920898437499999
1.5484863281249999
1.5654052734375
1.2221923828124999
1.4187744140624998
1.5090087890625
1.51787109375
1.5662109375
1.58232421875
1.7821289062499999
1.9134521484375
1.7418457031249999
1.5968261718749999
1.5275390624999998
1.5218994140625
1.53076171875
1.5662109375
1.6008544921874999
1.5517089843749998
1.5218994140625
1.577490234375
1.5057861328125
1.53720703125
1.5654052734375
1.8868652343749999
1.751513671875
1.6935058593749999
1.5323730468749999
1.4268310546874998
1.4622802734375
1.3994384765624999
1.2608642578125
1.3478759765625
1.432470703125
1.474365234375
1.5235107421874998
1.4993408203124998
1.48564453125
1.5444580078124999
1.5597656249999998
1.5017578125
1.52109375
1.5315673828124998
1.5380126953125
1.5605712890624999
1.3253173828125
1.3470703124999999
1.4590576171874998
1.482421875
1.5396240234374998
1.585546875
1.751513671875
1.877197265625
1.7764892578125
1.662890625
1.662890625
1.6532226562499999
1.641943359375
1.577490234375
1.5533203125
1.5460693359375
1.4977294921875
1.5082031249999999
1.5670166015625
1.5799072265624998
1.52109375
1.714453125
1.7861572265624999
1.6781982421875
1.5992431640625
1.5766845703124999
1.5517089843749998
1.464697265625
1.4042724609375
1.3551269531249999
1.3994384765624999
1.4469726562499998
1.5082031249999999
1.554931640625
1.5412353515625
1.542041015625
1.5331787109375
1.5202880859374999
1.5597656249999998
1.5791015625
1.6000488281249998
1.619384765625
1.268115234375
1.2979248046874998
1.4332763671875
1.47275390625
1.5299560546875
1.571044921875
1.662890625
1.880419921875
1.8071044921875
1.6814208984374999
1.5799072265624998
1.5839355468749998
1.542041015625
1.5517089843749998
1.574267578125
1.593603515625
1.5541259765625
1.5589599609375
1.5364013671874999
1.5670166015625
1.574267578125
1.6121337890624998
1.7692382812499998
1.6459716796875
1.6056884765625
1.5662109375
1.4953124999999998
1.477587890625
1.3929931640625
1.3728515625
1.4034667968749999
1.4816162109375
1.4912841796874998
1.525927734375
1.5573486328125
1.546875
1.5758789062499998
1.5766845703124999
1.59521484375
1.5621826171875
1.577490234375
1.5380126953125
1.4171630859375
1.2455566406249998
1.4348876953124998
1.4888671875
1.4872558593749998
1.6250244140624999
1.6645019531249998
1.8651123046875
1.7233154296875
1.651611328125
1.62744140625
1.5670166015625
1.5589599609375
1.546875
1.5597656249999998
1.577490234375
1.5146484375
1.522705078125
1.5517089843749998
1.5525146484374999
1.5194824218749998
1.5927978515624999
1.8175781249999998
1.7120361328125
1.7088134765624998
1.6177734375
1.5347900390625
1.4791992187499998
1.361572265625
1.3551269531249999
1.40185546875
1.46630859375
1.4751708984374998
1.5073974609374998
1.5283447265624999
1.5533203125
1.561376953125
1.50498046875
1.6024658203125
1.5863525390625
1.5637939453124998
1.5194824218749998
1.4711425781249998
1.3011474609375
1.4139404296875
1.482421875
1.53076171875
1.5476806640624998
1.6250244140624999
1.79501953125
1.7539306640624999
1.719287109375
1.606494140625
1.5847412109374999
1.5863525390625
1.5654052734375
1.5484863281249999
1.58232421875
1.533984375
1.5517089843749998
1.5654052734375
1.56943359375
1.558154296875
1.53076171875
1.7764892578125
1.683837890625
1.6290527343749999
1.6121337890624998
1.5347900390625
1.4848388671875
1.3921875
1.3728515625
1.4195800781249999
1.448583984375
1.4993408203124998
1.538818359375
1.593603515625
1.558154296875
1.529150390625
1.525927734375
1.545263671875
1.5138427734375
1.5605712890624999
1.56298828125
1.5654052734375
1.3188720703124999
1.4469726562499998
1.4759765624999999
1.5331787109375
1.5428466796875
1.5968261718749999
1.8022705078124999
1.7732666015624998
1.6943115234375
1.6169677734374999
1.558154296875
1.5807128906249999
1.5815185546875
1.5654052734375
1.5766845703124999
1.5251220703125
1.53720703125
1.5919921874999998
1.585546875
1.5315673828124998
1.53720703125
1.7942138671874999
1.703173828125
1.63388671875
1.603271484375
1.5605712890624999
1.50498046875
1.3905761718749998
1.400244140625
1.4187744140624998
1.4542236328125
1.474365234375
1.513037109375
1.5299560546875
1.5162597656249999
1.56943359375
1.56943359375
1.6048828124999999
1.5605712890624999
1.5509033203125
1.4993408203124998
1.5194824218749998
1.287451171875
1.4606689453125
1.525927734375
1.5009521484375
1.5323730468749999
1.5476806640624998
1.6894775390624999
1.7934082031249998
1.7104248046875
1.6250244140624999
1.60166015625
1.5815185546875
1.6056884765625
1.55009765625
1.5968261718749999
1.5565429687499999
1.5428466796875
1.58232421875
1.5597656249999998
1.5509033203125
1.554931640625
1.7297607421874999
1.735400390625
1.6314697265625
1.5573486328125
1.561376953125
1.603271484375
1.448583984375
1.409912109375
1.3712402343749999
1.40185546875
1.4655029296875
1.4928955078125
1.5275390624999998
1.58232421875
1.56298828125
1.5090087890625
1.5428466796875
1.558154296875
1.5396240234374998
1.5243164062499999
1.5799072265624998
1.32451171875
1.3341796874999998
1.445361328125
1.482421875
1.5355957031249998
1.5895751953125
1.6645019531249998
1.8183837890624999
1.7208984374999998
1.6411376953124999
1.5637939453124998
1.554931640625
1.5887695312499999
1.5847412109374999
1.5726562499999999
1.5364013671874999
1.56298828125
1.60166015625
1.606494140625
1.5718505859374998
1.542041015625
1.6161621093749998
1.7217041015624999
1.6588623046875
1.60166015625
1.5509033203125
1.533984375
1.50498046875
1.42119140625
1.4364990234375
1.4598632812499999
1.4832275390624998
1.5057861328125
1.5041748046874999
1.5436523437499998
1.5251220703125
1.5154541015624998
1.5299560546875
1.574267578125
1.5484863281249999
1.5460693359375
1.5637939453124998
1.3261230468749998
1.3470703124999999
1.4236083984374999
1.4961181640624999
1.5267333984375
1.6040771484374998
1.61455078125
1.864306640625
1.7128417968749998
1.65
1.5879638671874998
1.609716796875
1.58232421875
1.609716796875
1.5726562499999999
1.5734619140625
1.5654052734375
1.5565429687499999
1.5484863281249999
1.5106201171875
1.5404296874999999
1.6137451171875
1.7990478515625
1.658056640625
1.6242187499999998
1.5686279296874999
1.52109375
1.4606689453125
1.361572265625
1.3365966796875
1.409912109375
1.4896728515625
1.5170654296875
1.51787109375
1.5412353515625
1.5444580078124999
1.574267578125
1.5380126953125
1.571044921875
1.5645996093749999
1.5412353515625
1.558154296875
1.513037109375
1.3543212890624998
1.4703369140625
1.4864501953125
1.5235107421874998
1.5678222656249998
1.5758789062499998
1.8022705078124999
1.7611816406249998
1.6830322265625
1.6645019531249998
1.6363037109374998
1.5726562499999999
1.53720703125
1.5122314453124999
1.538818359375
1.5726562499999999
1.577490234375
1.6056884765625
1.571044921875
1.5355957031249998
1.5573486328125
1.77890625
1.63388671875
1.5863525390625
1.6000488281249998
1.5355957031249998
1.4550292968749998
1.4268310546874998
1.3929931640625
1.38896484375
1.48564453125
1.5202880859374999
1.5404296874999999
1.5509033203125
1.5476806640624998
1.5251220703125
1.5412353515625
1.5597656249999998
1.5637939453124998
1.5251220703125
1.5509033203125
1.513037109375
1.29228515625
1.490478515625
1.5025634765625
1.5323730468749999
1.561376953125
1.6242187499999998
1.7893798828124998
1.8006591796875
1.722509765625
1.6153564453125
1.5654052734375
1.5621826171875
1.5347900390625
1.5525146484374999
1.5412353515625
1.5654052734375
1.587158203125
1.5670166015625
1.5621826171875
1.51787109375
1.5299560546875
1.8183837890624999
1.6612792968749999
1.619384765625
1.6218017578125
1.533984375
1.5315673828124998
1.4364990234375
1.3470703124999999
1.4252197265625
1.4767822265625
1.4888671875
1.4880615234374999
1.4977294921875
1.5807128906249999
1.56298828125
1.5605712890624999
1.5654052734375
1.5766845703124999
1.52109375
1.5090087890625
1.5573486328125
1.3027587890624999
1.4759765624999999
1.5017578125
1.5073974609374998
1.5186767578125
1.5919921874999998
1.815966796875
1.764404296875
1.6935058593749999
1.6314697265625
1.5605712890624999
1.5436523437499998
1.533984375
1.558154296875
1.554931640625
1.58232421875
1.5726562499999999
1.5645996093749999
1.554931640625
1.5009521484375
1.5186767578125
1.8014648437499998
1.7370117187499998
1.64677734375
1.60166015625
1.5621826171875
1.5202880859374999
1.4381103515625
1.400244140625
1.3639892578125
1.46630859375
1.5057861328125
1.558154296875
1.4993408203124998
1.5541259765625
1.5670166015625
1.5122314453124999
1.5364013671874999
1.5702392578125
1.5235107421874998
1.5315673828124998
1.571044921875
1.3188720703124999
1.4397216796874999
1.4800048828124999
1.5170654296875
1.56943359375
1.5589599609375
1.72412109375
1.7176757812499999
1.66611328125
1.6314697265625
1.6072998046875
1.609716796875
1.5968261718749999
1.5323730468749999
1.5533203125
1.5412353515625
1.50498046875
1.4542236328125
1.5460693359375
1.5565429687499999
1.5807128906249999
1.7990478515625
1.748291015625
1.6298583984375
1.5976318359375
1.5476806640624998
1.5347900390625
1.4284423828125
1.42119140625
1.4236083984374999
1.513037109375
1.5114257812499998
1.493701171875
1.4066894531249998
1.5331787109375
1.5492919921875
1.522705078125
1.6048828124999999
1.56943359375
1.55009765625
1.5597656249999998
1.561376953125
1.32451171875
1.340625
1.5009521484375
1.509814453125
1.5686279296874999
1.5702392578125
1.6322753906249998
1.803076171875
1.7281494140625
1.5960205078124998
1.59521484375
1.5621826171875
1.5895751953125
1.5331787109375
1.590380859375
1.5726562499999999
1.5541259765625
1.5380126953125
1.533984375
1.5533203125
1.5565429687499999
1.6161621093749998
1.7442626953125
1.6588623046875
1.6459716796875
1.574267578125
1.4977294921875
1.4896728515625
1.4550292968749998
1.3994384765624999
1.4284423828125
1.448583984375
1.5017578125
1.4977294921875
1.5557373046874998
1.5251220703125
1.513037109375
1.522705078125
1.56298828125
1.5315673828124998
1.51787109375
1.5186767578125
1.31162109375
1.36962890625
1.4961181640624999
1.545263671875
1.5686279296874999
1.53720703125
1.6443603515624998
1.7990478515625
1.7370117187499998
1.6894775390624999
1.654833984375
1.6072998046875
1.5565429687499999
1.509814453125
1.5194824218749998
1.5380126953125
1.5565429687499999
1.56298828125
1.56943359375
1.5605712890624999
1.5492919921875
1.533984375
1.751513671875
1.625830078125
1.5976318359375
1.5847412109374999
1.5887695312499999
1.5194824218749998
1.4348876953124998
1.4332763671875
1.4228027343749998
1.4550292968749998
1.4977294921875
1.506591796875
1.525927734375
1.5404296874999999
1.5436523437499998
1.5396240234374998
1.542041015625
1.5323730468749999
1.533984375
1.561376953125
1.53720703125
1.3414306640625
1.4912841796874998
1.5025634765625
1.5251220703125
1.5509033203125
1.6153564453125
1.7958251953125
1.7490966796874998
1.654833984375
1.574267578125
1.6153564453125
1.5541259765625
1.6056884765625
1.5621826171875
1.5299560546875
1.5404296874999999
1.5750732421875
1.5718505859374998
1.52109375
1.5364013671874999
1.558154296875
1.7684326171875
1.7128417968749998
1.6371093749999999
1.561376953125
1.5476806640624998
1.5444580078124999
1.4469726562499998
1.3978271484375
1.4074951171874999
1.4558349609374999
1.48564453125
1.5331787109375
1.53076171875
1.5573486328125
1.5380126953125
1.55009765625
1.5355957031249998
1.5662109375
1.5815185546875
1.5186767578125
1.5243164062499999
1.2890625
1.4510009765624998
1.525927734375
1.5025634765625
1.5380126953125
1.6056884765625
1.73056640625
1.7418457031249999
1.6427490234375
1.619384765625
1.5919921874999998
1.5919921874999998
1.6129394531249999
1.5436523437499998
1.5597656249999998
1.5879638671874998
1.590380859375
1.5621826171875
1.545263671875
1.5597656249999998
1.5484863281249999
1.77568359375
1.6588623046875
1.635498046875
1.5992431640625
1.5533203125
1.525927734375
1.4123291015625
1.4123291015625
1.3873535156249999
1.4389160156249998
1.4896728515625
1.5275390624999998
1.5162597656249999
1.5364013671874999
1.52109375
1.5355957031249998
1.50498046875
1.546875
1.5758789062499998
1.5460693359375
1.5315673828124998
1.3067871093749999
1.4348876953124998
1.5138427734375
1.5380126953125
1.577490234375
1.5605712890624999
1.7490966796874998
1.7700439453124999
1.67900390625
1.6201904296874998
1.5879638671874998
1.5541259765625
1.5404296874999999
1.606494140625
1.5815185546875
1.56943359375
1.6177734375
1.5791015625
1.5436523437499998
1.52109375
1.5662109375
1.7337890624999999
1.6814208984374999
1.62744140625
1.5734619140625
1.609716796875
1.55009765625
1.4461669921875
1.43408203125
1.4010498046875
1.4703369140625
1.4526123046875
1.4671142578124998
1.5404296874999999
1.5492919921875
1.5509033203125
1.4840332031249999
1.5162597656249999
1.5396240234374998
1.5557373046874998
1.590380859375
1.561376953125
1.3269287109374999
1.3954101562499999
1.4735595703125
1.5186767578125
1.5621826171875
1.6298583984375
1.7055908203124999
1.803076171875
1.6636962890625
1.6306640625
1.5517089843749998
1.5541259765625
1.587158203125
1.5662109375
1.5887695312499999
1.5831298828125
1.542041015625
1.5396240234374998
1.6185791015625
1.5944091796875
1.58232421875
1.7450683593749998
1.7015624999999999
1.6395263671875
1.5911865234375
1.5355957031249998
1.50498046875
1.4953124999999998
1.4034667968749999
1.4364990234375
1.4429443359374998
1.5001464843749999
1.4993408203124998
1.513037109375
1.5194824218749998
1.545263671875
1.4800048828124999
1.5364013671874999
1.5702392578125
1.5766845703124999
1.5799072265624998
1.561376953125
1.335791015625
1.3543212890624998
1.482421875
1.5347900390625
1.5815185546875
1.554931640625
1.622607421875
1.7861572265624999
1.7257324218749999
1.6177734375
1.546875
1.571044921875
1.590380859375
1.5799072265624998
1.5815185546875
1.5517089843749998
1.5525146484374999
1.5662109375
1.5573486328125
1.5782958984375
1.546875
1.585546875
1.7571533203124998
1.6322753906249998
1.6234130859375
1.5573486328125
1.529150390625
1.5194824218749998
1.4171630859375
1.4332763671875
1.4816162109375
1.490478515625
1.5033691406249998
1.5162597656249999
1.5041748046874999
1.5517089843749998
1.525927734375
1.546875
1.5799072265624998
1.5670166015625
1.5396240234374998
1.5267333984375
1.2834228515625
1.345458984375
1.4711425781249998
1.5170654296875
1.5275390624999998
1.5992431640625
1.6435546875
1.7845458984375
1.7184814453125
1.6483886718749998
1.5895751953125
1.5436523437499998
1.5637939453124998
1.5815185546875
1.5670166015625
1.5654052734375
1.5686279296874999
1.5645996093749999
1.6056884765625
1.529150390625
1.5517089843749998
1.5605712890624999
1.740234375
1.687060546875
1.6048828124999999
1.6081054687499998
1.542041015625
1.4872558593749998
1.4413330078125
1.4026611328124998
1.4461669921875
1.482421875
1.5017578125
1.4912841796874998
1.5017578125
1.525927734375
1.522705078125
1.538818359375
1.5541259765625
1.5517089843749998
1.5428466796875
1.545263671875
1.5597656249999998
1.3092041015625
1.5001464843749999
1.5154541015624998
1.5267333984375
1.5791015625
1.5839355468749998
1.7853515624999998
1.72412109375
1.6685302734374998
1.6282470703124998
1.6105224609375
1.561376953125
1.6024658203125
1.5662109375
1.5492919921875
1.51787109375
1.5154541015624998
1.5533203125
1.53720703125
1.51787109375
1.522705078125
1.767626953125
1.687060546875
1.60166015625
1.6242187499999998
1.533984375
1.5194824218749998
1.4445556640625
1.4518066406249999
1.4800048828124999
1.490478515625
1.5436523437499998
1.5170654296875
1.4832275390624998
1.480810546875
1.4872558593749998
1.52109375
1.52109375
1.545263671875
1.53720703125
1.577490234375
1.561376953125
1.335791015625
1.4348876953124998
1.4880615234374999
1.5082031249999999
1.58232421875
1.5799072265624998
1.75634765625
1.8216064453124998
1.6749755859375
1.6056884765625
1.5831298828125
1.5492919921875
1.5170654296875
1.554931640625
1.5927978515624999
1.5436523437499998
1.538818359375
1.5670166015625
1.5758789062499998
1.545263671875
1.577490234375
1.7579589843749999
1.7072021484375
1.6564453124999998
1.5944091796875
1.5218994140625
1.4872558593749998
1.4074951171874999
1.4332763671875
1.4332763671875
1.4558349609374999
1.4961181640624999
1.5122314453124999
1.49853515625
1.5323730468749999
1.561376953125
1.5726562499999999
1.5517089843749998
1.525927734375
1.5517089843749998
1.506591796875
1.529150390625
1.3148437499999999
1.43408203125
1.464697265625
1.5492919921875
1.5919921874999998
1.62744140625
1.6725585937499998
1.73056640625
1.687060546875
1.6363037109374998
1.5565429687499999
1.5517089843749998
1.5718505859374998
1.5283447265624999
1.5654052734375
1.5887695312499999
1.5815185546875
1.5573486328125
1.5235107421874998
1.5436523437499998
1.5654052734375
1.7289550781249998
1.6846435546874998
1.6306640625
1.5960205078124998
1.574267578125
1.5645996093749999
1.4800048828124999
1.4058837890625
1.4219970703125
1.5114257812499998
1.5218994140625
1.5315673828124998
1.477587890625
1.545263671875
1.5686279296874999
1.5170654296875
1.5565429687499999
1.554931640625
1.5162597656249999
1.5033691406249998
1.5678222656249998
1.3720458984375
1.4091064453125
1.4655029296875
1.5114257812499998
1.5573486328125
1.6234130859375
1.69833984375
1.7958251953125
1.7096191406249999
1.6298583984375
1.561376953125
1.5202880859374999
1.5476806640624998
1.5251220703125
1.5267333984375
1.561376953125
1.5839355468749998
1.571044921875
1.5879638671874998
1.5782958984375
1.5355957031249998
1.7233154296875
1.7345947265625
1.6443603515624998
1.5831298828125
1.56298828125
1.5202880859374999
1.4920898437499999
1.442138671875
1.426025390625
1.4598632812499999
1.4719482421874999
1.4993408203124998
1.5162597656249999
1.5251220703125
1.5758789062499998
1.513037109375
1.5605712890624999
1.5186767578125
1.5251220703125
1.55009765625
1.574267578125
1.353515625
1.36962890625
1.4864501953125
1.4880615234374999
1.5033691406249998
1.546875
1.622607421875
1.8022705078124999
1.7450683593749998
1.6008544921874999
1.574267578125
1.5863525390625
1.6048828124999999
1.5750732421875
1.5944091796875
1.5605712890624999
1.5525146484374999
1.5202880859374999
1.56298828125
1.5484863281249999
1.5734619140625
1.5364013671874999
1.7442626953125
1.662890625
1.609716796875
1.5645996093749999
1.509814453125
1.4800048828124999
1.4244140625
1.380908203125
1.45341796875
1.5202880859374999
1.5090087890625
1.5041748046874999
1.529150390625
1.522705078125
1.5347900390625
1.5960205078124998
1.6089111328124999
1.5678222656249998
1.5726562499999999
1.5484863281249999
1.509814453125
1.33740234375
1.496923828125
1.5202880859374999
1.509814453125
1.5202880859374999
1.5984375
1.8119384765625
1.7152587890625
1.611328125
1.6153564453125
1.6040771484374998
1.6532226562499999
1.611328125
1.558154296875
1.4896728515625
1.5275390624999998
1.506591796875
1.5782958984375
1.5678222656249998
1.5621826171875
1.5662109375
1.7466796875
1.6540283203125
1.585546875
1.574267578125
1.5484863281249999
1.493701171875
1.456640625
1.445361328125
1.4348876953124998
1.4751708984374998
1.4920898437499999
1.5001464843749999
1.5355957031249998
1.5380126953125
1.5484863281249999
1.5033691406249998
1.5283447265624999
1.53720703125
1.5645996093749999
1.5678222656249998
1.5766845703124999
1.3478759765625
1.4445556640625
1.4703369140625
1.5194824218749998
1.561376953125
1.6056884765625
1.719287109375
1.7587646484375
1.6822265625
1.59521484375
1.5565429687499999
1.5678222656249998
1.5396240234374998
1.522705078125
1.5734619140625
1.5533203125
1.5895751953125
1.5444580078124999
1.5573486328125
1.587158203125
1.5645996093749999
1.7668212890625
1.6685302734374998
1.6314697265625
1.5670166015625
1.5589599609375
1.5267333984375
1.4252197265625
1.41796875
1.4590576171874998
1.46630859375
1.5114257812499998
1.5090087890625
1.5509033203125
1.5654052734375
1.554931640625
1.5218994140625
1.5235107421874998
1.538818359375
1.585546875
1.5911865234375
1.558154296875
1.2987304687499999
1.4364990234375
1.50498046875
1.545263671875
1.5364013671874999
1.5839355468749998
1.683837890625
1.7748779296875
1.6645019531249998
1.56943359375
1.5799072265624998
1.5911865234375
1.5718505859374998
1.533984375
1.5678222656249998
1.5460693359375
1.5460693359375
1.5428466796875
1.561376953125
1.5267333984375
1.5565429687499999
1.7208984374999998
1.6814208984374999
1.638720703125
1.6105224609375
1.5734619140625
1.5476806640624998
1.4195800781249999
1.3704345703124998
1.4010498046875
1.49853515625
1.5017578125
1.5492919921875
1.56298828125
1.5138427734375
1.5001464843749999
1.5589599609375
1.5597656249999998
1.5565429687499999
1.5621826171875
1.561376953125
1.5380126953125
1.284228515625
1.3712402343749999
1.4518066406249999
1.4993408203124998
1.5404296874999999
1.5944091796875
1.6717529296875
1.7587646484375
1.6806152343749998
1.6242187499999998
1.6072998046875
1.5815185546875
1.5807128906249999
1.60166015625
1.5404296874999999
1.545263671875
1.5267333984375
1.5396240234374998
1.5194824218749998
1.5476806640624998
1.561376953125
1.7362060546875
1.7055908203124999
1.651611328125
1.6081054687499998
1.5944091796875
1.5436523437499998
1.4655029296875
1.377685546875
1.4066894531249998
1.4268310546874998
1.50498046875
1.5001464843749999
1.5444580078124999
1.5605712890624999
1.533984375
1.5235107421874998
1.5565429687499999
1.554931640625
1.5645996093749999
1.53076171875
1.5509033203125
1.329345703125
1.4397216796874999
1.5347900390625
1.5444580078124999
1.55009765625
1.558154296875
1.5911865234375
1.803076171875
1.6894775390624999
1.6306640625
1.58232421875
1.554931640625
1.5243164062499999
1.5492919921875
1.577490234375
1.606494140625
1.571044921875
1.5605712890624999
1.5944091796875
1.5847412109374999
1.5428466796875
1.7015624999999999
1.72734375
1.6508056640625
1.603271484375
1.525927734375
1.51787109375
1.5267333984375
1.4542236328125
1.4348876953124998
1.4356933593749999
1.4977294921875
1.493701171875
1.48564453125
1.5202880859374999
1.558154296875
1.5412353515625
1.5315673828124998
1.546875
1.5436523437499998
1.525927734375
1.5645996093749999
1.3744628906249998
1.377685546875
1.4598632812499999
1.5283447265624999
1.525927734375
1.5718505859374998
1.609716796875
1.7740722656249999
1.738623046875
1.6435546875
1.6000488281249998
1.5831298828125
1.5895751953125
1.5114257812499998
1.5275390624999998
1.546875
1.5984375
1.5911865234375
1.554931640625
1.5364013671874999
1.5347900390625
1.5654052734375
1.7603759765625
1.6451660156249999
1.59521484375
1.574267578125
1.5509033203125
1.4920898437499999
1.4042724609375
1.40185546875
1.4445556640625
1.4791992187499998
1.5073974609374998
1.5162597656249999
1.5267333984375
1.5565429687499999
1.50498046875
1.5484863281249999
1.5541259765625
1.5541259765625
1.5541259765625
1.5509033203125
1.538818359375
1.380908203125
1.46630859375
1.525927734375
1.529150390625
1.5670166015625
1.6081054687499998
1.770849609375
1.7345947265625
1.6773925781249999
1.5919921874999998
1.5726562499999999
1.558154296875
1.5895751953125
1.6072998046875
1.5525146484374999
1.5621826171875
1.5702392578125
1.5509033203125
1.5218994140625
1.5235107421874998
1.5799072265624998
1.8143554687499999
1.658056640625
1.593603515625
1.585546875
1.5831298828125
1.496923828125
1.3833251953124999
1.4034667968749999
1.43408203125
1.529150390625
1.45341796875
1.482421875
1.5114257812499998
1.5082031249999999
1.5887695312499999
1.5879638671874998
1.585546875
1.5355957031249998
1.5654052734375
1.5557373046874998
1.5791015625
1.313232421875
1.4356933593749999
1.4840332031249999
1.4977294921875
1.5331787109375
1.585546875
1.71123046875
1.7829345703125
1.6645019531249998
1.6153564453125
1.5662109375
1.58232421875
1.5944091796875
1.5702392578125
1.5734619140625
1.5662109375
1.554931640625
1.5509033203125
1.5847412109374999
1.56943359375
1.4751708984374998
1.754736328125
1.699951171875
1.6435546875
1.5839355468749998
1.5597656249999998
1.5968261718749999
1.4703369140625
1.3946044921874998
1.37607421875
1.40830078125
1.5001464843749999
1.513037109375
1.5645996093749999
1.5057861328125
1.5275390624999998
1.5605712890624999
1.5573486328125
1.5686279296874999
1.5621826171875
1.545263671875
1.5525146484374999
1.3172607421875
1.4437499999999999
1.5106201171875
1.5331787109375
1.5807128906249999
1.5678222656249998
1.71123046875
1.735400390625
1.7023681640625
1.61455078125
1.5702392578125
1.5919921874999998
1.5734619140625
1.5782958984375
1.5782958984375
1.5702392578125
1.5275390624999998
1.5243164062499999
1.5057861328125
1.545263671875
1.5605712890624999
1.703173828125
1.7088134765624998
1.6129394531249999
1.6081054687499998
1.593603515625
1.542041015625
