1.6000488281249998
1.4751708984374998
1.4953124999999998
1.4147460937499998
1.3623779296874998
1.3341796874999998
1.4348876953124998
1.4767822265625
1.5243164062499999
1.5033691406249998
1.538818359375
1.5839355468749998
1.5396240234374998
1.6177734375
1.5476806640624998
1.577490234375
1.554931640625
1.4872558593749998
1.255224609375
1.297119140625
1.4840332031249999
1.4993408203124998
1.5283447265624999
1.6266357421875
1.7217041015624999
1.9231201171874999
1.8183837890624999
1.6322753906249998
1.56943359375
1.4993408203124998
1.5436523437499998
1.5597656249999998
1.5815185546875
1.6081054687499998
1.5815185546875
1.5492919921875
1.546875
1.5073974609374998
1.477587890625
1.571044921875
1.8296630859374998
1.6927001953124998
1.611328125
1.5758789062499998
1.4872558593749998
1.416357421875
1.3390136718749999
1.3253173828125
1.3929931640625
1.4848388671875
1.538818359375
1.5436523437499998
1.5355957031249998
1.5154541015624998
1.5073974609374998
1.5517089843749998
1.5170654296875
1.4308593749999998
1.5267333984375
1.4703369140625
1.2455566406249998
1.27294921875
1.4445556640625
1.5033691406249998
1.5702392578125
1.587158203125
1.6564453124999998
1.8868652343749999
1.791796875
1.719287109375
1.6540283203125
1.603271484375
1.622607421875
1.5033691406249998
1.4751708984374998
1.5509033203125
1.5887695312499999
1.5984375
1.546875
1.5186767578125
1.52109375
1.5557373046874998
1.8498046874999998
1.7007568359374998
1.658056640625
1.585546875
1.5484863281249999
1.4945068359375
1.40830078125
1.3333740234375
1.4574462890625
1.4687255859375
1.4469726562499998
1.52109375
1.5533203125
1.5597656249999998
1.5154541015624998
1.5678222656249998
1.5428466796875
1.585546875
1.546875
1.4526123046875
1.4469726562499998
1.1980224609374999
1.3954101562499999
1.3905761718749998
1.5194824218749998
1.585546875
1.683837890625
1.9569580078125
1.8216064453124998
1.674169921875
1.6161621093749998
1.5509033203125
1.56298828125
1.482421875
1.5057861328125
1.5146484375
1.5766845703124999
1.5597656249999998
1.59521484375
1.5492919921875
1.5831298828125
1.5944091796875
1.8707519531249999
1.78857421875
1.7337890624999999
1.6048828124999999
1.58232421875
1.509814453125
1.3817138671875
1.3188720703124999
1.345458984375
1.429248046875
1.4832275390624998
1.5235107421874998
1.5331787109375
1.5565429687499999
1.5734619140625
1.5726562499999999
1.5758789062499998
1.606494140625
1.590380859375
1.5436523437499998
1.5243164062499999
1.1923828125
1.3382080078124998
1.4389160156249998
1.545263671875
1.6056884765625
1.6403320312499998
1.8659179687499998
1.9464843749999998
1.7128417968749998
1.6242187499999998
1.574267578125
1.554931640625
1.546875
1.5831298828125
1.593603515625
1.5887695312499999
1.538818359375
1.4864501953125
1.5082031249999999
1.546875
1.5726562499999999
1.8312744140625
1.7466796875
1.6951171875
1.603271484375
1.5364013671874999
1.5162597656249999
1.4123291015625
1.368017578125
1.3140380859374998
1.4026611328124998
1.3728515625
1.546875
1.5025634765625
1.5645996093749999
1.5404296874999999
1.5444580078124999
1.561376953125
1.5758789062499998
1.5758789062499998
1.5944091796875
1.5670166015625
1.2689208984375
1.3148437499999999
1.429248046875
1.513037109375
1.6048828124999999
1.6137451171875
1.8135498046874998
1.8385253906249999
1.7740722656249999
1.6991455078125
1.619384765625
1.5621826171875
1.5791015625
1.474365234375
1.474365234375
1.5170654296875
1.5799072265624998
1.5927978515624999
1.5573486328125
1.5541259765625
1.5597656249999998
1.8111328125
1.780517578125
1.6749755859375
1.611328125
1.5533203125
1.5323730468749999
1.361572265625
1.3664062499999998
1.345458984375
1.4236083984374999
1.4429443359374998
1.493701171875
1.477587890625
1.5146484375
1.5444580078124999
1.5597656249999998
1.577490234375
1.554931640625
1.5911865234375
1.5911865234375
1.59521484375
1.287451171875
1.368017578125
1.4622802734375
1.5186767578125
1.5428466796875
1.5984375
1.719287109375
1.8900878906249998
1.7781005859374999
1.69189453125
1.6105224609375
1.5799072265624998
1.5436523437499998
1.5186767578125
1.53720703125
1.558154296875
1.5404296874999999
1.558154296875
1.593603515625
1.5460693359375
1.4840332031249999
1.7281494140625
1.7772949218749998
1.6991455078125
1.6532226562499999
1.5718505859374998
1.5251220703125
1.5017578125
1.3784912109374998
1.4026611328124998
1.429248046875
1.4759765624999999
1.4711425781249998
1.4751708984374998
1.49853515625
1.5839355468749998
1.58232421875
1.58232421875
1.5154541015624998
1.5565429687499999
1.5525146484374999
1.5347900390625
1.3510986328124999
1.32451171875
1.474365234375
1.5025634765625
1.5202880859374999
1.5887695312499999
1.6314697265625
1.8538330078124998
1.8175781249999998
1.6781982421875
1.662890625
1.5428466796875
1.5509033203125
1.5815185546875
1.5758789062499998
1.5726562499999999
1.574267578125
1.5283447265624999
1.5235107421874998
1.5541259765625
1.545263671875
1.5162597656249999
1.7740722656249999
1.6564453124999998
1.606494140625
1.5597656249999998
1.561376953125
1.5194824218749998
1.361572265625
1.3744628906249998
1.3575439453125
1.4413330078125
1.5364013671874999
1.5533203125
1.5114257812499998
1.5243164062499999
1.53720703125
1.5404296874999999
1.5573486328125
1.5283447265624999
1.5944091796875
1.5863525390625
1.3510986328124999
1.2866455078124999
1.3792968749999999
1.464697265625
1.5073974609374998
1.561376953125
1.6177734375
1.8659179687499998
1.8224121093749999
1.6862548828125
1.6371093749999999
1.5807128906249999
1.58232421875
1.5605712890624999
1.5106201171875
1.5637939453124998
1.56298828125
1.5573486328125
1.545263671875
1.5758789062499998
1.5758789062499998
1.5750732421875
1.7797119140625
1.6306640625
1.6000488281249998
1.5517089843749998
1.525927734375
1.4864501953125
1.3631835937499999
1.3180664062499998
1.4123291015625
1.52109375
1.533984375
1.5194824218749998
1.5138427734375
1.5678222656249998
1.5589599609375
1.5509033203125
1.5605712890624999
1.5927978515624999
1.5509033203125
1.5758789062499998
1.522705078125
1.21171875
1.4598632812499999
1.4993408203124998
1.5315673828124998
1.6048828124999999
1.6306640625
1.7692382812499998
1.7579589843749999
1.6773925781249999
1.6048828124999999
1.5815185546875
1.577490234375
1.574267578125
1.5847412109374999
1.561376953125
1.5621826171875
1.5831298828125
1.5428466796875
1.5605712890624999
1.5122314453124999
1.5202880859374999
1.8006591796875
1.735400390625
1.6508056640625
1.62744140625
1.5484863281249999
1.482421875
1.3897705078125
1.3833251953124999
1.3986328124999998
1.4638916015624999
1.5202880859374999
1.52109375
1.49853515625
1.5154541015624998
1.5251220703125
1.5541259765625
1.5782958984375
1.545263671875
1.5791015625
1.5782958984375
1.5726562499999999
1.2777832031249998
1.3631835937499999
1.448583984375
1.5154541015624998
1.5686279296874999
1.6161621093749998
1.7523193359375
1.8328857421875
1.7579589843749999
1.6653076171874999
1.60166015625
1.5879638671874998
1.5887695312499999
1.6024658203125
1.5831298828125
1.5758789062499998
1.5267333984375
1.5299560546875
1.5968261718749999
1.5073974609374998
1.529150390625
1.732177734375
1.7313720703125
1.6532226562499999
1.6306640625
1.5186767578125
1.5267333984375
1.4679199218749999
1.4469726562499998
1.4026611328124998
1.42119140625
1.4977294921875
1.50498046875
1.4638916015624999
1.5073974609374998
1.538818359375
1.542041015625
1.558154296875
1.6008544921874999
1.5573486328125
1.5597656249999998
1.5702392578125
1.2818115234374998
1.3502929687499998
1.4300537109375
1.509814453125
1.5927978515624999
1.6056884765625
1.71123046875
1.8248291015625
1.75634765625
1.641943359375
1.56943359375
1.56943359375
1.5243164062499999
1.5428466796875
1.533984375
1.5605712890624999
1.5517089843749998
1.5460693359375
1.5984375
1.5654052734375
1.571044921875
1.703173828125
1.7740722656249999
1.609716796875
1.5831298828125
1.538818359375
1.513037109375
1.4510009765624998
1.416357421875
1.3978271484375
1.4429443359374998
1.4848388671875
1.53076171875
1.4920898437499999
1.554931640625
1.6298583984375
1.53076171875
1.5573486328125
1.5315673828124998
1.546875
1.53720703125
1.58232421875
1.3792968749999999
1.3736572265625
1.4558349609374999
1.4961181640624999
1.5170654296875
1.5984375
1.6242187499999998
1.877197265625
1.7474853515625
1.5887695312499999
1.5758789062499998
1.5984375
1.5645996093749999
1.587158203125
1.61455078125
1.5791015625
1.4953124999999998
1.529150390625
1.554931640625
1.5992431640625
1.5718505859374998
1.66611328125
1.75634765625
1.6645019531249998
1.5887695312499999
1.5782958984375
1.5517089843749998
1.5017578125
1.38896484375
1.3881591796875
1.43408203125
1.474365234375
1.493701171875
1.5460693359375
1.5782958984375
1.5557373046874998
1.5492919921875
1.51787109375
1.5275390624999998
1.574267578125
1.5670166015625
1.533984375
1.4010498046875
1.3220947265624998
1.480810546875
1.5235107421874998
1.53720703125
1.5686279296874999
1.6395263671875
1.819189453125
1.7764892578125
1.6443603515624998
1.5799072265624998
1.5355957031249998
1.5678222656249998
1.5597656249999998
1.5662109375
1.5637939453124998
1.5444580078124999
1.53720703125
1.6024658203125
1.522705078125
1.5404296874999999
1.5573486328125
1.8022705078124999
1.706396484375
1.62744140625
1.5670166015625
1.53076171875
1.5017578125
1.4276367187499999
1.3285400390625
1.400244140625
1.4598632812499999
1.5267333984375
1.5033691406249998
1.545263671875
1.5315673828124998
1.577490234375
1.5750732421875
1.5678222656249998
1.52109375
1.5589599609375
1.56298828125
1.458251953125
1.3261230468749998
1.4510009765624998
1.4953124999999998
1.5114257812499998
1.5541259765625
1.5895751953125
1.7781005859374999
1.7603759765625
1.7015624999999999
1.6048828124999999
1.5879638671874998
1.558154296875
1.5573486328125
1.5887695312499999
1.513037109375
1.525927734375
1.52109375
1.5492919921875
1.5573486328125
1.5976318359375
1.5484863281249999
1.73056640625
1.7652099609374998
1.5992431640625
1.587158203125
1.53720703125
1.513037109375
1.42119140625
1.4139404296875
1.4123291015625
1.4518066406249999
1.5202880859374999
1.529150390625
1.5621826171875
1.5557373046874998
1.5194824218749998
1.5380126953125
1.5541259765625
1.5670166015625
1.5686279296874999
1.5323730468749999
1.5428466796875
1.2802001953125
1.4518066406249999
1.51787109375
1.538818359375
1.561376953125
1.5782958984375
1.767626953125
1.7458740234374999
1.6645019531249998
1.6201904296874998
1.5605712890624999
1.5597656249999998
1.5815185546875
1.60166015625
1.5444580078124999
1.56298828125
1.5662109375
1.5919921874999998
1.5670166015625
1.538818359375
1.554931640625
1.7442626953125
1.6862548828125
1.6403320312499998
1.5702392578125
1.5654052734375
1.480810546875
1.3978271484375
1.3728515625
1.3784912109374998
1.3881591796875
1.4816162109375
1.5517089843749998
1.545263671875
1.5533203125
1.5839355468749998
1.56298828125
1.525927734375
1.5718505859374998
1.5331787109375
1.574267578125
1.5323730468749999
1.3108154296874999
1.3792968749999999
1.4880615234374999
1.5476806640624998
1.5573486328125
1.6153564453125
1.658056640625
1.8135498046874998
1.7208984374999998
1.638720703125
1.62744140625
1.593603515625
1.5847412109374999
1.538818359375
1.5686279296874999
1.5347900390625
1.53720703125
1.5621826171875
1.5194824218749998
1.4864501953125
1.5444580078124999
1.6943115234375
1.716064453125
1.6314697265625
1.6056884765625
1.5484863281249999
1.5654052734375
1.4719482421874999
1.3825195312499998
1.3913818359374999
1.4139404296875
1.4864501953125
1.5106201171875
1.5396240234374998
1.5436523437499998
1.5791015625
1.5235107421874998
1.5396240234374998
1.525927734375
1.5662109375
1.574267578125
1.5815185546875
1.3543212890624998
1.3672119140624999
1.4558349609374999
1.5146484375
1.574267578125
1.5807128906249999
1.6427490234375
1.80791015625
1.722509765625
1.654833984375
1.5782958984375
1.5331787109375
1.5597656249999998
1.6209960937499999
1.561376953125
1.5218994140625
1.56298828125
1.56298828125
1.5702392578125
1.5476806640624998
1.5186767578125
1.5734619140625
1.7893798828124998
1.6693359374999999
1.6072998046875
1.6000488281249998
1.5412353515625
1.4864501953125
1.3849365234375
1.3510986328124999
1.4252197265625
1.493701171875
1.5146484375
1.5589599609375
1.571044921875
1.5275390624999998
1.5057861328125
1.5243164062499999
1.55009765625
1.571044921875
1.5597656249999998
1.5718505859374998
1.448583984375
1.3954101562499999
1.496923828125
1.5364013671874999
1.56298828125
1.525927734375
1.603271484375
1.7893798828124998
1.7072021484375
1.6508056640625
1.5927978515624999
1.5807128906249999
1.5766845703124999
1.545263671875
1.5734619140625
1.5670166015625
1.5323730468749999
1.5589599609375
1.5267333984375
1.5396240234374998
1.5573486328125
1.55009765625
1.7023681640625
1.619384765625
1.6169677734374999
1.587158203125
1.5678222656249998
1.546875
1.4219970703125
1.3905761718749998
1.4751708984374998
1.525927734375
1.5073974609374998
1.477587890625
1.4864501953125
1.5678222656249998
1.609716796875
1.6008544921874999
1.5654052734375
1.5565429687499999
1.5380126953125
1.5162597656249999
1.4928955078125
1.3551269531249999
1.4590576171874998
1.5283447265624999
1.5396240234374998
1.5533203125
1.611328125
1.7603759765625
1.7619873046874999
1.6556396484375
1.611328125
1.5597656249999998
1.5799072265624998
1.558154296875
1.5114257812499998
1.5267333984375
1.538818359375
1.6000488281249998
1.5718505859374998
1.55009765625
1.5484863281249999
1.5621826171875
1.7474853515625
1.6306640625
1.5887695312499999
1.603271484375
1.545263671875
1.4735595703125
1.413134765625
1.384130859375
1.4953124999999998
1.4848388671875
1.5235107421874998
1.5218994140625
1.509814453125
1.5557373046874998
1.5541259765625
1.5831298828125
1.6040771484374998
1.5678222656249998
1.554931640625
1.5009521484375
1.5218994140625
1.2955078125
1.4679199218749999
1.5154541015624998
1.4888671875
1.5484863281249999
1.56943359375
1.796630859375
1.7507080078125
1.683837890625
1.5573486328125
1.5218994140625
1.5541259765625
1.5847412109374999
1.5726562499999999
1.5484863281249999
1.5170654296875
1.5380126953125
1.561376953125
1.538818359375
1.5597656249999998
1.5654052734375
1.7652099609374998
1.690283203125
1.62744140625
1.587158203125
1.5799072265624998
1.4953124999999998
1.4010498046875
1.4228027343749998
1.4558349609374999
1.4945068359375
1.4961181640624999
1.4719482421874999
1.4719482421874999
1.5460693359375
1.513037109375
1.5484863281249999
1.5670166015625
1.5589599609375
1.56943359375
1.5484863281249999
1.5509033203125
1.3873535156249999
1.4526123046875
1.4719482421874999
1.5009521484375
1.56943359375
1.611328125
1.7136474609374999
1.7176757812499999
1.6935058593749999
1.6371093749999999
1.6081054687499998
1.5533203125
1.58232421875
1.5750732421875
1.5645996093749999
1.574267578125
1.5396240234374998
1.5444580078124999
1.5331787109375
1.558154296875
1.58232421875
1.75634765625
1.6935058593749999
1.60166015625
1.56943359375
1.5380126953125
1.4993408203124998
1.4679199218749999
1.456640625
1.3954101562499999
1.43408203125
1.4928955078125
1.5573486328125
1.5146484375
1.5355957031249998
1.538818359375
1.577490234375
1.5919921874999998
1.5573486328125
1.5525146484374999
1.5541259765625
1.513037109375
1.3591552734374999
1.3921875
1.533984375
1.4953124999999998
1.5686279296874999
1.5734619140625
1.6105224609375
1.7442626953125
1.6806152343749998
1.611328125
1.5944091796875
1.6000488281249998
1.5847412109374999
1.5557373046874998
1.5758789062499998
1.5734619140625
1.5380126953125
1.5645996093749999
1.5444580078124999
1.5146484375
1.5057861328125
1.5758789062499998
1.7104248046875
1.609716796875
1.6000488281249998
1.5533203125
1.5082031249999999
1.49853515625
1.4501953125
1.482421875
1.5154541015624998
1.546875
1.5364013671874999
1.5533203125
1.5331787109375
1.545263671875
1.4977294921875
1.506591796875
1.53720703125
1.577490234375
1.5791015625
1.538818359375
1.3833251953124999
1.3849365234375
1.4751708984374998
1.5355957031249998
1.5073974609374998
1.5557373046874998
1.5911865234375
1.791796875
1.6806152343749998
1.5927978515624999
1.5533203125
1.561376953125
1.56943359375
1.5025634765625
1.5678222656249998
1.5275390624999998
1.5686279296874999
1.5492919921875
1.59521484375
1.5968261718749999
1.6266357421875
1.6282470703124998
1.7418457031249999
1.66611328125
1.6048828124999999
1.5670166015625
1.4864501953125
1.474365234375
1.44052734375
1.3946044921874998
1.47275390625
1.4759765624999999
1.4928955078125
1.5090087890625
1.5283447265624999
1.5283447265624999
1.5444580078124999
1.5573486328125
1.6072998046875
1.5565429687499999
1.5404296874999999
1.5218994140625
1.5194824218749998
1.4010498046875
1.4284423828125
1.477587890625
1.480810546875
1.5533203125
1.6177734375
1.7797119140625
1.7362060546875
1.6451660156249999
1.6524169921874998
1.6209960937499999
1.5702392578125
1.5992431640625
1.5517089843749998
1.5533203125
1.5364013671874999
1.5202880859374999
1.538818359375
1.5436523437499998
1.5404296874999999
1.5428466796875
1.7104248046875
1.6306640625
1.59521484375
1.5968261718749999
1.5734619140625
1.5436523437499998
1.4590576171874998
1.4171630859375
1.4187744140624998
1.4550292968749998
1.4888671875
1.49853515625
1.5082031249999999
1.5807128906249999
1.538818359375
1.545263671875
1.5033691406249998
1.5170654296875
1.5863525390625
1.5807128906249999
1.5484863281249999
1.3470703124999999
1.4711425781249998
1.522705078125
1.5146484375
1.5082031249999999
1.5589599609375
1.7120361328125
1.7337890624999999
1.6137451171875
1.574267578125
1.6121337890624998
1.5758789062499998
1.5807128906249999
1.5766845703124999
1.5589599609375
1.5670166015625
1.6242187499999998
1.658056640625
1.6475830078125
1.6322753906249998
1.5533203125
1.703173828125
1.625830078125
1.5573486328125
1.542041015625
1.5347900390625
1.496923828125
1.4074951171874999
1.409912109375
1.4542236328125
1.5082031249999999
1.5960205078124998
1.5621826171875
1.53076171875
1.5267333984375
1.5170654296875
1.5283447265624999
1.496923828125
1.5267333984375
1.5589599609375
1.55009765625
1.5541259765625
1.3237060546875
1.4139404296875
1.4928955078125
1.4912841796874998
1.5299560546875
1.5782958984375
1.7088134765624998
1.7378173828124999
1.667724609375
1.6306640625
1.5831298828125
1.5919921874999998
1.622607421875
1.590380859375
1.554931640625
1.5444580078124999
1.5863525390625
1.577490234375
1.5879638671874998
1.5380126953125
1.5283447265624999
1.72734375
1.7096191406249999
1.5944091796875
1.5984375
1.5509033203125
1.461474609375
1.4364990234375
1.4437499999999999
1.4268310546874998
1.4316650390624999
1.4816162109375
1.545263671875
1.529150390625
1.5791015625
1.590380859375
1.571044921875
1.5670166015625
1.5315673828124998
1.525927734375
1.5243164062499999
1.5605712890624999
1.3527099609375
1.4469726562499998
1.53076171875
1.5082031249999999
1.513037109375
1.5791015625
1.6588623046875
1.8062988281249999
1.69189453125
1.6314697265625
1.5927978515624999
1.5758789062499998
1.5492919921875
1.5082031249999999
1.5533203125
1.56943359375
1.56298828125
1.5323730468749999
1.5106201171875
1.5436523437499998
1.5839355468749998
1.7692382812499998
1.7772949218749998
1.654833984375
1.6330810546874999
1.5533203125
1.4945068359375
1.4550292968749998
1.3768798828125
1.3551269531249999
1.3986328124999998
1.4558349609374999
1.4872558593749998
1.49853515625
1.5186767578125
1.56298828125
1.5645996093749999
1.5645996093749999
1.56943359375
1.5863525390625
1.609716796875
1.5887695312499999
1.34384765625
1.335791015625
1.4316650390624999
1.4655029296875
1.5017578125
1.5863525390625
1.61455078125
1.8151611328125
1.764404296875
1.6483886718749998
1.5984375
1.5589599609375
1.533984375
1.4840332031249999
1.5154541015624998
1.4872558593749998
1.5670166015625
1.5541259765625
1.5605712890624999
1.5645996093749999
1.5984375
1.5766845703124999
1.844970703125
1.706396484375
1.6435546875
1.6282470703124998
1.5573486328125
1.4397216796874999
1.3639892578125
1.2963134765625
1.397021484375
1.409912109375
1.4655029296875
1.448583984375
1.4308593749999998
1.4977294921875
1.577490234375
1.5476806640624998
1.5726562499999999
1.542041015625
1.558154296875
1.5637939453124998
1.3156494140625
1.219775390625
1.3527099609375
1.397021484375
1.4155517578124999
1.561376953125
1.6588623046875
1.9666259765624998
1.9311767578124999
1.82080078125
1.6967285156249998
1.6072998046875
1.561376953125
1.5412353515625
1.542041015625
1.5396240234374998
1.561376953125
1.5766845703124999
1.5702392578125
1.5355957031249998
1.4912841796874998
1.5251220703125
1.91748046875
1.8949218749999999
1.7474853515625
1.6564453124999998
1.5662109375
1.377685546875
1.224609375
1.147265625
1.1786865234375
1.24072265625
1.368017578125
1.4195800781249999
1.377685546875
1.3414306640625
1.2947021484374999
1.1512939453125
1.187548828125
1.1029541015625
1.106982421875
1.0916748046875
1.123095703125
0.4318359375
0.23283691406249998
0.088623046875
0.040283203125
0.038671874999999994
0.1119873046875
0.5277099609375
0.9192626953124999
1.27294921875
1.4953124999999998
1.6218017578125
1.8498046874999998
1.941650390625
1.972265625
2.1277587890625
2.180126953125
2.1849609375
2.1624023437499997
2.1422607421874997
2.11728515625
2.0947265625
2.7223388671874997
2.969677734375
3.0478271484375
3.04541015625
3.0446044921874997
3.04541015625
2.7610107421874996
2.4081298828124997
2.1487060546875
1.8981445312499998
1.61455078125
1.368017578125
1.219775390625
1.0328613281249999
0.9692138671874999
0.9168457031249999
0.8612548828125
0.8773681640625
0.9168457031249999
0.9603515625
0.9676025390624999
0.3311279296875
0.175634765625
0.040283203125
0.042700195312499994
0.040283203125
0.040283203125
0.4600341796875
0.9289306640624999
1.1923828125
1.409912109375
1.5484863281249999
1.6935058593749999
1.8135498046874998
1.9779052734375
1.9924072265625
1.9617919921875
2.0165771484375
2.0657226562499997
2.0471923828125
2.0616943359374997
2.070556640625
2.457275390625
2.7650390624999996
3.0204345703124997
3.0470214843749996
3.043798828125
2.9712890625
2.6449951171875
2.2969482421875
1.9489013671875
1.748291015625
1.554931640625
1.477587890625
1.18916015625
1.15048828125
1.06025390625
1.0707275390625
1.0078857421875
0.894287109375
0.9208740234374999
0.910400390625
0.9337646484375
0.517236328125
0.11359863281249999
0.0394775390625
0.0394775390625
0.0378662109375
0.0362548828125
0.2513671875
0.7806884765625
1.1400146484375
1.361572265625
1.4791992187499998
1.61455078125
1.7217041015624999
1.7410400390624998
1.8377197265624998
1.7813232421874998
1.8900878906249998
2.0326904296875
2.0584716796875
2.0431640625
2.0681396484375
2.386376953125
2.7465087890624997
2.9068359375
3.0172119140625
3.0470214843749996
3.04541015625
2.9712890625
2.5322021484375
2.2590820312499997
1.9787109374999998
1.7015624999999999
1.525927734375
1.493701171875
1.405078125
1.3301513671874998
1.2052734375
1.0739501953125
1.0812011718749999
1.0401123046875
0.9998291015624999
0.9893554687499999
0.5937744140625
0.22075195312499998
0.1119873046875
0.040283203125
0.043505859375
0.040283203125
0.265869140625
0.8185546874999999
1.1279296875
1.3704345703124998
1.5847412109374999
1.7096191406249999
1.8312744140625
1.9005615234375
1.94970703125
1.964208984375
2.0181884765625
2.0052978515624997
2.0689453125
2.054443359375
2.00771484375
2.0020751953125
2.4927246093749997
2.7062255859374997
2.8713867187499997
2.99384765625
2.9592041015625
2.9277832031249997
2.6514404296875
2.3074218749999997
2.015771484375
1.783740234375
1.5678222656249998
1.3784912109374998
1.2584472656249999
1.1859374999999999
1.164990234375
1.0836181640625
1.058642578125
1.0812011718749999
1.0062744140625
0.9861328125
0.894287109375
0.091845703125
0.042700195312499994
0.040283203125
0.040283203125
0.040283203125
0.11923828125
0.5696044921875
1.058642578125
1.2737548828124998
1.3784912109374998
1.5243164062499999
1.67578125
1.7176757812499999
1.79501953125
1.9513183593749999
1.9843505859375
2.1229248046875
2.0689453125
2.1084228515625
2.0649169921875
2.0584716796875
2.616796875
2.76826171875
2.9495361328125
3.0462158203125
3.0010986328125
2.96162109375
2.634521484375
2.3404541015625
2.0633056640625
1.7619873046874999
1.6040771484374998
1.4195800781249999
1.2568359375
1.1126220703125
1.018359375
0.994189453125
1.0320556640625
1.0159423828125
1.0111083984375
1.019970703125
0.9861328125
0.26103515625
0.045117187499999996
0.040283203125
0.041088867187499996
0.040283203125
0.040283203125
0.5043457031249999
0.837890625
1.1126220703125
1.3156494140625
1.55009765625
1.7426513671875
1.815966796875
1.883642578125
1.964208984375
2.035107421875
1.9916015624999999
2.023828125
2.0334960937499997
2.0600830078125
2.0649169921875
2.5152832031249996
2.8431884765624997
3.0075439453125
3.0470214843749996
3.0486328124999997
3.0510498046874996
2.7908203124999997
2.4911132812499996
2.1454833984375
1.8973388671875
1.6653076171874999
1.5041748046874999
1.3349853515624999
1.155322265625
1.0755615234375
0.9732421874999999
0.966796875
0.929736328125
0.8701171875
0.8789794921874999
0.8314453125
0.19094238281249998
0.08942871093749999
0.040283203125
0.037060546874999996
0.0378662109375
0.040283203125
0.1796630859375
0.8370849609375
1.1641845703125
1.4397216796874999
1.53720703125
1.6282470703124998
1.764404296875
1.893310546875
2.0520263671875
2.1132568359375
2.1664306640624997
2.1624023437499997
2.1906005859374997
2.244580078125
2.176904296875
2.5305908203125
2.8238525390625
2.9350341796875
3.0446044921874997
3.04541015625
3.04541015625
2.9044189453125
2.663525390625
2.2510253906249997
1.8755859375
1.699951171875
1.5218994140625
1.3188720703124999
1.21171875
1.1142333984375
1.0207763671874999
1.036083984375
1.0376953125
0.9901611328125
0.9337646484375
0.9313476562499999
0.4833984375
0.1571044921875
0.043505859375
0.037060546874999996
0.037060546874999996
0.042700195312499994
0.103125
0.6767578125
1.00546875
1.2834228515625
1.482421875
1.5509033203125
1.6612792968749999
1.7587646484375
1.8393310546875
1.7579589843749999
1.9327880859375
1.94970703125
1.972265625
1.9867675781249998
2.0036865234375
2.099560546875
2.7674560546875
2.96484375
3.043798828125
3.0478271484375
3.043798828125
2.972900390625
2.6860839843749997
2.244580078125
1.9182861328124998
1.6483886718749998
1.49853515625
1.3422363281249998
1.24072265625
1.1134277343749999
1.077978515625
0.94423828125
0.9087890624999999
0.9498779296875
0.8701171875
0.8765624999999999
0.359326171875
0.0459228515625
0.040283203125
0.040283203125
0.0443115234375
0.0394775390625
0.14824218749999998
0.7798828124999999
1.0610595703124999
1.26328125
1.377685546875
1.5605712890624999
1.65
1.8232177734375
1.948095703125
1.9795166015624999
2.05927734375
1.9891845703125
1.9134521484375
1.928759765625
1.9134521484375
1.9303710937499998
2.5587890625
2.784375
2.9116699218749997
3.0357421875
3.043798828125
2.9882080078124997
2.6941406249999997
2.3436767578124997
2.0359130859375
1.7853515624999998
1.6048828124999999
1.400244140625
1.213330078125
1.1279296875
1.052197265625
0.9353759765624999
0.9547119140625
0.9208740234374999
0.8668945312499999
0.9112060546874999
0.8523925781249999
0.1506591796875
0.040283203125
0.043505859375
0.04189453125
0.040283203125
0.038671874999999994
0.5389892578125
0.9152343749999999
1.134375
1.329345703125
1.432470703125
1.5218994140625
1.6363037109374998
1.732177734375
1.7571533203124998
1.7942138671874999
1.843359375
1.9190917968749999
1.9625976562499998
1.9529296875
1.9432617187499999
2.4790283203124996
2.82626953125
2.9156982421874997
3.0413818359375
3.050244140625
3.0357421875
2.7706787109374997
2.39765625
2.1060058593749997
1.9086181640625
1.7023681640625
1.4590576171874998
1.3551269531249999
1.2689208984375
1.1456542968749999
1.119873046875
1.1375976562499999
1.0997314453125
1.03447265625
1.04736328125
1.0546142578125
0.38349609375
0.1780517578125
0.041088867187499996
0.040283203125
0.041088867187499996
0.0378662109375
0.28359375
0.8338623046875
1.0650878906249999
1.24072265625
1.5138427734375
1.6363037109374998
1.77568359375
1.82724609375
1.9029785156249999
1.9062011718749998
1.9537353515625
1.9617919921875
2.0020751953125
2.0633056640625
2.022216796875
2.4484130859374997
2.7207275390624996
2.9326171875
3.043798828125
3.0462158203125
3.043798828125
2.7521484375
2.4943359375
2.29453125
1.9384277343749998
1.8071044921875
1.625830078125
1.397021484375
1.30517578125
1.235888671875
1.142431640625
1.1706298828125
1.0981201171875
1.1335693359374999
1.0803955078125
1.0723388671875
0.6211669921874999
0.23122558593749998
0.13615722656249998
0.0394775390625
0.040283203125
0.0394775390625
0.28037109374999997
0.6920654296875
1.0352783203125
1.2656982421874998
1.3929931640625
1.5484863281249999
1.7200927734375
1.799853515625
1.89169921875
1.9078125
1.9513183593749999
1.9279541015625
1.9545410156249998
1.9400390625
1.9021728515624998
2.0939208984374997
2.608740234375
2.7207275390624996
2.874609375
2.9970703125
2.9414794921875
2.9189208984375
2.6441894531249996
2.2590820312499997
1.9706542968749998
1.7716552734375
1.6636962890625
1.5355957031249998
1.42119140625
1.3212890625
1.2060791015624999
1.2101074218749999
1.168212890625
1.1158447265625
1.1609619140625
1.1271240234375
0.717041015625
0.3520751953125
0.1490478515625
0.041088867187499996
0.041088867187499996
0.040283203125
0.062841796875
0.6308349609374999
0.9329589843749999
1.18271484375
1.3728515625
1.5436523437499998
1.622607421875
1.6951171875
1.748291015625
1.7587646484375
1.786962890625
1.791796875
1.8022705078124999
1.8417480468749998
1.9102294921874998
1.9924072265625
2.5805419921875
2.7489257812499996
3.0164062499999997
3.050244140625
3.0470214843749996
2.9761230468749997
2.727978515625
2.4169921875
2.015771484375
1.7821289062499999
1.6185791015625
1.4896728515625
1.2890625
1.2310546875
1.16337890625
1.119873046875
1.0248046874999999
1.0449462890624999
1.0159423828125
1.0143310546875
0.903955078125
0.2771484375
0.041088867187499996
0.043505859375
0.0394775390625
0.043505859375
0.0555908203125
0.578466796875
0.94423828125
1.2890625
1.4920898437499999
1.6475830078125
1.7507080078125
1.7877685546875
1.861083984375
1.9666259765624998
1.9875732421874999
1.95615234375
1.9311767578124999
1.9601806640625
2.01416015625
2.0197998046875
2.6321044921874996
2.811767578125
2.9737060546875
3.0478271484375
3.0470214843749996
3.0462158203125
2.7980712890625
2.4234375
2.099560546875
1.8489990234375
1.5887695312499999
1.3849365234375
1.3172607421875
1.164990234375
1.216552734375
1.1045654296875
1.0505859375
0.9974121093749999
0.9998291015624999
1.0006347656249999
0.903955078125
0.21914062499999998
0.06767578125
0.0394775390625
0.040283203125
0.04189453125
0.038671874999999994
0.5285156249999999
0.8483642578124999
1.1214843749999999
1.34384765625
1.4920898437499999
1.635498046875
1.8224121093749999
1.8248291015625
1.8900878906249998
1.880419921875
1.96904296875
2.0197998046875
1.9392333984374999
1.944873046875
1.9327880859375
2.431494140625
2.6788330078125
2.9269775390625
3.0478271484375
3.0446044921874997
3.04541015625
2.7972656249999996
2.4943359375
2.2582763671875
1.9360107421875
1.7362060546875
1.5702392578125
1.3792968749999999
1.3317626953125
1.2495849609374998
1.1577392578124999
1.1319580078125
1.061865234375
1.0409179687499999
1.03447265625
0.974853515625
0.476953125
0.1409912109375
0.043505859375
0.042700195312499994
0.038671874999999994
0.040283203125
0.1732177734375
0.6670898437499999
1.0489746093749999
1.1996337890625
1.3817138671875
1.4945068359375
1.6822265625
1.819189453125
1.8699462890624998
1.8973388671875
1.9134521484375
1.8892822265625
1.8884765625
1.9432617187499999
1.9223144531249998
2.4306884765625
2.747314453125
2.9326171875
3.04541015625
3.0494384765625
3.0429931640624996
2.9841796874999997
2.518505859375
2.2228271484374997
1.9617919921875
1.738623046875
1.571044921875
1.3470703124999999
1.187548828125
1.0852294921874999
1.0143310546875
1.019970703125
0.9982177734375
1.0433349609375
1.0046630859374999
1.00224609375
0.5551025390625
0.24814453125
0.0845947265625
0.040283203125
0.0378662109375
0.040283203125
0.17080078124999998
0.6912597656249999
0.9015380859375
1.084423828125
1.351904296875
1.490478515625
1.6169677734374999
1.7587646484375
1.8369140625
1.9545410156249998
2.022216796875
2.0415527343749997
2.070556640625
2.080224609375
2.0947265625
2.2921142578125
2.7730957031249996
2.9865966796874996
3.0462158203125
3.0470214843749996
3.0470214843749996
2.940673828125
2.6852783203125
2.4081298828124997
2.135009765625
1.877197265625
1.6943115234375
1.5162597656249999
1.4493896484375
1.3043701171875
1.2052734375
1.1279296875
1.1287353515625
1.0328613281249999
0.978076171875
1.003857421875
0.7879394531249999
0.198193359375
0.041088867187499996
0.0394775390625
0.0394775390625
0.043505859375
0.0378662109375
0.5712158203125
0.9418212890625
1.0787841796875
1.2101074218749999
1.3349853515624999
1.5025634765625
1.6636962890625
1.687060546875
1.7861572265624999
1.8054931640624998
1.8417480468749998
1.9311767578124999
1.9271484374999999
1.9432617187499999
1.9706542968749998
2.591015625
2.7424804687499997
2.8874999999999997
3.0462158203125
3.04541015625
2.977734375
2.7787353515624997
2.3485107421875
2.1019775390624997
1.7893798828124998
1.59521484375
1.4115234374999999
1.219775390625
1.095703125
1.0828125
1.0127197265624999
1.090869140625
1.1255126953124999
1.1480712890625
1.1061767578125
0.968408203125
0.3762451171875
0.2263916015625
0.0394775390625
0.040283203125
0.041088867187499996
0.04189453125
0.49467773437499996
0.8749511718749999
1.1239013671875
1.3752685546874999
1.4437499999999999
1.49853515625
1.5992431640625
1.812744140625
1.928759765625
2.012548828125
2.023828125
2.0665283203125
1.94970703125
2.0254394531249997
1.964208984375
2.5007812499999997
2.7424804687499997
2.9688720703125
3.04541015625
3.0164062499999997
3.0252685546875
2.7892089843749996
2.4951416015624996
2.0979492187499997
1.848193359375
1.6927001953124998
1.4993408203124998
1.3180664062499998
1.2076904296875
1.1964111328125
1.16015625
1.0731445312499999
1.1255126953124999
1.1537109374999999
1.03447265625
1.0191650390625
0.488232421875
0.1973876953125
0.040283203125
0.0362548828125
0.040283203125
0.038671874999999994
0.2570068359375
0.6638671875
1.068310546875
1.3092041015625
1.456640625
1.5968261718749999
1.6935058593749999
1.8151611328125
1.928759765625
1.9376220703125
1.960986328125
1.9625976562499998
2.02060546875
2.0149658203125
2.015771484375
2.50400390625
2.7521484375
2.9108642578125
3.0462158203125
3.0478271484375
3.0421875
2.9430908203125
2.5313964843749996
2.2324951171875
1.9400390625
1.7531249999999998
1.546875
1.377685546875
1.281005859375
1.1384033203125
1.0650878906249999
1.0916748046875
1.1271240234375
1.0650878906249999
1.0562255859375
1.074755859375
0.6227783203124999
0.372216796875
0.19255371093749998
0.0523681640625
0.0362548828125
0.043505859375
0.4004150390625
0.8306396484374999
1.100537109375
1.35673828125
1.493701171875
1.6121337890624998
1.7249267578124998
1.8417480468749998
1.8844482421875
1.9730712890625
1.9424560546874998
1.9231201171874999
1.8739746093749998
1.9424560546874998
1.9086181640625
2.1704589843749997
2.624853515625
2.8834716796874997
3.04541015625
3.0478271484375
3.0470214843749996
2.972900390625
2.7005859374999996
2.2663330078125
1.9996582031249999
1.8046875
1.6363037109374998
1.3478759765625
1.2930908203125
1.2262207031249999
1.03125
0.97646484375
0.984521484375
0.9885498046875
1.0062744140625
0.9603515625
0.6002197265625
0.103125
0.041088867187499996
0.038671874999999994
0.0394775390625
0.043505859375
0.1119873046875
0.6010253906249999
0.9917724609374999
1.252001953125
1.3978271484375
1.625830078125
1.78857421875
1.843359375
1.9303710937499998
2.0085205078125
2.022216796875
2.0246337890625
2.0536376953124997
2.044775390625
2.035107421875
2.152734375
2.6127685546875
2.7674560546875
2.9326171875
3.0478271484375
3.0429931640624996
3.0470214843749996
2.666748046875
2.341259765625
2.1221191406249997
1.8304687499999999
1.6411376953124999
1.5275390624999998
1.405078125
1.1996337890625
1.1375976562499999
1.036083984375
0.968408203125
0.9982177734375
0.9812988281249999
0.945849609375
0.607470703125
0.08620605468749999
0.04189453125
0.040283203125
0.040283203125
0.040283203125
0.041088867187499996
0.5953857421875
0.865283203125
1.1496826171874999
1.426025390625
1.5645996093749999
1.6443603515624998
1.8280517578125
1.8216064453124998
1.8981445312499998
1.9150634765624999
1.9327880859375
1.98837890625
2.0616943359374997
2.07861328125
2.1076171875
2.6578857421874997
2.9720947265624997
3.043798828125
3.0494384765625
3.0462158203125
2.9849853515625
2.7134765625
2.425048828125
2.0657226562499997
1.832080078125
1.6290527343749999
1.3688232421875
1.216552734375
1.0892578124999999
1.044140625
0.9031494140624999
0.926513671875
0.8918701171875
0.903955078125
0.94423828125
0.9402099609375
0.3311279296875
0.0668701171875
0.040283203125
0.0443115234375
0.038671874999999994
0.040283203125
0.41733398437499997
0.9289306640624999
1.1802978515625
1.332568359375
1.5146484375
1.6822265625
1.8280517578125
1.8635009765625
1.9432617187499999
1.980322265625
2.006103515625
2.0359130859375
1.9972412109375
1.9811279296875
1.9948242187499998
2.5152832031249996
2.8125732421875
2.98740234375
3.0486328124999997
3.0462158203125
3.0470214843749996
2.8480224609375
2.4830566406249996
2.1889892578125
1.9529296875
1.6177734375
1.461474609375
1.3156494140625
1.198828125
1.1190673828125
1.0352783203125
0.9692138671874999
1.0078857421875
0.968408203125
0.9885498046875
1.0642822265625
0.43505859375
0.1861083984375
0.040283203125
0.04189453125
0.041088867187499996
0.040283203125
0.3198486328125
0.7138183593749999
1.0320556640625
1.327734375
1.496923828125
1.5791015625
1.72412109375
1.8312744140625
1.9625976562499998
1.9166748046875
1.925537109375
1.9601806640625
2.0044921875
1.9948242187499998
1.9601806640625
2.296142578125
2.6361328124999996
2.8206298828125
3.0043212890624997
3.0478271484375
3.0446044921874997
2.8536621093749996
2.6522460937499996
2.2107421874999997
1.9875732421874999
1.8087158203125
1.6266357421875
1.3736572265625
1.3140380859374998
1.1738525390624999
1.0731445312499999
1.134375
1.1287353515625
1.0352783203125
0.9635742187499999
0.9249023437499999
0.4809814453125
0.1168212890625
0.0394775390625
0.0394775390625
0.043505859375
0.040283203125
0.049951171875
0.6429199218749999
1.0763671875
1.297119140625
1.348681640625
1.509814453125
1.61455078125
1.66611328125
1.6830322265625
1.877197265625
1.851416015625
1.912646484375
2.0020751953125
2.0093261718749997
2.023828125
2.2486083984375
2.63935546875
2.7948486328124997
2.9688720703125
3.04541015625
3.04541015625
2.9414794921875
2.560400390625
2.2236328125
1.9859619140625
1.7571533203124998
1.61455078125
1.474365234375
1.4034667968749999
1.3253173828125
1.2342773437499999
1.2101074218749999
1.132763671875
1.1053710937499999
1.1222900390625
1.0675048828125
0.72509765625
0.36174316406249996
0.19255371093749998
0.040283203125
0.040283203125
0.0394775390625
0.042700195312499994
0.688037109375
1.026416015625
1.2399169921875
1.4026611328124998
1.522705078125
1.5807128906249999
1.7861572265624999
1.8240234375
1.8925048828125
1.9408447265625
2.028662109375
1.993212890625
2.0955322265625
2.0085205078125
1.9907958984374998
2.615185546875
2.8077392578125
3.003515625
3.0462158203125
3.04541015625
2.9358398437499997
2.6997802734375
2.3839599609374997
2.0407470703125
1.9037841796875
1.7571533203124998
1.448583984375
1.3156494140625
1.26328125
1.1996337890625
1.1295410156249999
1.0981201171875
1.058642578125
1.0578369140625
1.074755859375
1.09892578125
0.32065429687499997
0.1087646484375
0.040283203125
0.040283203125
0.040283203125
0.037060546874999996
0.32065429687499997
0.816943359375
1.06669921875
1.2769775390625
1.4526123046875
1.5347900390625
1.7450683593749998
1.8022705078124999
1.9086181640625
1.9698486328125
1.931982421875
1.98515625
1.9408447265625
1.9811279296875
2.015771484375
2.52978515625
2.7030029296875
2.8778320312499996
3.0421875
3.0486328124999997
3.0429931640624996
2.824658203125
2.47177734375
2.2308837890624997
1.8739746093749998
1.6218017578125
1.4622802734375
1.3494873046875
1.2052734375
1.2044677734375
1.134375
1.0376953125
0.9756591796874999
1.0175537109375
1.0328613281249999
1.010302734375
0.423779296875
0.2038330078125
0.041088867187499996
0.040283203125
0.040283203125
0.04189453125
0.359326171875
0.8040527343749999
1.0981201171875
1.316455078125
1.400244140625
1.56943359375
1.7499023437499999
1.7490966796874998
1.8369140625
1.8667236328124999
1.9529296875
2.012548828125
2.0085205078125
2.01416015625
2.0343017578125
2.367041015625
2.721533203125
2.8883056640625
3.01962890625
3.043798828125
3.04541015625
2.8939453124999996
2.5877929687499996
2.165625
1.9343994140624998
1.7474853515625
1.5484863281249999
1.3672119140624999
1.2898681640624998
1.1698242187499999
1.0594482421875
0.9240966796875
0.8999267578125
0.8668945312499999
0.837890625
0.894287109375
0.3746337890625
0.18288574218749998
0.043505859375
0.0394775390625
0.0378662109375
0.041088867187499996
0.0765380859375
0.694482421875
1.0626708984375
1.2399169921875
1.4187744140624998
1.5782958984375
1.6806152343749998
1.8095214843749998
1.972265625
2.0214111328124997
1.9295654296875
1.98837890625
1.9875732421874999
1.9545410156249998
1.9779052734375
2.3275634765624997
2.647412109375
2.818212890625
3.0405761718749997
3.0470214843749996
3.0470214843749996
2.892333984375
2.57490234375
2.302587890625
1.880419921875
1.735400390625
1.5839355468749998
1.480810546875
1.3108154296874999
1.1738525390624999
1.1287353515625
1.042529296875
1.0497802734375
0.9877441406249999
0.9643798828125
0.945849609375
0.5204589843749999
0.201416015625
0.04189453125
0.0394775390625
0.04189453125
0.037060546874999996
0.064453125
0.605859375
0.9321533203125
1.197216796875
1.3656005859375
1.4912841796874998
1.7007568359374998
1.7442626953125
1.835302734375
1.8780029296874998
2.0343017578125
2.12373046875
2.0971435546875
2.1583740234374997
2.118896484375
2.1301757812499997
2.7610107421874996
2.8721923828125
2.9986816406249996
3.0470214843749996
3.043798828125
2.9841796874999997
2.7529541015624996
2.2469970703124997
2.023828125
1.8506103515624999
1.5662109375
1.4671142578124998
1.3510986328124999
1.2745605468749999
1.158544921875
1.100537109375
1.09892578125
1.0465576171875
1.023193359375
1.018359375
0.6678955078125
0.2618408203125
0.0443115234375
0.0394775390625
0.0394775390625
0.041088867187499996
0.0378662109375
0.7259033203124999
1.045751953125
1.2254150390625
1.416357421875
1.5428466796875
1.6717529296875
1.7426513671875
1.7378173828124999
1.80791015625
1.8908935546874999
1.928759765625
2.0214111328124997
1.993212890625
2.0375244140624997
1.9787109374999998
2.5233398437499996
2.6683593749999996
2.89072265625
3.0462158203125
3.029296875
3.0462158203125
2.7585937499999997
2.450830078125
2.1615966796875
1.925537109375
1.6612792968749999
1.490478515625
1.287451171875
1.2503906249999999
1.1295410156249999
1.0836181640625
1.0288330078124999
0.9643798828125
0.990966796875
1.058642578125
1.06025390625
0.452783203125
0.1426025390625
0.0378662109375
0.041088867187499996
0.0362548828125
0.0394775390625
0.310986328125
0.6791748046874999
1.026416015625
1.1964111328125
1.33740234375
1.5484863281249999
1.6250244140624999
1.6636962890625
1.796630859375
1.8796142578125
1.8908935546874999
1.9005615234375
1.8884765625
1.9456787109375
1.9706542968749998
2.5128662109374997
2.7005859374999996
2.8939453124999996
3.0083496093749997
3.043798828125
3.003515625
2.7972656249999996
2.421826171875
2.1277587890625
1.90458984375
1.6685302734374998
1.5404296874999999
1.429248046875
1.2987304687499999
1.2238037109375
1.2189697265625
1.147265625
1.1206787109375
1.07958984375
1.0175537109375
1.0256103515625
0.420556640625
0.1780517578125
0.053173828124999996
0.0394775390625
0.0394775390625
0.0394775390625
0.3907470703125
0.8354736328125
1.1295410156249999
1.3172607421875
1.5484863281249999
1.5992431640625
1.740234375
1.8651123046875
1.9827392578124998
2.0004638671875
1.9996582031249999
2.07216796875
2.07216796875
2.0560546875
2.05283203125
2.358984375
2.6844726562499996
2.8874999999999997
3.0397705078125
3.0462158203125
3.04541015625
2.8939453124999996
2.62646484375
2.281640625
1.8763916015625
1.6636962890625
1.46630859375
1.2737548828124998
1.1690185546875
1.155322265625
1.16015625
0.9788818359375
0.9812988281249999
0.91845703125
0.9313476562499999
0.9289306640624999
0.5260986328125
0.14018554687499998
0.042700195312499994
0.041088867187499996
0.04189453125
0.040283203125
0.143408203125
0.65419921875
1.0570312499999999
1.3019531249999998
1.432470703125
1.6056884765625
1.7410400390624998
1.7684326171875
1.8659179687499998
1.98837890625
1.9948242187499998
2.0302734375
2.03994140625
2.0020751953125
1.989990234375
1.94970703125
2.6143798828125
2.827880859375
2.9865966796874996
3.043798828125
3.027685546875
3.0470214843749996
2.618408203125
2.376708984375
2.1221191406249997
1.8989501953124999
1.6612792968749999
1.55009765625
1.3946044921874998
1.2656982421874998
1.1577392578124999
1.1480712890625
1.1593505859375
1.1295410156249999
1.0948974609375
1.05380859375
0.6292236328124999
0.31743164062499996
0.13212890624999998
0.042700195312499994
0.0394775390625
0.038671874999999994
0.0394775390625
0.6654785156249999
0.9643798828125
1.2270263671875
1.4115234374999999
1.5565429687499999
1.6894775390624999
1.7047851562499998
1.8860595703124998
1.9489013671875
2.02060546875
2.0246337890625
1.964208984375
1.9795166015624999
1.9875732421874999
1.9916015624999999
2.6014892578124997
2.7900146484375
3.001904296875
3.0470214843749996
3.0470214843749996
3.0413818359375
2.78759765625
2.4846679687499997
2.10439453125
1.8796142578125
1.7015624999999999
1.6185791015625
1.5404296874999999
1.5525146484374999
1.5839355468749998
1.6588623046875
1.7168701171874998
1.8417480468749998
2.1615966796875
2.4032958984375
2.5587890625
2.028662109375
2.131787109375
2.1342041015624997
2.1632080078125
2.4363281249999997
2.6844726562499996
3.0494384765625
3.0470214843749996
3.0462158203125
3.0462158203125
3.043798828125
3.04541015625
3.0478271484375
3.0446044921874997
3.0421875
3.0494384765625
3.04541015625
3.0478271484375
3.04541015625
3.0462158203125
3.0462158203125
3.0470214843749996
3.04541015625
3.043798828125
3.0462158203125
3.0486328124999997
3.0470214843749996
3.0478271484375
3.0470214843749996
3.0462158203125
3.04541015625
3.0462158203125
3.0099609375
2.953564453125
2.9438964843749997
2.8464111328125
2.85205078125
2.9205322265625
3.027685546875
3.0462158203125
3.0478271484375
3.04541015625
2.34931640625
2.08505859375
1.7523193359375
1.5057861328125
1.327734375
1.264892578125
1.5154541015624998
1.7652099609374998
1.851416015625
1.85302734375
1.7764892578125
1.6693359374999999
1.55009765625
1.4590576171874998
1.319677734375
1.2777832031249998
1.116650390625
1.0385009765625
1.0304443359375
0.9192626953124999
0.7871337890625
1.0272216796875
1.2479736328125
1.3156494140625
1.281005859375
1.2439453125
1.058642578125
0.825
0.5277099609375
0.191748046875
0.054785156249999994
0.040283203125
0.0378662109375
0.0443115234375
0.0580078125
0.1039306640625
0.14018554687499998
0.2731201171875
0.372216796875
0.4390869140625
0.6098876953125
0.6751464843749999
0.36979980468749996
0.1554931640625
0.2183349609375
0.165966796875
0.285205078125
0.4970947265625
0.7315429687499999
1.5138427734375
1.82080078125
1.9327880859375
2.0012695312499997
2.0407470703125
1.9940185546875
1.8981445312499998
1.791796875
1.7853515624999998
1.6653076171874999
1.5597656249999998
1.5073974609374998
1.4671142578124998
1.3188720703124999
1.47275390625
1.740234375
1.8554443359375
1.9698486328125
1.9215087890625
1.8393310546875
1.4679199218749999
1.229443359375
0.97646484375
0.8000244140624999
0.5679931640625
0.5285156249999999
0.5115966796875
0.594580078125
0.7718261718749999
0.9273193359374999
0.992578125
1.0272216796875
1.1110107421875
1.2060791015624999
1.2439453125
0.9249023437499999
0.7782714843749999
0.7951904296875
0.80888671875
0.8846191406249999
0.974853515625
1.2423339843749999
1.8361083984375
2.152734375
2.3227294921875
2.3267578125
2.296142578125
2.14951171875
1.9625976562499998
1.9110351562499999
1.8054931640624998
1.6508056640625
1.5863525390625
1.5364013671874999
1.5557373046874998
1.4501953125
1.3728515625
1.8683349609375
1.9376220703125
2.047998046875
2.038330078125
1.8626953124999999
1.7265380859375
1.3261230468749998
0.9772705078124999
0.81533203125
0.7476562499999999
0.694482421875
0.7210693359375
0.8258056640625
0.8958984375
1.0803955078125
1.2858398437499998
1.4606689453125
1.533984375
1.4687255859375
1.5251220703125
1.5323730468749999
0.9192626953124999
0.9071777343749999
0.8991210937499999
0.9490722656249999
1.106982421875
1.38896484375
1.90458984375
2.3404541015625
2.3307861328125
2.3275634765624997
2.2083251953125
2.00771484375
1.8884765625
1.71123046875
1.6024658203125
1.5517089843749998
1.509814453125
1.5090087890625
1.4711425781249998
1.41796875
1.4953124999999998
1.9053955078125
1.98515625
2.0230224609375
2.0020751953125
1.9271484374999999
1.7926025390625
1.3180664062499998
0.9877441406249999
0.8757568359375
0.79921875
0.8201660156249999
0.91845703125
1.0417236328125
1.203662109375
1.303564453125
1.5315673828124998
1.6008544921874999
1.6669189453125
1.6081054687499998
1.6242187499999998
1.5807128906249999
1.0006347656249999
0.9208740234374999
0.9571289062499999
1.0707275390625
1.3059814453124998
1.4630859374999998
1.9166748046875
2.1865722656249997
2.260693359375
2.263916015625
2.1019775390624997
2.01416015625
1.8417480468749998
1.732177734375
1.69833984375
1.6314697265625
1.5114257812499998
1.46630859375
1.432470703125
1.4195800781249999
1.445361328125
1.9392333984374999
2.0278564453125
1.9859619140625
1.9658203125
1.85302734375
1.6685302734374998
1.4622802734375
1.2157470703125
1.0820068359375
1.0820068359375
1.0675048828125
1.0449462890624999
1.1303466796875
1.3011474609375
1.3712402343749999
1.4655029296875
1.4703369140625
1.41796875
1.4872558593749998
1.538818359375
1.5033691406249998
1.0376953125
1.0763671875
1.16337890625
1.2262207031249999
1.2769775390625
1.3962158203125
1.8071044921875
2.1664306640624997
2.2510253906249997
2.2099365234375
1.9779052734375
1.8763916015625
1.8014648437499998
1.7184814453125
1.7362060546875
1.5911865234375
1.480810546875
1.5073974609374998
1.5025634765625
1.5243164062499999
1.5267333984375
1.8111328125
1.9891845703125
1.896533203125
1.877197265625
1.7571533203124998
1.5734619140625
1.368017578125
1.173046875
1.0812011718749999
1.074755859375
1.148876953125
1.2415283203124998
1.31162109375
1.393798828125
1.4300537109375
1.5509033203125
1.6209960937499999
1.5670166015625
1.5726562499999999
1.5517089843749998
1.522705078125
1.1754638671875
1.0207763671874999
1.1367919921875
1.2447509765625
1.3478759765625
1.5670166015625
1.56943359375
2.035107421875
2.0858642578124997
2.07216796875
1.9376220703125
1.7901855468749999
1.7490966796874998
1.6588623046875
1.6072998046875
1.622607421875
1.593603515625
1.529150390625
1.5275390624999998
1.5364013671874999
1.5275390624999998
1.7652099609374998
1.9537353515625
1.9198974609375
1.9029785156249999
1.73056640625
1.606494140625
1.47275390625
1.2431396484375
1.1384033203125
1.139208984375
1.1722412109375
1.2463623046874999
1.3414306640625
1.3639892578125
1.4348876953124998
1.5146484375
1.482421875
1.5831298828125
1.5799072265624998
1.5436523437499998
1.533984375
1.229443359375
1.036083984375
1.232666015625
1.287451171875
1.3220947265624998
1.4332763671875
1.5702392578125
1.948095703125
2.0600830078125
2.0052978515624997
1.9553466796874999
1.84013671875
1.754736328125
1.66611328125
1.5887695312499999
1.6201904296874998
1.5347900390625
1.5404296874999999
1.5364013671874999
1.590380859375
1.6443603515624998
1.611328125
1.9086181640625
1.8570556640625
1.8248291015625
1.7764892578125
1.6701416015625
1.5621826171875
1.3712402343749999
1.1545166015625
1.090869140625
1.134375
1.198828125
1.3422363281249998
1.377685546875
1.4356933593749999
1.53720703125
1.5428466796875
1.5565429687499999
1.6185791015625
1.651611328125
1.5766845703124999
1.56298828125
1.074755859375
1.1287353515625
1.2334716796875
1.264892578125
1.4268310546874998
1.5525146484374999
1.989990234375
2.0343017578125
1.9948242187499998
1.9271484374999999
1.864306640625
1.7926025390625
1.7410400390624998
1.625830078125
1.5879638671874998
1.5766845703124999
1.6081054687499998
1.5073974609374998
1.4751708984374998
1.5355957031249998
1.538818359375
1.931982421875
1.9907958984374998
1.8892822265625
1.8361083984375
1.7047851562499998
1.5396240234374998
1.3180664062499998
1.2544189453124999
1.132763671875
1.20849609375
1.30517578125
1.4139404296875
1.4356933593749999
1.5025634765625
1.4880615234374999
1.429248046875
1.5090087890625
1.585546875
1.5791015625
1.5791015625
1.60166015625
1.1448486328125
1.1641845703125
1.24716796875
1.2737548828124998
1.4510009765624998
1.5960205078124998
1.9464843749999998
2.10439453125
2.05283203125
1.9215087890625
1.7458740234374999
1.6588623046875
1.6435546875
1.545263671875
1.5412353515625
1.5541259765625
1.53720703125
1.5621826171875
1.5404296874999999
1.51787109375
1.4759765624999999
1.85947265625
1.8522216796875
1.8578613281249998
1.796630859375
1.6725585937499998
1.5839355468749998
1.409912109375
1.216552734375
1.1738525390624999
1.198828125
1.2826171874999999
1.3905761718749998
1.48564453125
1.5573486328125
1.529150390625
1.5380126953125
1.4832275390624998
1.4953124999999998
1.5122314453124999
1.5412353515625
1.5396240234374998
1.1690185546875
1.2342773437499999
1.3599609375
1.4638916015624999
1.49853515625
1.55009765625
1.8264404296874999
1.9545410156249998
1.9464843749999998
1.8183837890624999
1.74345703125
1.6024658203125
1.5484863281249999
1.5621826171875
1.622607421875
1.6290527343749999
1.56943359375
1.5138427734375
1.509814453125
1.4961181640624999
1.5170654296875
1.7942138671874999
1.880419921875
1.7845458984375
1.75634765625
1.6693359374999999
1.55009765625
1.368017578125
1.3188720703124999
1.2906738281249999
1.2898681640624998
1.3494873046875
1.4058837890625
1.4574462890625
1.46630859375
1.5202880859374999
1.5718505859374998
1.5654052734375
1.5782958984375
1.5082031249999999
1.5122314453124999
1.5283447265624999
1.200439453125
1.2334716796875
1.3019531249999998
1.416357421875
1.4066894531249998
1.6234130859375
1.6951171875
1.9472900390624999
1.8900878906249998
1.7861572265624999
1.65
1.63388671875
1.61455078125
1.5807128906249999
1.635498046875
1.5984375
1.4945068359375
1.5702392578125
1.5678222656249998
1.5315673828124998
1.5122314453124999
1.6588623046875
1.8385253906249999
1.8546386718749999
1.7587646484375
1.6314697265625
1.5460693359375
1.4630859374999998
1.329345703125
1.27294921875
1.319677734375
1.3913818359374999
1.3897705078125
1.4920898437499999
1.4872558593749998
1.50498046875
1.545263671875
1.6121337890624998
1.6306640625
1.6266357421875
1.5726562499999999
1.5041748046874999
1.3027587890624999
1.1674072265625
1.3623779296874998
1.4091064453125
1.4920898437499999
1.5702392578125
1.6330810546874999
1.8788085937499999
1.8925048828125
1.796630859375
1.6878662109375
1.6024658203125
1.6048828124999999
1.6250244140624999
1.6024658203125
1.6218017578125
1.546875
1.5001464843749999
1.5645996093749999
1.5863525390625
1.5637939453124998
1.5436523437499998
1.8506103515624999
1.748291015625
1.66611328125
1.6040771484374998
1.571044921875
1.5106201171875
1.3148437499999999
1.3317626953125
1.3591552734374999
1.4510009765624998
1.4872558593749998
1.4759765624999999
1.4800048828124999
1.5267333984375
1.5082031249999999
1.5347900390625
1.5815185546875
1.603271484375
1.574267578125
1.5766845703124999
1.3623779296874998
1.1996337890625
1.3333740234375
1.40830078125
1.4630859374999998
1.5355957031249998
1.6653076171874999
1.909423828125
1.8989501953124999
1.7934082031249998
1.6967285156249998
1.6040771484374998
1.5645996093749999
1.6306640625
1.546875
1.5541259765625
1.558154296875
1.5355957031249998
1.546875
1.5670166015625
1.49853515625
1.5315673828124998
1.8071044921875
1.79501953125
1.6951171875
1.6636962890625
1.5589599609375
1.4630859374999998
1.3470703124999999
1.313232421875
1.300341796875
1.36962890625
1.4550292968749998
1.51787109375
1.5218994140625
1.5186767578125
1.5412353515625
1.585546875
1.5662109375
1.5202880859374999
1.5476806640624998
1.5484863281249999
1.5750732421875
1.2987304687499999
1.3865478515624998
1.400244140625
1.4767822265625
1.493701171875
1.5766845703124999
1.8183837890624999
1.8602783203125
1.8586669921874999
1.7531249999999998
1.558154296875
1.5815185546875
1.5702392578125
1.525927734375
1.6089111328124999
1.585546875
1.603271484375
1.606494140625
1.4953124999999998
1.529150390625
1.5484863281249999
1.8618896484374998
1.8014648437499998
1.703173828125
1.71123046875
1.6330810546874999
1.513037109375
1.3865478515624998
1.3156494140625
1.2769775390625
1.3083984375
1.400244140625
1.474365234375
1.5025634765625
1.5323730468749999
1.51787109375
1.5557373046874998
1.522705078125
1.5001464843749999
1.5782958984375
1.5251220703125
1.577490234375
1.2399169921875
1.271337890625
1.3470703124999999
1.4638916015624999
1.585546875
1.641943359375
1.80791015625
1.8739746093749998
1.7716552734375
1.699951171875
1.674169921875
1.5645996093749999
1.5154541015624998
1.4888671875
1.5605712890624999
1.5766845703124999
1.5960205078124998
1.58232421875
1.577490234375
1.5589599609375
1.5082031249999999
1.8538330078124998
1.786962890625
1.7289550781249998
1.6669189453125
1.5831298828125
1.5444580078124999
1.5106201171875
1.3817138671875
1.3639892578125
1.351904296875
1.4711425781249998
1.442138671875
1.4244140625
1.5444580078124999
1.5364013671874999
1.5001464843749999
1.56943359375
1.5517089843749998
1.5267333984375
1.5186767578125
1.53720703125
1.2536132812499998
1.2826171874999999
1.40185546875
1.4791992187499998
1.5146484375
1.5589599609375
1.73056640625
1.883642578125
1.8618896484374998
1.7458740234374999
1.6846435546874998
1.5758789062499998
1.5492919921875
1.56943359375
1.5662109375
1.5565429687499999
1.5275390624999998
1.529150390625
1.5170654296875
1.5791015625
1.5557373046874998
1.7474853515625
1.8908935546874999
1.71123046875
1.67578125
1.6209960937499999
1.5492919921875
1.4252197265625
1.35673828125
1.3446533203125
1.4356933593749999
1.46630859375
1.4469726562499998
1.4461669921875
1.4493896484375
1.5057861328125
1.5404296874999999
1.5879638671874998
1.6081054687499998
1.5839355468749998
1.5597656249999998
1.522705078125
1.3510986328124999
1.26328125
1.3873535156249999
1.4389160156249998
1.5331787109375
1.5484863281249999
1.6878662109375
1.8892822265625
1.82080078125
1.7072021484375
1.5654052734375
1.5509033203125
1.5718505859374998
1.6089111328124999
1.625830078125
1.593603515625
1.5605712890624999
1.5041748046874999
1.545263671875
1.59521484375
1.5968261718749999
1.561376953125
1.7531249999999998
1.7692382812499998
1.690283203125
1.6451660156249999
1.5726562499999999
1.4703369140625
1.4010498046875
1.3527099609375
1.348681640625
1.4252197265625
1.4767822265625
1.4590576171874998
1.45341796875
1.4735595703125
1.5033691406249998
1.5605712890624999
1.585546875
1.5678222656249998
1.5702392578125
1.5766845703124999
1.4429443359374998
1.2366943359375
1.3341796874999998
1.4147460937499998
1.474365234375
1.5573486328125
1.638720703125
1.9029785156249999
1.8441650390625
1.7490966796874998
1.6403320312499998
1.6556396484375
1.577490234375
1.6048828124999999
1.6137451171875
1.533984375
1.5235107421874998
1.546875
1.545263671875
1.5396240234374998
1.5702392578125
1.5863525390625
1.8071044921875
1.6975341796874999
1.683837890625
1.5927978515624999
1.538818359375
1.5017578125
1.4228027343749998
1.329345703125
1.3551269531249999
1.3712402343749999
1.4711425781249998
1.43408203125
1.4751708984374998
1.5404296874999999
1.5194824218749998
1.571044921875
1.5734619140625
1.5412353515625
1.5799072265624998
1.5637939453124998
1.4526123046875
1.2640869140625
1.34384765625
1.458251953125
1.496923828125
1.5364013671874999
1.585546875
1.7845458984375
1.8280517578125
1.7990478515625
1.6854492187499999
1.65
1.6290527343749999
1.5919921874999998
1.574267578125
1.5807128906249999
1.5476806640624998
1.5517089843749998
1.5525146484374999
1.546875
1.5460693359375
1.5968261718749999
1.8135498046874998
1.6886718749999998
1.6854492187499999
1.6411376953124999
1.619384765625
1.5202880859374999
1.4606689453125
1.3237060546875
1.3301513671874998
1.3873535156249999
1.46630859375
1.5347900390625
1.5082031249999999
1.5621826171875
1.5404296874999999
1.5436523437499998
1.574267578125
1.5347900390625
1.5323730468749999
1.51787109375
1.5509033203125
1.2721435546875
1.340625
1.44052734375
1.5122314453124999
1.5525146484374999
1.5460693359375
1.738623046875
1.8361083984375
1.7394287109375
1.67578125
1.6048828124999999
1.6322753906249998
1.5944091796875
1.5686279296874999
1.5380126953125
1.5726562499999999
1.61455078125
1.5879638671874998
1.606494140625
1.5484863281249999
1.529150390625
1.7458740234374999
1.7579589843749999
1.6685302734374998
1.6411376953124999
1.593603515625
1.5637939453124998
1.4058837890625
1.3527099609375
1.3575439453125
1.3954101562499999
1.4437499999999999
1.4848388671875
1.490478515625
1.474365234375
1.5404296874999999
1.5396240234374998
1.5267333984375
1.5194824218749998
1.5758789062499998
1.5766845703124999
1.554931640625
1.2592529296875
1.31162109375
1.4284423828125
1.4791992187499998
1.49853515625
1.6250244140624999
1.748291015625
1.8377197265624998
1.740234375
1.654833984375
1.603271484375
1.5557373046874998
1.5283447265624999
1.5992431640625
1.6218017578125
1.5863525390625
1.5807128906249999
1.56298828125
1.5347900390625
1.5484863281249999
1.5218994140625
1.6612792968749999
1.8103271484374999
1.7370117187499998
1.6781982421875
1.5791015625
1.5082031249999999
1.4115234374999999
1.416357421875
1.4123291015625
1.40830078125
1.4501953125
1.4501953125
1.4703369140625
1.4961181640624999
1.5476806640624998
1.571044921875
1.5750732421875
1.5122314453124999
1.5726562499999999
1.4993408203124998
1.5315673828124998
1.3067871093749999
1.3075927734375
1.3929931640625
1.4800048828124999
1.5492919921875
1.5799072265624998
1.6693359374999999
1.8232177734375
1.7724609375
1.7313720703125
1.6435546875
1.6072998046875
1.5726562499999999
1.5807128906249999
1.593603515625
1.611328125
1.6024658203125
1.5509033203125
1.53720703125
1.554931640625
1.546875
1.625830078125
1.8232177734375
1.6910888671875
1.6322753906249998
1.5597656249999998
1.5525146484374999
1.5033691406249998
1.42119140625
1.3825195312499998
1.429248046875
1.4558349609374999
1.461474609375
1.4993408203124998
1.5662109375
1.5557373046874998
1.53076171875
1.50498046875
1.529150390625
1.5702392578125
1.5662109375
1.5146484375
1.4477783203124999
1.3043701171875
1.41796875
1.432470703125
1.5146484375
1.561376953125
1.6322753906249998
1.7692382812499998
1.7474853515625
1.7257324218749999
1.658056640625
1.6105224609375
1.5734619140625
1.60166015625
1.5347900390625
1.5621826171875
1.5662109375
1.5791015625
1.5815185546875
1.5525146484374999
1.538818359375
1.5750732421875
1.783740234375
1.7208984374999998
1.6854492187499999
1.6371093749999999
1.611328125
1.545263671875
1.3623779296874998
1.3067871093749999
1.3220947265624998
1.40185546875
1.4719482421874999
1.48564453125
1.5315673828124998
1.5122314453124999
1.4880615234374999
1.5509033203125
1.574267578125
1.5380126953125
1.5186767578125
1.561376953125
1.5186767578125
1.3043701171875
1.4300537109375
1.405078125
1.4655029296875
1.5380126953125
1.5702392578125
1.87236328125
1.832080078125
1.7418457031249999
1.6693359374999999
1.6572509765624999
1.5863525390625
1.55009765625
1.5605712890624999
1.5533203125
1.60166015625
1.585546875
1.571044921875
1.5476806640624998
1.5202880859374999
1.5621826171875
1.8522216796875
1.7724609375
1.719287109375
1.6403320312499998
1.5122314453124999
1.5122314453124999
1.4252197265625
1.364794921875
1.3905761718749998
1.4252197265625
1.4888671875
1.477587890625
1.513037109375
1.509814453125
1.5138427734375
1.53076171875
1.529150390625
1.5565429687499999
1.5364013671874999
1.5251220703125
1.513037109375
1.1698242187499999
1.319677734375
1.4356933593749999
1.542041015625
1.5702392578125
1.6153564453125
1.8860595703124998
1.844970703125
1.7289550781249998
1.6089111328124999
1.5839355468749998
1.585546875
1.558154296875
1.606494140625
1.63388671875
1.5718505859374998
1.5807128906249999
1.5484863281249999
1.5380126953125
1.5364013671874999
1.5218994140625
1.7595703125
1.76279296875
1.7088134765624998
1.6822265625
1.6185791015625
1.50498046875
1.40185546875
1.3510986328124999
1.319677734375
1.4010498046875
1.4389160156249998
1.5251220703125
1.5621826171875
1.5565429687499999
1.5082031249999999
1.5589599609375
1.5396240234374998
1.52109375
1.6298583984375
1.587158203125
1.5654052734375
1.281005859375
1.3092041015625
1.380908203125
1.4147460937499998
1.538818359375
1.558154296875
1.662890625
1.8699462890624998
1.8232177734375
1.7370117187499998
1.6330810546874999
1.56298828125
1.5927978515624999
1.5831298828125
1.5718505859374998
1.5315673828124998
1.5331787109375
1.546875
1.5911865234375
1.585546875
1.5992431640625
1.7595703125
1.7619873046874999
1.7466796875
1.6781982421875
1.5686279296874999
1.5090087890625
1.3664062499999998
1.31162109375
1.313232421875
1.3502929687499998
1.4703369140625
1.5347900390625
1.4816162109375
1.5645996093749999
1.5194824218749998
1.5170654296875
1.513037109375
1.5323730468749999
1.4896728515625
1.5186767578125
1.5807128906249999
1.3124267578125
1.2850341796875
1.4155517578124999
1.4429443359374998
1.4574462890625
1.574267578125
1.6701416015625
1.8820312499999998
1.8635009765625
1.72734375
1.6701416015625
1.5678222656249998
1.5557373046874998
1.5605712890624999
1.5944091796875
1.509814453125
1.533984375
1.5275390624999998
1.5299560546875
1.5412353515625
1.5726562499999999
1.6459716796875
1.8006591796875
1.748291015625
1.6491943359374999
1.6024658203125
1.5565429687499999
1.5033691406249998
1.3954101562499999
1.319677734375
1.3929931640625
1.4219970703125
1.4550292968749998
1.47275390625
1.4783935546875
1.4896728515625
1.51787109375
1.558154296875
1.6040771484374998
1.5976318359375
1.55009765625
1.5815185546875
1.284228515625
1.3043701171875
1.38896484375
1.4671142578124998
1.5380126953125
1.6081054687499998
1.571044921875
1.8224121093749999
1.7611816406249998
1.7289550781249998
1.619384765625
1.6008544921874999
1.5799072265624998
1.59521484375
1.6008544921874999
1.558154296875
1.52109375
1.5484863281249999
1.5831298828125
1.5750732421875
1.5243164062499999
1.574267578125
1.8014648437499998
1.7217041015624999
1.667724609375
1.606494140625
1.546875
1.4703369140625
1.3543212890624998
1.329345703125
1.4493896484375
1.4920898437499999
1.4791992187499998
1.4622802734375
1.5251220703125
1.5275390624999998
1.5444580078124999
1.59521484375
1.5476806640624998
1.5509033203125
1.5186767578125
1.496923828125
1.52109375
1.3108154296874999
1.4187744140624998
1.4526123046875
1.4993408203124998
1.5533203125
1.6604736328124998
1.80791015625
1.791796875
1.6765869140624998
1.6733642578124999
1.6411376953124999
1.5944091796875
1.5654052734375
1.542041015625
1.5114257812499998
1.5839355468749998
1.5404296874999999
1.5001464843749999
1.5654052734375
1.5662109375
1.585546875
1.8135498046874998
1.7120361328125
1.6854492187499999
1.6564453124999998
1.554931640625
1.5073974609374998
1.380908203125
1.329345703125
1.3108154296874999
1.409912109375
1.4542236328125
1.509814453125
1.5146484375
1.5718505859374998
1.577490234375
1.6153564453125
1.5839355468749998
1.5662109375
1.577490234375
1.5444580078124999
1.5057861328125
1.2673095703125
1.3478759765625
1.4123291015625
1.4598632812499999
1.542041015625
1.6056884765625
1.780517578125
1.8256347656249998
1.7281494140625
1.6604736328124998
1.590380859375
1.593603515625
1.5863525390625
1.5364013671874999
1.5460693359375
1.5919921874999998
1.6121337890624998
1.5517089843749998
1.5017578125
1.5565429687499999
1.4953124999999998
1.75634765625
1.7362060546875
1.6967285156249998
1.6854492187499999
1.5839355468749998
1.4719482421874999
1.332568359375
1.3857421875
1.3390136718749999
