1.5460693359375
1.5476806640624998
1.5791015625
1.5315673828124998
1.5138427734375
1.4058837890625
1.5138427734375
1.506591796875
1.5323730468749999
1.4977294921875
1.5106201171875
1.6234130859375
1.6717529296875
1.6475830078125
1.6040771484374998
1.5968261718749999
1.58232421875
1.56943359375
1.5766845703124999
1.5251220703125
1.5726562499999999
1.5734619140625
1.606494140625
1.574267578125
1.5621826171875
1.5645996093749999
1.654833984375
1.619384765625
1.5879638671874998
1.6024658203125
1.5670166015625
1.5484863281249999
1.5170654296875
1.4469726562499998
1.477587890625
1.5323730468749999
1.50498046875
1.50498046875
1.538818359375
1.5517089843749998
1.53720703125
1.5170654296875
1.5025634765625
1.558154296875
1.5621826171875
1.545263671875
1.5267333984375
1.42119140625
1.4381103515625
1.50498046875
1.5621826171875
1.546875
1.5154541015624998
1.6000488281249998
1.6733642578124999
1.6282470703124998
1.60166015625
1.5976318359375
1.5750732421875
1.5799072265624998
1.5645996093749999
1.5726562499999999
1.571044921875
1.5541259765625
1.5517089843749998
1.56298828125
1.5517089843749998
1.5557373046874998
1.6201904296874998
1.6306640625
1.6089111328124999
1.5960205078124998
1.554931640625
1.5605712890624999
1.4977294921875
1.4655029296875
1.4711425781249998
1.4920898437499999
1.4848388671875
1.529150390625
1.529150390625
1.5025634765625
1.561376953125
1.5927978515624999
1.5847412109374999
1.5670166015625
1.56943359375
1.5525146484374999
1.5525146484374999
1.3905761718749998
1.4389160156249998
1.5009521484375
1.525927734375
1.533984375
1.529150390625
1.6242187499999998
1.6878662109375
1.6669189453125
1.6129394531249999
1.5476806640624998
1.5839355468749998
1.5597656249999998
1.5726562499999999
1.5807128906249999
1.5799072265624998
1.561376953125
1.5621826171875
1.5597656249999998
1.5436523437499998
1.525927734375
1.5662109375
1.6846435546874998
1.6346923828125
1.6177734375
1.5734619140625
1.5678222656249998
1.49853515625
1.5017578125
1.4767822265625
1.4800048828124999
1.4928955078125
1.5082031249999999
1.5001464843749999
1.53720703125
1.52109375
1.5033691406249998
1.5460693359375
1.5815185546875
1.5654052734375
1.58232421875
1.5662109375
1.4888671875
1.4397216796874999
1.5073974609374998
1.493701171875
1.529150390625
1.5283447265624999
1.5645996093749999
1.6765869140624998
1.625830078125
1.5879638671874998
1.590380859375
1.6072998046875
1.6056884765625
1.590380859375
1.5645996093749999
1.5831298828125
1.5686279296874999
1.5533203125
1.5001464843749999
1.509814453125
1.554931640625
1.603271484375
1.6814208984374999
1.61455078125
1.58232421875
1.59521484375
1.571044921875
1.529150390625
1.5154541015624998
1.4598632812499999
1.46953125
1.4953124999999998
1.5194824218749998
1.533984375
1.5404296874999999
1.5283447265624999
1.5194824218749998
1.5589599609375
1.5476806640624998
1.5428466796875
1.56298828125
1.5484863281249999
1.4638916015624999
1.4276367187499999
1.5275390624999998
1.490478515625
1.490478515625
1.5654052734375
1.5686279296874999
1.6572509765624999
1.6733642578124999
1.6371093749999999
1.6201904296874998
1.5621826171875
1.5525146484374999
1.5654052734375
1.5605712890624999
1.5847412109374999
1.5758789062499998
1.5758789062499998
1.5275390624999998
1.5637939453124998
1.5557373046874998
1.5484863281249999
1.6975341796874999
1.5919921874999998
1.5944091796875
1.571044921875
1.5380126953125
1.5194824218749998
1.4872558593749998
1.4397216796874999
1.5082031249999999
1.4928955078125
1.52109375
1.5194824218749998
1.5275390624999998
1.554931640625
1.533984375
1.5428466796875
1.5251220703125
1.5460693359375
1.5726562499999999
1.5299560546875
1.493701171875
1.416357421875
1.49853515625
1.52109375
1.5726562499999999
1.5637939453124998
1.5863525390625
1.69833984375
1.6451660156249999
1.5911865234375
1.5734619140625
1.5782958984375
1.5766845703124999
1.577490234375
1.5460693359375
1.5476806640624998
1.5718505859374998
1.5734619140625
1.5726562499999999
1.55009765625
1.525927734375
1.5476806640624998
1.69833984375
1.6322753906249998
1.5911865234375
1.6218017578125
1.5492919921875
1.533984375
1.4622802734375
1.4759765624999999
1.5017578125
1.490478515625
1.529150390625
1.5726562499999999
1.5275390624999998
1.5283447265624999
1.542041015625
1.5541259765625
1.5645996093749999
1.5428466796875
1.5033691406249998
1.5267333984375
1.5299560546875
1.4187744140624998
1.4888671875
1.509814453125
1.513037109375
1.5525146484374999
1.561376953125
1.622607421875
1.6371093749999999
1.6459716796875
1.6201904296874998
1.6000488281249998
1.6089111328124999
1.5944091796875
1.5807128906249999
1.5597656249999998
1.5557373046874998
1.5565429687499999
1.56943359375
1.5662109375
1.533984375
1.545263671875
1.6773925781249999
1.6371093749999999
1.5968261718749999
1.574267578125
1.561376953125
1.5557373046874998
1.5106201171875
1.4961181640624999
1.458251953125
1.49853515625
1.4977294921875
1.4953124999999998
1.5033691406249998
1.5460693359375
1.5364013671874999
1.5251220703125
1.5533203125
1.5533203125
1.5525146484374999
1.5863525390625
1.545263671875
1.3962158203125
1.458251953125
1.5041748046874999
1.53076171875
1.558154296875
1.5444580078124999
1.6612792968749999
1.6685302734374998
1.6298583984375
1.6379150390625
1.619384765625
1.5766845703124999
1.554931640625
1.5839355468749998
1.5887695312499999
1.5436523437499998
1.5782958984375
1.5557373046874998
1.5565429687499999
1.529150390625
1.5460693359375
1.625830078125
1.63388671875
1.58232421875
1.574267578125
1.5533203125
1.5162597656249999
1.490478515625
1.46953125
1.4912841796874998
1.529150390625
1.525927734375
1.4993408203124998
1.51787109375
1.5186767578125
1.5106201171875
1.52109375
1.52109375
1.5428466796875
1.574267578125
1.574267578125
1.5541259765625
1.3897705078125
1.4356933593749999
1.5186767578125
1.5194824218749998
1.53720703125
1.5517089843749998
1.561376953125
1.7039794921875
1.6322753906249998
1.6137451171875
1.658056640625
1.622607421875
1.5984375
1.5557373046874998
1.5218994140625
1.5525146484374999
1.5605712890624999
1.5073974609374998
1.5315673828124998
1.55009765625
1.5807128906249999
1.6645019531249998
1.6636962890625
1.6218017578125
1.587158203125
1.6121337890624998
1.533984375
1.50498046875
1.4848388671875
1.46953125
1.4912841796874998
1.5017578125
1.509814453125
1.5001464843749999
1.5355957031249998
1.5525146484374999
1.5597656249999998
1.5702392578125
1.5114257812499998
1.5186767578125
1.5484863281249999
1.5517089843749998
1.4687255859375
1.4364990234375
1.5355957031249998
1.5275390624999998
1.545263671875
1.590380859375
1.5839355468749998
1.6653076171874999
1.654833984375
1.6056884765625
1.6540283203125
1.5807128906249999
1.5791015625
1.56943359375
1.5847412109374999
1.5484863281249999
1.506591796875
1.5517089843749998
1.5726562499999999
1.5621826171875
1.5444580078124999
1.619384765625
1.6765869140624998
1.6000488281249998
1.611328125
1.5525146484374999
1.571044921875
1.53720703125
1.4598632812499999
1.4461669921875
1.4872558593749998
1.5380126953125
1.5412353515625
1.493701171875
1.4920898437499999
1.4961181640624999
1.5517089843749998
1.558154296875
1.603271484375
1.55009765625
1.529150390625
1.5621826171875
1.4461669921875
1.4469726562499998
1.5323730468749999
1.5146484375
1.48564453125
1.5235107421874998
1.5911865234375
1.687060546875
1.625830078125
1.5984375
1.5927978515624999
1.593603515625
1.590380859375
1.5621826171875
1.5484863281249999
1.5517089843749998
1.5645996093749999
1.5557373046874998
1.5815185546875
1.5396240234374998
1.5533203125
1.5541259765625
1.6798095703125
1.6153564453125
1.5807128906249999
1.593603515625
1.5533203125
1.4945068359375
1.4711425781249998
1.4381103515625
1.4711425781249998
1.4751708984374998
1.5073974609374998
1.5315673828124998
1.5364013671874999
1.5484863281249999
1.5428466796875
1.554931640625
1.5782958984375
1.5847412109374999
1.5525146484374999
1.5807128906249999
1.5654052734375
1.4332763671875
1.4840332031249999
1.49853515625
1.5057861328125
1.53720703125
1.5839355468749998
1.703173828125
1.6612792968749999
1.6153564453125
1.5758789062499998
1.5444580078124999
1.529150390625
1.5645996093749999
1.5605712890624999
1.5678222656249998
1.546875
1.5484863281249999
1.53720703125
1.5678222656249998
1.5484863281249999
1.533984375
1.703173828125
1.625830078125
1.611328125
1.5992431640625
1.558154296875
1.53720703125
1.4880615234374999
1.47275390625
1.493701171875
1.5170654296875
1.5146484375
1.53720703125
1.5267333984375
1.5396240234374998
1.5702392578125
1.5637939453124998
1.5492919921875
1.5412353515625
1.5533203125
1.5251220703125
1.5444580078124999
1.397021484375
1.477587890625
1.50498046875
1.506591796875
1.545263671875
1.5782958984375
1.6717529296875
1.654833984375
1.6290527343749999
1.5557373046874998
1.5750732421875
1.5750732421875
1.59521484375
1.5863525390625
1.585546875
1.5299560546875
1.5799072265624998
1.5686279296874999
1.5726562499999999
1.577490234375
1.5637939453124998
1.6894775390624999
1.6363037109374998
1.5839355468749998
1.585546875
1.5589599609375
1.5283447265624999
1.47275390625
1.458251953125
1.4493896484375
1.4510009765624998
1.546875
1.525927734375
1.5057861328125
1.53720703125
1.5323730468749999
1.5009521484375
1.525927734375
1.5484863281249999
1.5670166015625
1.577490234375
1.538818359375
1.4195800781249999
1.4348876953124998
1.5162597656249999
1.5057861328125
1.5396240234374998
1.585546875
1.6749755859375
1.6894775390624999
1.6508056640625
1.558154296875
1.5686279296874999
1.5702392578125
1.571044921875
1.5533203125
1.587158203125
1.55009765625
1.5863525390625
1.5782958984375
1.5428466796875
1.545263671875
1.5645996093749999
1.6403320312499998
1.622607421875
1.6129394531249999
1.5976318359375
1.5557373046874998
1.5114257812499998
1.4864501953125
1.46630859375
1.4800048828124999
1.5138427734375
1.513037109375
1.5283447265624999
1.522705078125
1.5734619140625
1.5347900390625
1.513037109375
1.5283447265624999
1.53076171875
1.5436523437499998
1.5637939453124998
1.5605712890624999
1.44052734375
1.4767822265625
1.5114257812499998
1.5323730468749999
1.5194824218749998
1.5734619140625
1.6242187499999998
1.6645019531249998
1.6048828124999999
1.58232421875
1.5750732421875
1.6000488281249998
1.5670166015625
1.5758789062499998
1.5492919921875
1.5750732421875
1.5404296874999999
1.533984375
1.5484863281249999
1.545263671875
1.5380126953125
1.6725585937499998
1.6443603515624998
1.6161621093749998
1.538818359375
1.5484863281249999
1.574267578125
1.5146484375
1.4872558593749998
1.4703369140625
1.5186767578125
1.525927734375
1.5267333984375
1.5315673828124998
1.477587890625
1.5114257812499998
1.5637939453124998
1.545263671875
1.5533203125
1.5662109375
1.529150390625
1.52109375
1.4147460937499998
1.4598632812499999
1.5202880859374999
1.5041748046874999
1.5541259765625
1.5331787109375
1.5670166015625
1.6636962890625
1.6306640625
1.6153564453125
1.6185791015625
1.593603515625
1.5815185546875
1.5750732421875
1.5702392578125
1.525927734375
1.5235107421874998
1.5323730468749999
1.574267578125
1.5887695312499999
1.587158203125
1.5637939453124998
1.67900390625
1.6266357421875
1.585546875
1.5565429687499999
1.5605712890624999
1.5243164062499999
1.4888671875
1.4880615234374999
1.5194824218749998
1.525927734375
1.5315673828124998
1.5347900390625
1.5106201171875
1.5331787109375
1.5380126953125
1.545263671875
1.5597656249999998
1.5347900390625
1.558154296875
1.5347900390625
1.4332763671875
1.4437499999999999
1.4751708984374998
1.5243164062499999
1.5251220703125
1.5347900390625
1.5895751953125
1.6693359374999999
1.6588623046875
1.6290527343749999
1.6185791015625
1.6250244140624999
1.622607421875
1.574267578125
1.5444580078124999
1.5299560546875
1.5235107421874998
1.5315673828124998
1.5009521484375
1.5645996093749999
1.5275390624999998
1.5654052734375
1.6435546875
1.625830078125
1.5887695312499999
1.609716796875
1.5750732421875
1.5243164062499999
1.4961181640624999
1.4550292968749998
1.5057861328125
1.5404296874999999
1.5492919921875
1.4928955078125
1.5251220703125
1.5380126953125
1.5428466796875
1.5565429687499999
1.5621826171875
1.4920898437499999
1.53720703125
1.5597656249999998
1.5428466796875
1.4276367187499999
1.48564453125
1.525927734375
1.50498046875
1.5283447265624999
1.5919921874999998
1.7023681640625
1.66611328125
1.5919921874999998
1.5968261718749999
1.5992431640625
1.5621826171875
1.56943359375
1.6089111328124999
1.5984375
1.5791015625
1.5678222656249998
1.53720703125
1.5492919921875
1.5396240234374998
1.5654052734375
1.6363037109374998
1.6298583984375
1.619384765625
1.5968261718749999
1.5436523437499998
1.533984375
1.4783935546875
1.432470703125
1.4606689453125
1.5073974609374998
1.5251220703125
1.5436523437499998
1.5404296874999999
1.5565429687499999
1.5589599609375
1.60166015625
1.5323730468749999
1.5364013671874999
1.5275390624999998
1.5533203125
1.545263671875
1.4252197265625
1.529150390625
1.5138427734375
1.5331787109375
1.571044921875
1.56943359375
1.6330810546874999
1.6572509765624999
1.5984375
1.5645996093749999
1.5831298828125
1.625830078125
1.5863525390625
1.5460693359375
1.5605712890624999
1.558154296875
1.5476806640624998
1.5782958984375
1.5815185546875
1.5557373046874998
1.554931640625
1.6798095703125
1.6048828124999999
1.6105224609375
1.5879638671874998
1.5686279296874999
1.52109375
1.4638916015624999
1.4711425781249998
1.4622802734375
1.5138427734375
1.509814453125
1.506591796875
1.5355957031249998
1.5082031249999999
1.5299560546875
1.5565429687499999
1.5863525390625
1.5436523437499998
1.5404296874999999
1.5597656249999998
1.5122314453124999
1.4066894531249998
1.4920898437499999
1.525927734375
1.5033691406249998
1.55009765625
1.5589599609375
1.7096191406249999
1.69189453125
1.609716796875
1.5831298828125
1.558154296875
1.5839355468749998
1.5831298828125
1.542041015625
1.5605712890624999
1.5533203125
1.529150390625
1.53720703125
1.5436523437499998
1.611328125
1.5831298828125
1.690283203125
1.6685302734374998
1.6306640625
1.5976318359375
1.5968261718749999
1.5041748046874999
1.4542236328125
1.4373046875
1.4759765624999999
1.4912841796874998
1.477587890625
1.5404296874999999
1.542041015625
1.5637939453124998
1.5218994140625
1.5355957031249998
1.5428466796875
1.5323730468749999
1.5154541015624998
1.51787109375
1.5267333984375
1.4510009765624998
1.4397216796874999
1.4888671875
1.4953124999999998
1.5815185546875
1.5718505859374998
1.6830322265625
1.7015624999999999
1.6403320312499998
1.5976318359375
1.5863525390625
1.5686279296874999
1.58232421875
1.6056884765625
1.577490234375
1.5323730468749999
1.5654052734375
1.5476806640624998
1.5428466796875
1.5364013671874999
1.5565429687499999
1.6798095703125
1.6379150390625
1.5726562499999999
1.5984375
1.5807128906249999
1.55009765625
1.4888671875
1.4783935546875
1.4469726562499998
1.4348876953124998
1.4872558593749998
1.5404296874999999
1.5621826171875
1.59521484375
1.5428466796875
1.5218994140625
1.542041015625
1.5887695312499999
1.545263671875
1.5436523437499998
1.546875
1.4091064453125
1.42119140625
1.490478515625
1.5057861328125
1.5404296874999999
1.5573486328125
1.6072998046875
1.7128417968749998
1.6451660156249999
1.6089111328124999
1.5944091796875
1.5605712890624999
1.5670166015625
1.5412353515625
1.5355957031249998
1.558154296875
1.5533203125
1.545263671875
1.5517089843749998
1.58232421875
1.5662109375
1.658056640625
1.7128417968749998
1.625830078125
1.6024658203125
1.5509033203125
1.533984375
1.5001464843749999
1.5194824218749998
1.4429443359374998
1.477587890625
1.5243164062499999
1.522705078125
1.506591796875
1.5315673828124998
1.561376953125
1.5315673828124998
1.5251220703125
1.5162597656249999
1.533984375
1.5194824218749998
1.5484863281249999
1.3929931640625
1.3978271484375
1.4711425781249998
1.5025634765625
1.5323730468749999
1.5605712890624999
1.5766845703124999
1.6701416015625
1.667724609375
1.6765869140624998
1.6910888671875
1.6330810546874999
1.5992431640625
1.5202880859374999
1.51787109375
1.5718505859374998
1.5589599609375
1.5331787109375
1.5412353515625
1.60166015625
1.574267578125
1.609716796875
1.6685302734374998
1.6000488281249998
1.6129394531249999
1.5887695312499999
1.5662109375
1.533984375
1.506591796875
1.4703369140625
1.4751708984374998
1.4638916015624999
1.4880615234374999
1.5162597656249999
1.509814453125
1.5428466796875
1.525927734375
1.5073974609374998
1.5492919921875
1.5436523437499998
1.5404296874999999
1.5637939453124998
1.482421875
1.4356933593749999
1.4687255859375
1.4373046875
1.4501953125
1.5839355468749998
1.6137451171875
1.7096191406249999
1.67900390625
1.6298583984375
1.5919921874999998
1.587158203125
1.593603515625
1.56298828125
1.5678222656249998
1.5686279296874999
1.53720703125
1.5645996093749999
1.5194824218749998
1.5090087890625
1.533984375
1.6411376953124999
1.7023681640625
1.63388671875
1.690283203125
1.5492919921875
1.5557373046874998
1.56943359375
1.4671142578124998
1.429248046875
1.480810546875
1.5057861328125
1.5412353515625
1.5484863281249999
1.46953125
1.5001464843749999
1.5138427734375
1.5082031249999999
1.4703369140625
1.5202880859374999
1.558154296875
1.561376953125
1.4719482421874999
1.3921875
1.4703369140625
1.529150390625
1.496923828125
1.5186767578125
1.574267578125
1.670947265625
1.654833984375
1.7176757812499999
1.658056640625
1.5976318359375
1.5960205078124998
1.6169677734374999
1.5847412109374999
1.5799072265624998
1.5533203125
1.5218994140625
1.51787109375
1.513037109375
1.542041015625
1.5533203125
1.7442626953125
1.6508056640625
1.6443603515624998
1.6733642578124999
1.5944091796875
1.5476806640624998
1.4630859374999998
1.3768798828125
1.3978271484375
1.364794921875
1.4687255859375
1.5033691406249998
1.4912841796874998
1.4671142578124998
1.5605712890624999
1.577490234375
1.5678222656249998
1.558154296875
1.5492919921875
1.545263671875
1.554931640625
1.40830078125
1.4880615234374999
1.4510009765624998
1.432470703125
1.46630859375
1.522705078125
1.7539306640624999
1.72734375
1.670947265625
1.6894775390624999
1.651611328125
1.6242187499999998
1.56943359375
1.5573486328125
1.5267333984375
1.561376953125
1.5573486328125
1.5726562499999999
1.5597656249999998
1.577490234375
1.5444580078124999
1.7096191406249999
1.641943359375
1.6379150390625
1.6363037109374998
1.6234130859375
1.5758789062499998
1.4719482421874999
1.416357421875
1.380908203125
1.353515625
1.4244140625
1.4493896484375
1.4864501953125
1.5194824218749998
1.5283447265624999
1.53720703125
1.5750732421875
1.5927978515624999
1.5919921874999998
1.6081054687499998
1.5662109375
1.4026611328124998
1.40830078125
1.4195800781249999
1.4115234374999999
1.4558349609374999
1.6024658203125
1.7249267578124998
1.7861572265624999
1.7039794921875
1.6991455078125
1.6645019531249998
1.6290527343749999
1.6242187499999998
1.577490234375
1.522705078125
1.5331787109375
1.5017578125
1.4953124999999998
1.52109375
1.554931640625
1.5444580078124999
1.7442626953125
1.73056640625
1.7345947265625
1.66611328125
1.6620849609375
1.5919921874999998
1.5194824218749998
1.4735595703125
1.432470703125
1.348681640625
1.353515625
1.3929931640625
1.4252197265625
1.5476806640624998
1.545263671875
1.577490234375
1.5396240234374998
1.542041015625
1.561376953125
1.6000488281249998
1.590380859375
1.3688232421875
1.4115234374999999
1.3986328124999998
1.42119140625
1.456640625
1.50498046875
1.7418457031249999
1.7877685546875
1.7362060546875
1.6910888671875
1.6540283203125
1.654833984375
1.6556396484375
1.5807128906249999
1.658056640625
1.6177734375
1.587158203125
1.5154541015624998
1.5090087890625
1.5412353515625
1.5621826171875
1.690283203125
1.65
1.6427490234375
1.6798095703125
1.5557373046874998
1.5194824218749998
1.522705078125
1.4759765624999999
1.40830078125
1.4469726562499998
1.4598632812499999
1.4526123046875
1.46630859375
1.5275390624999998
1.4864501953125
1.5621826171875
1.5533203125
1.5396240234374998
1.4896728515625
1.4864501953125
1.593603515625
1.3631835937499999
1.4139404296875
1.4364990234375
1.4429443359374998
1.46630859375
1.50498046875
1.6524169921874998
1.7772949218749998
1.738623046875
1.6773925781249999
1.6508056640625
1.5984375
1.65
1.5791015625
1.5831298828125
1.5815185546875
1.5847412109374999
1.61455078125
1.5323730468749999
1.5541259765625
1.5565429687499999
1.7458740234374999
1.7748779296875
1.7080078125
1.658056640625
1.5436523437499998
1.52109375
1.4574462890625
1.3752685546874999
1.3470703124999999
1.3792968749999999
1.3986328124999998
1.4316650390624999
1.47275390625
1.5009521484375
1.545263671875
1.4872558593749998
1.538818359375
1.506591796875
1.5637939453124998
1.577490234375
1.5565429687499999
1.3792968749999999
1.3583496093749998
1.405078125
1.4236083984374999
1.4816162109375
1.52109375
1.5815185546875
1.75634765625
1.7901855468749999
1.77568359375
1.7700439453124999
1.7458740234374999
1.638720703125
1.554931640625
1.545263671875
1.5605712890624999
1.5831298828125
1.5791015625
1.545263671875
1.513037109375
1.5275390624999998
1.5702392578125
1.767626953125
1.6830322265625
1.6081054687499998
1.6185791015625
1.5637939453124998
1.5090087890625
1.445361328125
1.3833251953124999
1.397021484375
1.397021484375
1.3962158203125
1.4469726562499998
1.4687255859375
1.4961181640624999
1.4880615234374999
1.53720703125
1.5589599609375
1.5734619140625
1.5670166015625
1.5927978515624999
1.3962158203125
1.3204833984375
1.384130859375
1.4107177734374998
1.4671142578124998
1.5347900390625
1.6588623046875
1.8667236328124999
1.8876708984375
1.7619873046874999
1.6532226562499999
1.641943359375
1.611328125
1.538818359375
1.5202880859374999
1.558154296875
1.6081054687499998
1.5404296874999999
1.5541259765625
1.5533203125
1.5645996093749999
1.5847412109374999
1.786962890625
1.796630859375
1.71123046875
1.6701416015625
1.5839355468749998
1.5073974609374998
1.432470703125
1.2987304687499999
1.316455078125
1.3527099609375
1.4155517578124999
1.46953125
1.4542236328125
1.4445556640625
1.480810546875
1.5404296874999999
1.5283447265624999
1.525927734375
1.53076171875
1.5645996093749999
1.5879638671874998
1.319677734375
1.3559326171875
1.4332763671875
1.4268310546874998
1.4920898437499999
1.6177734375
1.85302734375
1.8240234375
1.80791015625
1.7909912109375
1.8328857421875
1.6645019531249998
1.6185791015625
1.5766845703124999
1.5267333984375
1.4848388671875
1.5017578125
1.5476806640624998
1.5170654296875
1.5509033203125
1.545263671875
1.7724609375
1.7281494140625
1.6636962890625
1.6653076171874999
1.65966796875
1.5364013671874999
1.41796875
1.3188720703124999
1.2850341796875
1.3237060546875
1.3873535156249999
1.4308593749999998
1.44052734375
1.44052734375
1.5001464843749999
1.577490234375
1.6008544921874999
1.5670166015625
1.5863525390625
1.5509033203125
1.603271484375
1.271337890625
1.2947021484374999
1.300341796875
1.40830078125
1.4622802734375
1.513037109375
1.77568359375
1.8908935546874999
1.8635009765625
1.7732666015624998
1.722509765625
1.6910888671875
1.6411376953124999
1.61455078125
1.6008544921874999
1.6435546875
1.5927978515624999
1.5782958984375
1.5235107421874998
1.496923828125
1.5323730468749999
1.7926025390625
1.78857421875
1.80791015625
1.803076171875
1.7184814453125
1.6693359374999999
1.426025390625
1.2463623046874999
1.184326171875
1.152099609375
1.2052734375
1.22783203125
1.2963134765625
1.4219970703125
1.5057861328125
1.4783935546875
1.5509033203125
1.590380859375
1.5637939453124998
1.6040771484374998
1.5589599609375
1.174658203125
1.16337890625
1.1448486328125
1.1537109374999999
1.1915771484375
1.2914794921875
1.6773925781249999
1.9666259765624998
2.0713623046875
2.0979492187499997
2.1100341796874997
2.05927734375
2.0012695312499997
2.0085205078125
1.9762939453125
1.8844482421875
1.8240234375
1.7370117187499998
1.6967285156249998
1.6532226562499999
1.6161621093749998
1.9706542968749998
2.1382324218749997
2.2921142578125
2.40087890625
2.4596923828125
2.3912109375
2.18173828125
1.9569580078125
1.6089111328124999
1.4622802734375
1.3027587890624999
1.1883544921875
1.0191650390625
0.9659912109375
0.9812988281249999
0.8822021484375
0.8668945312499999
0.800830078125
0.84111328125
0.8548095703124999
0.8902587890625
0.5019287109375
0.32065429687499997
0.23686523437499998
0.14421386718749998
0.0555908203125
0.11359863281249999
0.4197509765625
0.75087890625
1.0505859375
1.2318603515625
1.3881591796875
1.64677734375
1.6951171875
1.7764892578125
1.9013671875
1.9601806640625
1.95615234375
2.015771484375
1.9891845703125
1.8900878906249998
1.9247314453125
2.2502197265625
2.434716796875
2.5732910156249997
2.7666503906249997
2.8222412109375
2.7561767578125
2.6683593749999996
2.276806640625
2.0294677734374997
1.880419921875
1.6540283203125
1.4219970703125
1.2665039062499999
1.1537109374999999
1.094091796875
1.0884521484375
1.069921875
1.05380859375
1.02802734375
0.9893554687499999
1.0239990234375
0.7299316406249999
0.45036621093749996
0.36093749999999997
0.2553955078125
0.2441162109375
0.20625
0.33273925781249997
0.749267578125
0.95390625
1.174658203125
1.2665039062499999
1.4574462890625
1.5162597656249999
1.6169677734374999
1.799853515625
1.93359375
1.90458984375
1.8626953124999999
1.920703125
1.91748046875
1.91748046875
2.1503173828124997
2.3630126953125
2.5072265624999996
2.6353271484375
2.7408691406249996
2.8302978515625
2.7505371093749997
2.5571777343749997
2.2083251953125
2.0536376953124997
1.8151611328125
1.658056640625
1.4703369140625
1.316455078125
1.2447509765625
1.213330078125
1.2141357421874999
1.18271484375
1.1367919921875
1.1408203125
1.1158447265625
0.8765624999999999
0.44633789062499996
0.28842773437499997
0.2344482421875
0.159521484375
0.15227050781249998
0.201416015625
0.5760498046875
0.9289306640624999
1.1529052734375
1.2938964843749998
1.4437499999999999
1.5404296874999999
1.6435546875
1.770849609375
1.9924072265625
1.9762939453125
2.03994140625
2.0665283203125
2.086669921875
2.1487060546875
2.280029296875
2.5845703125
2.737646484375
2.86494140625
2.9382568359374996
3.0164062499999997
2.9841796874999997
2.6603027343749996
2.36220703125
2.102783203125
1.8248291015625
1.5734619140625
1.4308593749999998
1.2866455078124999
1.2157470703125
1.2125244140625
1.0965087890625
1.069921875
1.119873046875
1.0546142578125
1.0562255859375
0.8161376953124999
0.39316406249999997
0.32548828124999996
0.23686523437499998
0.1313232421875
0.0910400390625
0.20705566406249998
0.6227783203124999
0.94423828125
1.2262207031249999
1.3067871093749999
1.4735595703125
1.6540283203125
1.72734375
1.77890625
1.844970703125
1.9593749999999999
2.0117431640625
2.0109375
2.0326904296875
2.060888671875
2.022216796875
2.408935546875
2.6095458984374997
2.6852783203125
2.824658203125
2.8375488281249996
2.7972656249999996
2.6232421875
2.2115478515625
1.9972412109375
1.7829345703125
1.5960205078124998
1.3688232421875
1.2511962890625
1.110205078125
1.0997314453125
1.0932861328124999
1.0401123046875
1.0272216796875
1.0505859375
0.97001953125
0.9659912109375
0.5148193359375
0.42861328125
0.2296142578125
0.0620361328125
0.049951171875
0.09829101562499999
0.34482421874999997
0.8354736328125
1.052197265625
1.239111328125
1.4880615234374999
1.5992431640625
1.7168701171874998
1.7901855468749999
1.8602783203125
1.9843505859375
1.960986328125
2.0004638671875
2.051220703125
2.0052978515624997
1.9843505859375
2.3525390625
2.4911132812499996
2.7320068359375
2.8311035156249997
2.8319091796875
2.75537109375
2.4999755859375
2.2905029296875
2.0343017578125
1.7660156249999999
1.674169921875
1.5412353515625
1.426025390625
1.3591552734374999
1.353515625
1.2640869140625
1.203662109375
1.203662109375
1.1802978515625
1.1931884765625
1.132763671875
0.71220703125
0.46164550781249997
0.2989013671875
0.1861083984375
0.1571044921875
0.1329345703125
0.4447265625
0.6993164062499999
1.0062744140625
1.1851318359375
1.3478759765625
1.4348876953124998
1.6000488281249998
1.6483886718749998
1.7023681640625
1.8038818359375
1.877197265625
1.9037841796875
1.980322265625
1.93359375
1.9521240234375
2.2993652343749997
2.5168945312499997
2.647412109375
2.6997802734375
2.784375
2.8125732421875
2.7062255859374997
2.4169921875
2.1277587890625
1.9787109374999998
1.7724609375
1.625830078125
1.48564453125
1.3430419921874999
1.2914794921875
1.2616699218749998
1.219775390625
1.13115234375
1.134375
1.10859375
1.0111083984375
0.6324462890625
0.46245117187499996
0.28842773437499997
0.21269531249999998
0.16032714843749998
0.15871582031249998
0.259423828125
0.7637695312499999
1.055419921875
1.1899658203124999
1.3543212890624998
1.4912841796874998
1.622607421875
1.6749755859375
1.7466796875
1.748291015625
1.7507080078125
1.8248291015625
1.915869140625
1.9601806640625
1.9295654296875
2.222021484375
2.4749999999999996
2.5724853515625
2.7166992187499996
2.7908203124999997
2.7827636718749997
2.6844726562499996
2.4758056640625
2.25263671875
1.9916015624999999
1.815966796875
1.6717529296875
1.5218994140625
1.4203857421875
1.3704345703124998
1.3019531249999998
1.300341796875
1.2125244140625
1.1770751953125
1.1537109374999999
1.1931884765625
0.742822265625
0.5228759765625
0.47050781249999996
0.39638671875
0.31743164062499996
0.2795654296875
0.3053466796875
0.7299316406249999
0.9901611328125
1.2141357421874999
1.32451171875
1.416357421875
1.6201904296874998
1.732177734375
1.780517578125
1.6830322265625
1.7611816406249998
1.8312744140625
1.93681640625
1.964208984375
1.9110351562499999
1.91748046875
2.4363281249999997
2.5869873046875
2.779541015625
2.824658203125
2.8174072265624996
2.715087890625
2.3823486328125
2.2034912109375
2.0085205078125
1.8715576171875
1.574267578125
1.43408203125
1.3543212890624998
1.3269287109374999
1.1778808593749999
1.2012451171875
1.1303466796875
1.0546142578125
1.1021484375
1.1400146484375
0.7943847656249999
0.578466796875
0.48662109374999996
0.27231445312499997
0.19094238281249998
0.1554931640625
0.25458984375
0.6582275390625
0.8596435546875
1.0578369140625
1.2656982421874998
1.281005859375
1.456640625
1.493701171875
1.5597656249999998
1.5678222656249998
1.609716796875
1.6250244140624999
1.6451660156249999
1.6564453124999998
1.7257324218749999
1.7426513671875
2.180126953125
2.3879882812499997
2.5193115234374996
2.6860839843749997
2.7126708984374996
2.68125
2.4935302734375
2.302587890625
2.0874755859375
1.9440673828125
1.8844482421875
1.6814208984374999
1.4864501953125
1.36962890625
1.313232421875
1.2665039062499999
1.2221923828124999
1.1255126953124999
1.1706298828125
1.0836181640625
1.0562255859375
0.6251953124999999
0.42861328125
0.35288085937499997
0.270703125
0.1345458984375
0.2263916015625
0.46647949218749996
0.8338623046875
1.0497802734375
1.1915771484375
1.3269287109374999
1.4977294921875
1.542041015625
1.6048828124999999
1.6701416015625
1.7813232421874998
1.8489990234375
1.9706542968749998
1.9110351562499999
1.9698486328125
1.9795166015624999
2.36220703125
2.5112548828124996
2.6739990234374997
2.8335205078124996
2.8423828125
2.7908203124999997
2.6530517578125
2.3654296875
2.196240234375
2.0093261718749997
1.8296630859374998
1.7136474609374999
1.6129394531249999
1.5041748046874999
1.432470703125
1.34384765625
1.3027587890624999
1.2302490234374999
1.16015625
1.1819091796874999
1.1770751953125
0.6308349609374999
0.48662109374999996
0.40524902343749997
0.2513671875
0.1780517578125
0.269091796875
0.588134765625
0.9144287109375
1.0828125
1.2141357421874999
1.32451171875
1.3994384765624999
1.554931640625
1.635498046875
1.738623046875
1.848193359375
1.8626953124999999
1.8659179687499998
1.8981445312499998
1.90458984375
1.9327880859375
2.2115478515625
2.4081298828124997
2.6031005859375
2.7497314453125
2.80048828125
2.7739013671875
2.54267578125
2.3630126953125
2.1865722656249997
1.8860595703124998
1.6951171875
1.5645996093749999
1.3656005859375
1.2906738281249999
1.1690185546875
1.184326171875
1.1013427734374999
1.084423828125
1.0731445312499999
1.0691162109374999
1.074755859375
0.7299316406249999
0.5051513671875
0.37302246093749997
0.25620117187499997
0.20061035156249998
0.133740234375
0.372216796875
0.726708984375
0.9853271484374999
1.2125244140625
1.41796875
1.542041015625
1.67578125
1.7611816406249998
1.8248291015625
1.883642578125
1.8868652343749999
1.883642578125
1.915869140625
1.9311767578124999
1.9029785156249999
2.1309814453125
2.43955078125
2.55234375
2.6860839843749997
2.8149902343749997
2.892333984375
2.8149902343749997
2.5201171875
2.189794921875
1.9698486328125
1.7531249999999998
1.5662109375
1.506591796875
1.380908203125
1.232666015625
1.1666015625
1.1093994140624999
1.0723388671875
1.055419921875
1.0336669921875
1.045751953125
0.8000244140624999
0.4390869140625
0.2940673828125
0.153076171875
0.050756835937499994
0.04189453125
0.1716064453125
0.514013671875
0.8129150390625
1.0223876953125
1.2173583984375
1.3873535156249999
1.4800048828124999
1.6121337890624998
1.7732666015624998
1.8240234375
1.861083984375
1.815966796875
1.8046875
1.8667236328124999
1.89169921875
2.0600830078125
2.33642578125
2.4749999999999996
2.673193359375
2.7827636718749997
2.8705810546875
2.8431884765624997
2.6659423828124997
2.4161865234374997
2.2341064453125
1.973876953125
1.8659179687499998
1.6395263671875
1.4928955078125
1.4445556640625
1.3865478515624998
1.2987304687499999
1.2616699218749998
1.1996337890625
1.181103515625
1.155322265625
0.9402099609375
0.6566162109375
0.49306640625
0.3424072265625
0.2376708984375
0.240087890625
0.2441162109375
0.5438232421875
0.9015380859375
1.1061767578125
1.19560546875
1.3639892578125
1.490478515625
1.6330810546874999
1.7579589843749999
1.7337890624999999
1.7982421874999999
1.8361083984375
1.8280517578125
1.8755859375
1.8635009765625
1.8981445312499998
2.4202148437499997
2.6039062499999996
2.7005859374999996
2.7448974609374996
2.8037109375
2.7102539062499997
2.5660400390625
2.3839599609374997
2.09150390625
1.9021728515624998
1.7909912109375
1.56943359375
1.4735595703125
1.3728515625
1.2858398437499998
1.2536132812499998
1.15693359375
1.142431640625
1.1279296875
1.1408203125
1.0836181640625
0.631640625
0.44633789062499996
0.3762451171875
0.2666748046875
0.1426025390625
0.1490478515625
0.4036376953125
0.7234863281249999
1.0707275390625
1.276171875
1.3229003906249999
1.47275390625
1.5573486328125
1.69189453125
1.8038818359375
1.8538330078124998
1.8377197265624998
1.9110351562499999
1.9867675781249998
2.0294677734374997
2.0230224609375
2.3807373046875
2.4451904296875
2.582958984375
2.6925292968749996
2.7126708984374996
2.7497314453125
2.6127685546875
2.28486328125
2.02705078125
1.8498046874999998
1.6532226562499999
1.525927734375
1.4010498046875
1.3043701171875
1.2334716796875
1.2423339843749999
1.2076904296875
1.087646484375
1.0658935546875
1.0417236328125
1.13115234375
0.6421142578125
0.4640625
0.33757324218749996
0.21914062499999998
0.1877197265625
0.12246093749999999
0.3069580078125
0.7194580078124999
0.913623046875
1.08603515625
1.2834228515625
1.456640625
1.6089111328124999
1.6620849609375
1.783740234375
1.783740234375
1.8296630859374998
1.8763916015625
1.9182861328124998
1.9408447265625
1.9037841796875
2.193017578125
2.4749999999999996
2.5918212890624996
2.8053222656249996
2.9068359375
2.8834716796874997
2.7384521484374997
2.5797363281249996
2.3114501953124997
2.0423583984375
1.82080078125
1.6943115234375
1.561376953125
1.348681640625
1.24072265625
1.1319580078125
1.1279296875
1.0433349609375
0.9716308593749999
0.9321533203125
0.9249023437499999
0.6372802734374999
0.359326171875
0.19013671875
0.0749267578125
0.04189453125
0.0378662109375
0.165966796875
0.6517822265625
0.8773681640625
1.16337890625
1.3422363281249998
1.4316650390624999
1.60166015625
1.7168701171874998
1.77568359375
1.8135498046874998
1.89169921875
1.9617919921875
1.998046875
1.9972412109375
2.0246337890625
2.0359130859375
2.44921875
2.624853515625
2.72314453125
2.840771484375
2.872998046875
2.81015625
2.6103515625
2.3468994140625
2.109228515625
1.9271484374999999
1.7797119140625
1.5251220703125
1.4203857421875
1.4042724609375
1.2286376953125
1.1577392578124999
1.132763671875
1.1512939453125
1.126318359375
1.0755615234375
0.9812988281249999
0.5099853515625
0.38671875
0.2360595703125
0.15146484375
0.049145507812499996
0.13857421875
0.4793701171875
0.95068359375
1.1512939453125
1.2640869140625
1.3728515625
1.5597656249999998
1.6685302734374998
1.7297607421874999
1.8232177734375
1.84013671875
1.8973388671875
1.93681640625
1.9327880859375
1.899755859375
1.8232177734375
2.3307861328125
2.4097412109375
2.5716796874999996
2.7344238281249997
2.7424804687499997
2.6981689453124997
2.5064208984375
2.3243408203125
2.1148681640625
1.94970703125
1.7426513671875
1.7055908203124999
1.5992431640625
1.4590576171874998
1.4066894531249998
1.3059814453124998
1.31162109375
1.2423339843749999
1.2052734375
1.1496826171874999
1.134375
0.6292236328124999
0.4890380859375
0.36093749999999997
0.1877197265625
0.136962890625
0.0958740234375
0.53818359375
0.8660888671875
1.077978515625
1.3422363281249998
1.3962158203125
1.5347900390625
1.61455078125
1.7257324218749999
1.819189453125
1.8473876953125
1.9166748046875
1.9142578124999998
1.8973388671875
1.864306640625
1.90458984375
2.25263671875
2.4854736328125
2.6103515625
2.6772216796875
2.7207275390624996
2.7747070312499997
2.6546630859375
2.45888671875
2.189794921875
1.9956298828124999
1.7958251953125
1.6894775390624999
1.44052734375
1.400244140625
1.432470703125
1.313232421875
1.3527099609375
1.2834228515625
1.1859374999999999
1.2157470703125
1.190771484375
0.8362792968749999
0.5929687499999999
0.346435546875
0.1957763671875
0.153076171875
0.08056640625
0.269091796875
0.6372802734374999
0.8354736328125
1.087646484375
1.268115234375
1.4590576171874998
1.5557373046874998
1.611328125
1.6645019531249998
1.8103271484374999
1.8385253906249999
1.9142578124999998
1.8248291015625
1.7942138671874999
1.812744140625
2.15595703125
2.4145751953125
2.5458984375
2.63291015625
2.8149902343749997
2.8947509765625
2.72314453125
2.5410644531249997
2.1906005859374997
2.0020751953125
1.844970703125
1.5960205078124998
1.4574462890625
1.3736572265625
1.2721435546875
1.1666015625
1.1867431640625
1.06669921875
1.0900634765625
1.0062744140625
1.1142333984375
0.8507812499999999
0.530126953125
0.314208984375
0.1490478515625
0.038671874999999994
0.07814941406249999
0.21591796875
0.6260009765625
0.9676025390624999
1.1690185546875
1.197216796875
1.416357421875
1.513037109375
1.6056884765625
1.7168701171874998
1.7740722656249999
1.8377197265624998
1.877197265625
1.8844482421875
1.7990478515625
1.8183837890624999
2.0778076171874997
2.3710693359375
2.49755859375
2.7191162109375
2.8552734374999997
2.8810546875
2.8311035156249997
2.6619140624999997
2.405712890625
2.1221191406249997
1.9013671875
1.80791015625
1.6669189453125
1.5637939453124998
1.482421875
1.3792968749999999
1.2995361328125
1.248779296875
1.181103515625
1.1867431640625
1.134375
0.8096923828125
0.5470458984375
0.4833984375
0.3311279296875
0.182080078125
0.1812744140625
0.3552978515625
1.077978515625
1.5057861328125
1.869140625
2.2590820312499997
2.4999755859375
2.7207275390624996
2.99384765625
3.04541015625
3.043798828125
3.0462158203125
3.04541015625
3.043798828125
3.04541015625
3.0462158203125
3.04541015625
3.0446044921874997
3.0494384765625
3.04541015625
3.0470214843749996
3.0429931640624996
3.0470214843749996
3.04541015625
3.04541015625
2.8818603515624996
2.7851806640624996
2.7223388671874997
2.5579833984375
2.4613037109375
2.2840576171875
2.131787109375
2.0496093749999997
1.9432617187499999
1.880419921875
1.7772949218749998
1.7781005859374999
1.7152587890625
1.18916015625
1.0159423828125
0.849169921875
0.7218749999999999
0.6010253906249999
0.4922607421875
0.6743408203125
0.8572265625
1.0900634765625
1.2560302734375
1.3986328124999998
1.5670166015625
1.738623046875
1.751513671875
1.7410400390624998
1.812744140625
1.8143554687499999
1.864306640625
1.8900878906249998
1.8546386718749999
1.9118408203125
2.2880859375
2.454052734375
2.505615234375
2.6288818359375
2.6135742187499997
2.615185546875
2.4484130859374997
2.1632080078125
1.9352050781249999
1.7217041015624999
1.5041748046874999
1.3607666015625
1.1770751953125
1.0884521484375
1.042529296875
1.003857421875
0.9466552734375
0.9547119140625
0.9724365234375
0.9474609374999999
0.9917724609374999
0.49467773437499996
0.3552978515625
0.22075195312499998
0.054785156249999994
0.0394775390625
0.0394775390625
0.2795654296875
0.646142578125
0.8427246093749999
1.0409179687499999
1.2310546875
1.4066894531249998
1.4800048828124999
1.5275390624999998
1.6435546875
1.6363037109374998
1.6943115234375
1.6943115234375
1.77568359375
1.732177734375
1.82080078125
2.0729736328125
2.27841796875
2.38154296875
2.570068359375
2.602294921875
2.56845703125
2.4306884765625
2.204296875
1.9529296875
1.7499023437499999
1.6620849609375
1.4759765624999999
1.281005859375
1.232666015625
1.2125244140625
1.142431640625
1.0691162109374999
1.0505859375
1.0207763671874999
1.044140625
1.05380859375
0.7178466796874999
0.4632568359375
0.30051269531249997
0.19094238281249998
0.16435546874999998
0.17885742187499998
0.37302246093749997
0.8507812499999999
1.11826171875
1.4308593749999998
1.5766845703124999
1.7571533203124998
1.9062011718749998
1.941650390625
2.0439697265625
2.08828125
2.099560546875
2.08828125
2.1261474609374997
2.128564453125
2.1221191406249997
2.152734375
2.4484130859374997
2.591015625
2.719921875
2.8125732421875
2.8681640625
2.8141845703125
2.5845703125
2.1857666015625
1.9650146484375
1.7926025390625
1.6604736328124998
1.4195800781249999
1.4244140625
1.432470703125
1.4058837890625
1.329345703125
1.3849365234375
1.4493896484375
1.4993408203124998
1.4945068359375
1.4896728515625
1.1287353515625
0.9418212890625
0.8370849609375
0.7702148437499999
0.8515869140625
1.0489746093749999
1.667724609375
1.993212890625
2.19140625
2.3533447265625
2.5845703125
2.6707763671875
2.7126708984374996
2.7432861328125
2.7561767578125
2.6514404296875
2.5845703125
2.5072265624999996
2.3799316406249997
2.34931640625
2.3759033203124997
2.6433837890625
2.6860839843749997
2.7344238281249997
2.72314453125
2.7142822265624997
2.4468017578125
2.1704589843749997
1.8788085937499999
1.558154296875
1.3301513671874998
1.171435546875
1.06025390625
0.9144287109375
0.7790771484375
0.6751464843749999
0.6920654296875
0.8096923828125
0.7959960937499999
0.7516845703124999
0.784716796875
0.75087890625
0.48178710937499997
0.37785644531249996
0.3230712890625
0.27634277343749997
0.3279052734375
0.45439453124999996
0.8902587890625
1.2665039062499999
1.5734619140625
1.799853515625
1.8393310546875
1.9142578124999998
1.9706542968749998
1.9658203125
1.9682373046875
1.8925048828125
1.9110351562499999
1.8925048828125
1.95615234375
1.9029785156249999
1.8570556640625
2.2018798828125
2.289697265625
2.4041015624999997
2.4161865234374997
2.3912109375
2.2832519531249997
2.0504150390625
1.6806152343749998
1.4961181640624999
1.2374999999999998
1.044140625
0.871728515625
0.7919677734374999
0.7178466796874999
0.69287109375
0.64453125
0.6920654296875
0.8113037109375
0.913623046875
0.9627685546875
1.0868408203125
0.581689453125
0.5099853515625
0.4568115234375
0.39316406249999997
0.4471435546875
0.5712158203125
1.0570312499999999
1.3728515625
1.6443603515624998
1.8393310546875
2.0254394531249997
2.1180908203124997
2.196240234375
2.16884765625
2.1760986328125
2.1889892578125
2.1076171875
2.0488037109375
1.9835449218749999
1.899755859375
1.8151611328125
2.204296875
2.3154785156249997
2.4274658203125
2.4363281249999997
2.44599609375
2.37509765625
2.196240234375
1.9706542968749998
1.6636962890625
1.4155517578124999
1.174658203125
1.1279296875
0.9861328125
0.9079833984375
0.8789794921874999
0.8685058593749999
0.8644775390624999
0.833056640625
0.8830078124999999
0.97001953125
1.0119140625
0.6340576171875
0.488232421875
0.49306640625
0.5043457031249999
0.45358886718749997
0.6517822265625
0.9958007812499999
1.456640625
1.75634765625
1.9029785156249999
2.0431640625
2.1543457031249997
2.205908203125
2.2018798828125
2.2582763671875
2.2792236328124997
2.2590820312499997
2.2623046875
2.2228271484374997
2.180126953125
2.1213134765625
2.3960449218749997
2.4967529296874997
2.578125
2.5571777343749997
2.4274658203125
2.292919921875
2.1052001953125
1.6822265625
1.4195800781249999
1.2020507812499999
1.0497802734375
0.9603515625
0.9611572265624999
0.9208740234374999
0.9176513671875
0.9740478515625
1.0167480468749999
1.11181640625
1.2109130859375
1.27294921875
1.4010498046875
1.152099609375
1.0376953125
0.9877441406249999
1.0143310546875
1.1867431640625
1.3599609375
1.5025634765625
2.0576660156249997
2.2260498046875
2.3267578125
2.4065185546875
2.2494140625
2.164013671875
2.0036865234375
1.972265625
1.8473876953125
1.7668212890625
1.6411376953124999
1.5758789062499998
1.4477783203124999
1.4373046875
1.577490234375
1.7539306640624999
1.7603759765625
1.7821289062499999
1.714453125
1.6185791015625
1.4558349609374999
1.271337890625
1.132763671875
0.9869384765625
0.929736328125
0.9659912109375
0.9498779296875
1.0973144531249999
1.184326171875
1.2785888671874999
1.4389160156249998
1.4953124999999998
1.5726562499999999
1.5702392578125
1.5879638671874998
1.3792968749999999
1.1923828125
1.187548828125
1.1819091796874999
1.1939941406249999
1.3019531249999998
1.4356933593749999
1.8361083984375
2.0431640625
2.0415527343749997
1.9867675781249998
1.8022705078124999
1.6588623046875
1.6733642578124999
1.5766845703124999
1.4542236328125
1.4461669921875
1.448583984375
1.4501953125
1.4477783203124999
1.477587890625
1.5162597656249999
1.8506103515624999
1.7958251953125
1.7410400390624998
1.6290527343749999
1.5766845703124999
1.5251220703125
1.413134765625
1.2834228515625
1.1939941406249999
1.1416259765624999
1.3108154296874999
1.353515625
1.4139404296875
1.4703369140625
1.5460693359375
1.5364013671874999
1.5702392578125
1.625830078125
1.603271484375
1.546875
1.4026611328124998
1.2439453125
1.2544189453124999
1.2745605468749999
1.41796875
1.46630859375
1.6371093749999999
1.9553466796874999
1.9698486328125
1.864306640625
1.8199951171875
1.7652099609374998
1.6645019531249998
1.6185791015625
1.5637939453124998
1.5267333984375
1.4872558593749998
1.5347900390625
1.5243164062499999
1.571044921875
1.603271484375
1.5686279296874999
1.8361083984375
1.7861572265624999
1.6951171875
1.65966796875
1.561376953125
1.4735595703125
1.3607666015625
1.271337890625
1.2979248046874998
1.3285400390625
1.3817138671875
1.3962158203125
1.4526123046875
1.490478515625
1.538818359375
1.5267333984375
1.5831298828125
1.5847412109374999
1.482421875
1.5347900390625
1.5686279296874999
1.2818115234374998
1.3253173828125
1.3365966796875
1.3720458984375
1.4477783203124999
1.5484863281249999
1.8199951171875
1.8941162109374998
1.8618896484374998
1.7426513671875
1.6242187499999998
1.6153564453125
1.5919921874999998
1.5597656249999998
1.525927734375
1.5517089843749998
1.5509033203125
1.5347900390625
1.5919921874999998
1.5565429687499999
1.6000488281249998
1.8175781249999998
1.7555419921875
1.7039794921875
1.6395263671875
1.55009765625
1.5299560546875
1.3905761718749998
1.3656005859375
1.3825195312499998
1.3285400390625
1.3792968749999999
1.4171630859375
1.5090087890625
1.5315673828124998
1.5380126953125
1.538818359375
1.4953124999999998
1.525927734375
1.5090087890625
1.5911865234375
1.6314697265625
1.252001953125
1.3704345703124998
1.4107177734374998
1.464697265625
1.5138427734375
1.622607421875
1.7740722656249999
1.8304687499999999
1.7265380859375
1.6854492187499999
1.5911865234375
1.5138427734375
1.5444580078124999
1.542041015625
1.5444580078124999
1.5678222656249998
1.5702392578125
1.525927734375
1.5355957031249998
1.5597656249999998
1.622607421875
1.78857421875
1.6935058593749999
1.7184814453125
1.6862548828125
1.55009765625
1.5436523437499998
1.44052734375
1.3623779296874998
1.36962890625
1.4123291015625
1.48564453125
1.5162597656249999
1.4719482421874999
1.4308593749999998
1.4800048828124999
1.53076171875
1.5847412109374999
1.56298828125
1.5670166015625
1.542041015625
1.5839355468749998
1.36962890625
1.3712402343749999
1.46630859375
1.4477783203124999
1.52109375
1.5517089843749998
1.73056640625
1.8006591796875
1.7660156249999999
1.6830322265625
1.6298583984375
1.5605712890624999
1.6129394531249999
1.6411376953124999
1.5887695312499999
1.5251220703125
1.5621826171875
1.5444580078124999
1.5436523437499998
1.5782958984375
1.5202880859374999
1.7265380859375
1.706396484375
1.66611328125
1.641943359375
1.5968261718749999
1.5678222656249998
1.4437499999999999
1.4123291015625
1.3502929687499998
1.3913818359374999
1.4219970703125
1.4816162109375
1.493701171875
1.5645996093749999
1.5662109375
1.5355957031249998
1.5114257812499998
1.509814453125
1.5275390624999998
1.56943359375
1.6105224609375
1.41796875
1.3833251953124999
1.43408203125
1.4832275390624998
1.4671142578124998
1.5621826171875
1.64677734375
1.77890625
1.6612792968749999
1.6153564453125
1.6129394531249999
1.6185791015625
1.6056884765625
1.5791015625
1.571044921875
1.5831298828125
1.5484863281249999
1.5557373046874998
1.5275390624999998
1.5573486328125
1.538818359375
1.7555419921875
1.716064453125
1.6322753906249998
1.6532226562499999
1.6137451171875
1.6153564453125
1.5170654296875
1.4195800781249999
1.3752685546874999
1.3527099609375
1.40185546875
1.46630859375
1.522705078125
1.5364013671874999
1.4598632812499999
1.5025634765625
1.5347900390625
1.5380126953125
1.5170654296875
1.5412353515625
1.5839355468749998
1.3728515625
1.3462646484374998
1.5001464843749999
1.4840332031249999
1.5323730468749999
1.5766845703124999
1.6234130859375
1.7732666015624998
1.7748779296875
1.6967285156249998
1.66611328125
1.5944091796875
1.5968261718749999
1.6185791015625
1.56298828125
1.5702392578125
1.5283447265624999
1.5355957031249998
1.5428466796875
1.5073974609374998
1.5887695312499999
1.6209960937499999
1.7297607421874999
1.6290527343749999
1.6701416015625
1.5839355468749998
1.5283447265624999
1.474365234375
1.3825195312499998
1.340625
1.380908203125
1.5073974609374998
1.5331787109375
1.4945068359375
1.5484863281249999
1.5331787109375
1.529150390625
1.5525146484374999
1.5807128906249999
1.5678222656249998
1.5702392578125
1.56943359375
1.3583496093749998
1.2753662109375
1.384130859375
1.4518066406249999
1.5202880859374999
1.5025634765625
1.5766845703124999
1.764404296875
1.7539306640624999
1.7611816406249998
1.6798095703125
1.5533203125
1.5815185546875
1.5815185546875
1.5637939453124998
1.533984375
1.5492919921875
1.5122314453124999
1.53720703125
1.53076171875
1.545263671875
1.6185791015625
1.7958251953125
1.6669189453125
1.6403320312499998
1.6363037109374998
1.56298828125
1.51787109375
1.4687255859375
1.3994384765624999
1.3825195312499998
1.4622802734375
1.45341796875
1.5533203125
1.5637939453124998
1.529150390625
1.58232421875
1.5758789062499998
1.5766845703124999
1.5605712890624999
1.5509033203125
1.5146484375
1.493701171875
1.3422363281249998
1.4526123046875
1.461474609375
1.5082031249999999
1.5017578125
1.5484863281249999
1.7370117187499998
1.7490966796874998
1.6862548828125
1.6371093749999999
1.62744140625
1.6040771484374998
1.571044921875
1.5364013671874999
1.577490234375
1.513037109375
1.52109375
1.5315673828124998
1.561376953125
1.4977294921875
1.5766845703124999
1.8046875
1.7007568359374998
1.635498046875
1.6250244140624999
1.5621826171875
1.538818359375
1.4010498046875
1.345458984375
1.3792968749999999
1.45341796875
1.5162597656249999
1.480810546875
1.5202880859374999
1.5484863281249999
1.5782958984375
1.5919921874999998
1.5847412109374999
1.5662109375
1.5807128906249999
1.5492919921875
1.4800048828124999
1.2439453125
1.3672119140624999
1.5073974609374998
1.5347900390625
1.5428466796875
1.5589599609375
1.770849609375
1.7595703125
1.6894775390624999
1.6234130859375
1.5944091796875
1.53720703125
1.574267578125
1.6290527343749999
1.545263671875
1.5275390624999998
1.5106201171875
1.5243164062499999
1.6089111328124999
1.6508056640625
1.6121337890624998
1.7015624999999999
1.6588623046875
1.6266357421875
1.6379150390625
1.5879638671874998
1.5718505859374998
1.4308593749999998
1.4058837890625
1.426025390625
1.429248046875
1.44052734375
1.4920898437499999
1.5017578125
1.5106201171875
1.5251220703125
1.5621826171875
1.4945068359375
1.4735595703125
1.542041015625
1.5911865234375
1.577490234375
1.3430419921874999
1.4389160156249998
1.496923828125
1.4928955078125
1.525927734375
1.4977294921875
1.71123046875
1.7740722656249999
1.7208984374999998
1.7176757812499999
1.6427490234375
1.5895751953125
1.587158203125
1.5637939453124998
1.5331787109375
1.5734619140625
1.5444580078124999
1.5428466796875
1.5678222656249998
1.5235107421874998
1.5355957031249998
1.6806152343749998
1.66611328125
1.6185791015625
1.635498046875
1.6177734375
1.5799072265624998
1.4461669921875
1.40185546875
1.40830078125
1.4751708984374998
1.4953124999999998
1.53720703125
1.4791992187499998
1.4961181640624999
1.5267333984375
1.5299560546875
1.5380126953125
1.5863525390625
1.529150390625
1.58232421875
1.545263671875
1.3575439453125
1.4147460937499998
1.4510009765624998
1.4759765624999999
1.5017578125
1.5686279296874999
1.6822265625
1.7716552734375
1.6806152343749998
1.662890625
1.6024658203125
1.5766845703124999
1.5968261718749999
1.56298828125
1.5331787109375
1.5565429687499999
1.5678222656249998
1.577490234375
1.558154296875
1.59521484375
1.5847412109374999
1.6773925781249999
1.7200927734375
1.6717529296875
1.5992431640625
1.5670166015625
1.533984375
1.5162597656249999
1.5001464843749999
1.4236083984374999
1.384130859375
1.4526123046875
1.458251953125
1.5275390624999998
1.5057861328125
1.55009765625
1.4445556640625
1.51787109375
1.5541259765625
1.5637939453124998
1.5396240234374998
1.5492919921875
1.3897705078125
1.4501953125
1.4767822265625
1.4928955078125
1.5009521484375
1.5041748046874999
1.662890625
1.7313720703125
1.687060546875
1.6669189453125
1.6443603515624998
1.6266357421875
1.6024658203125
1.5686279296874999
1.5686279296874999
1.5879638671874998
1.5927978515624999
1.5460693359375
1.5364013671874999
1.5146484375
1.50498046875
1.6129394531249999
1.6927001953124998
1.6532226562499999
1.6508056640625
1.641943359375
1.5750732421875
1.4993408203124998
1.397021484375
1.3430419921874999
1.45341796875
1.5202880859374999
1.5678222656249998
1.4977294921875
1.5299560546875
1.5396240234374998
1.513037109375
1.5114257812499998
1.5686279296874999
1.6048828124999999
1.5275390624999998
1.5347900390625
1.335791015625
1.4058837890625
1.4526123046875
1.533984375
1.5146484375
1.5541259765625
1.6314697265625
1.751513671875
1.7136474609374999
1.69189453125
1.6685302734374998
1.5815185546875
1.5364013671874999
1.545263671875
1.5791015625
1.58232421875
1.5573486328125
1.5194824218749998
1.5428466796875
1.542041015625
1.5895751953125
1.6322753906249998
1.716064453125
1.69189453125
1.6201904296874998
1.5662109375
1.5396240234374998
1.4510009765624998
1.4429443359374998
1.4155517578124999
1.4236083984374999
1.464697265625
1.4832275390624998
1.5404296874999999
1.546875
1.5299560546875
1.62744140625
1.5573486328125
1.5194824218749998
1.5839355468749998
1.5170654296875
1.52109375
1.4896728515625
1.41796875
1.490478515625
1.5114257812499998
1.5154541015624998
1.490478515625
1.5114257812499998
1.7716552734375
1.6975341796874999
1.6177734375
1.561376953125
1.587158203125
1.5782958984375
1.606494140625
1.5944091796875
1.5509033203125
1.5460693359375
1.5645996093749999
1.5758789062499998
1.5565429687499999
1.5541259765625
1.5887695312499999
1.7345947265625
1.6653076171874999
1.6411376953124999
1.5992431640625
1.5275390624999998
1.5251220703125
1.432470703125
1.3736572265625
1.4091064453125
1.4961181640624999
1.5194824218749998
1.4735595703125
1.5283447265624999
1.5678222656249998
1.56943359375
1.56298828125
1.5637939453124998
1.5444580078124999
1.5670166015625
1.5364013671874999
1.4638916015624999
1.3728515625
1.4655029296875
1.477587890625
1.525927734375
1.5243164062499999
1.625830078125
1.72734375
1.6991455078125
1.67578125
1.6290527343749999
1.6153564453125
1.587158203125
1.5670166015625
1.546875
1.5315673828124998
1.5323730468749999
1.5476806640624998
1.5597656249999998
1.5557373046874998
1.56943359375
1.5726562499999999
1.7934082031249998
1.6234130859375
1.5791015625
1.5525146484374999
1.5460693359375
1.5645996093749999
1.4711425781249998
1.4638916015624999
1.4364990234375
1.4679199218749999
1.5033691406249998
1.4655029296875
1.513037109375
1.5702392578125
1.5380126953125
1.5033691406249998
1.5782958984375
1.5944091796875
1.5412353515625
1.5645996093749999
1.5670166015625
1.361572265625
1.4493896484375
1.4542236328125
1.5106201171875
1.5597656249999998
1.6185791015625
1.6773925781249999
1.7047851562499998
1.6927001953124998
1.6830322265625
1.5815185546875
1.5509033203125
1.5807128906249999
1.5597656249999998
1.561376953125
1.58232421875
1.6056884765625
1.577490234375
1.58232421875
1.5911865234375
1.509814453125
1.7023681640625
1.6435546875
1.6137451171875
1.5968261718749999
1.609716796875
1.603271484375
1.4590576171874998
1.464697265625
1.4783935546875
1.4598632812499999
1.480810546875
1.5138427734375
1.5637939453124998
1.5218994140625
1.5509033203125
1.5138427734375
1.5678222656249998
1.5839355468749998
1.506591796875
1.5533203125
1.5766845703124999
1.3712402343749999
1.4228027343749998
1.4373046875
1.4501953125
1.53720703125
1.545263671875
1.7297607421874999
1.7635986328125
1.67900390625
1.59521484375
1.5984375
1.5887695312499999
1.53720703125
1.558154296875
1.5251220703125
1.5444580078124999
1.5533203125
1.59521484375
1.5654052734375
1.5557373046874998
1.5573486328125
1.7635986328125
1.65
1.6483886718749998
1.6129394531249999
1.6161621093749998
1.5968261718749999
1.493701171875
1.40830078125
1.4300537109375
1.4493896484375
1.45341796875
1.474365234375
1.533984375
1.5186767578125
1.5355957031249998
1.574267578125
1.561376953125
1.525927734375
1.5404296874999999
1.5573486328125
1.5517089843749998
1.3527099609375
1.3768798828125
1.522705078125
1.5645996093749999
1.5138427734375
1.5597656249999998
1.6427490234375
1.7426513671875
1.6645019531249998
1.6169677734374999
1.571044921875
1.5565429687499999
1.56298828125
1.6000488281249998
1.590380859375
1.5831298828125
1.5702392578125
1.593603515625
1.609716796875
1.55009765625
1.538818359375
1.6967285156249998
1.7168701171874998
1.6322753906249998
1.6314697265625
1.577490234375
1.4912841796874998
1.432470703125
1.4461669921875
1.4896728515625
1.40185546875
1.48564453125
1.5162597656249999
1.506591796875
1.5331787109375
1.542041015625
1.5202880859374999
1.5315673828124998
1.5645996093749999
1.5202880859374999
1.5589599609375
1.5436523437499998
1.43408203125
1.4469726562499998
1.4469726562499998
1.4896728515625
1.55009765625
1.5565429687499999
1.6185791015625
1.7096191406249999
1.6572509765624999
1.6540283203125
1.619384765625
1.5734619140625
1.5960205078124998
1.5380126953125
1.5807128906249999
1.5315673828124998
1.571044921875
1.6024658203125
1.5235107421874998
1.5355957031249998
1.55009765625
1.7120361328125
1.699951171875
1.6636962890625
1.6636962890625
1.571044921875
1.5323730468749999
1.4711425781249998
1.4195800781249999
1.4413330078125
1.4445556640625
1.5073974609374998
1.490478515625
1.4832275390624998
1.4896728515625
1.4961181640624999
1.5154541015624998
1.5154541015624998
1.5702392578125
1.5533203125
1.5146484375
1.5573486328125
1.4074951171874999
1.426025390625
1.493701171875
1.4751708984374998
1.5114257812499998
1.5492919921875
1.593603515625
1.7233154296875
1.7096191406249999
1.6612792968749999
1.6177734375
1.5960205078124998
1.585546875
1.5799072265624998
1.542041015625
1.5702392578125
1.5782958984375
1.5831298828125
1.5799072265624998
1.5090087890625
1.5194824218749998
1.5202880859374999
1.667724609375
1.6201904296874998
1.625830078125
1.590380859375
1.5847412109374999
1.5436523437499998
1.4598632812499999
1.4187744140624998
1.4284423828125
1.456640625
1.4872558593749998
1.53076171875
1.593603515625
1.5460693359375
1.4977294921875
1.545263671875
1.5396240234374998
1.5484863281249999
1.5323730468749999
1.577490234375
1.4123291015625
1.3414306640625
1.429248046875
1.5154541015624998
1.5492919921875
1.542041015625
1.5380126953125
1.7297607421874999
1.780517578125
1.6886718749999998
1.6008544921874999
1.658056640625
1.6234130859375
1.533984375
1.5565429687499999
1.53720703125
1.5799072265624998
1.533984375
1.522705078125
1.5428466796875
1.5637939453124998
1.545263671875
1.7096191406249999
1.66611328125
1.635498046875
1.6322753906249998
1.5678222656249998
1.5404296874999999
1.432470703125
1.4276367187499999
1.40830078125
1.4332763671875
1.4332763671875
1.5154541015624998
1.51787109375
1.5605712890624999
1.5565429687499999
1.5347900390625
1.55009765625
1.546875
1.5323730468749999
1.52109375
1.5355957031249998
1.3607666015625
1.4203857421875
1.496923828125
1.545263671875
1.5589599609375
1.5637939453124998
1.7329833984374998
1.74345703125
1.6524169921874998
1.6000488281249998
1.6081054687499998
1.6395263671875
1.56943359375
1.5654052734375
1.574267578125
1.59521484375
1.542041015625
1.5218994140625
1.53076171875
1.561376953125
1.5476806640624998
1.7394287109375
1.6693359374999999
1.654833984375
1.59521484375
1.545263671875
1.5323730468749999
1.4719482421874999
1.4429443359374998
1.4147460937499998
1.493701171875
1.4711425781249998
1.5194824218749998
1.5218994140625
1.5476806640624998
1.558154296875
1.5404296874999999
1.5791015625
1.5364013671874999
1.5436523437499998
1.513037109375
1.5396240234374998
1.3736572265625
1.4308593749999998
1.4848388671875
1.490478515625
1.5033691406249998
1.5557373046874998
1.683837890625
1.722509765625
1.66611328125
1.6282470703124998
1.58232421875
1.577490234375
1.5984375
1.59521484375
1.5750732421875
1.5323730468749999
1.5315673828124998
1.5275390624999998
1.5863525390625
1.574267578125
1.5734619140625
1.6854492187499999
1.6483886718749998
1.6363037109374998
1.6209960937499999
1.5347900390625
1.5782958984375
1.456640625
1.4526123046875
1.46630859375
1.477587890625
1.4912841796874998
1.5315673828124998
1.5533203125
1.571044921875
1.4993408203124998
1.513037109375
1.477587890625
1.533984375
1.5428466796875
1.5170654296875
1.5525146484374999
1.4219970703125
1.4074951171874999
1.4832275390624998
1.52109375
1.5565429687499999
1.52109375
1.6645019531249998
1.7249267578124998
1.683837890625
1.6830322265625
1.619384765625
1.5573486328125
1.5927978515624999
1.5645996093749999
1.56943359375
1.609716796875
1.5517089843749998
1.5057861328125
1.4961181640624999
1.5992431640625
1.590380859375
1.7128417968749998
1.654833984375
1.6250244140624999
1.619384765625
1.58232421875
1.5267333984375
1.4832275390624998
1.4493896484375
1.43408203125
1.4518066406249999
1.4993408203124998
1.5017578125
1.4977294921875
1.5017578125
1.4888671875
1.4928955078125
1.5726562499999999
1.5702392578125
1.554931640625
1.5782958984375
1.53720703125
1.38896484375
1.4373046875
1.46953125
1.5146484375
1.5355957031249998
1.5782958984375
1.635498046875
1.722509765625
1.6693359374999999
1.6717529296875
1.603271484375
1.6185791015625
1.5815185546875
1.5831298828125
1.5315673828124998
1.56943359375
1.5758789062499998
1.5992431640625
1.4993408203124998
1.5243164062499999
1.538818359375
1.7015624999999999
1.7120361328125
1.6556396484375
1.6081054687499998
1.5597656249999998
1.5404296874999999
1.490478515625
1.4252197265625
1.4252197265625
1.4219970703125
1.477587890625
1.50498046875
1.49853515625
1.5122314453124999
1.5654052734375
1.59521484375
1.5541259765625
1.5702392578125
1.5355957031249998
1.53076171875
1.603271484375
1.3857421875
1.4171630859375
1.4759765624999999
1.5138427734375
1.5041748046874999
1.5380126953125
1.5476806640624998
1.74345703125
1.7208984374999998
1.6234130859375
1.5186767578125
1.5605712890624999
1.558154296875
1.593603515625
1.606494140625
1.6451660156249999
1.6234130859375
1.5597656249999998
1.533984375
1.5589599609375
1.5218994140625
1.561376953125
1.7152587890625
1.654833984375
1.6024658203125
1.5984375
1.5919921874999998
1.5484863281249999
1.4187744140624998
1.4244140625
1.4606689453125
1.4832275390624998
1.5114257812499998
1.53720703125
1.5396240234374998
1.5533203125
1.5283447265624999
1.538818359375
1.5315673828124998
1.4767822265625
1.561376953125
1.5573486328125
1.3825195312499998
1.3430419921874999
1.4203857421875
1.5057861328125
1.5444580078124999
1.5791015625
1.5734619140625
1.719287109375
1.6830322265625
1.667724609375
1.6081054687499998
1.5557373046874998
1.5541259765625
1.5726562499999999
1.5782958984375
1.587158203125
1.53720703125
1.5670166015625
1.5968261718749999
1.606494140625
1.5444580078124999
1.574267578125
1.6967285156249998
1.622607421875
1.6435546875
1.58232421875
1.5621826171875
1.5186767578125
1.4477783203124999
1.4501953125
1.4356933593749999
1.4526123046875
1.4896728515625
1.5557373046874998
1.538818359375
1.5428466796875
1.5436523437499998
1.5315673828124998
1.5082031249999999
1.5412353515625
1.545263671875
1.561376953125
1.5444580078124999
1.2930908203125
1.456640625
1.5090087890625
1.513037109375
1.51787109375
1.5807128906249999
1.7611816406249998
1.7289550781249998
1.6653076171874999
1.590380859375
1.5799072265624998
1.5919921874999998
1.5355957031249998
1.5412353515625
1.5525146484374999
1.561376953125
1.5090087890625
1.5750732421875
1.5678222656249998
1.571044921875
1.5476806640624998
1.6991455078125
1.667724609375
1.6250244140624999
1.587158203125
1.5525146484374999
1.53076171875
1.4445556640625
1.4147460937499998
1.4389160156249998
1.4518066406249999
1.4791992187499998
1.5033691406249998
1.5444580078124999
1.5654052734375
1.5654052734375
1.5621826171875
1.5323730468749999
1.5662109375
1.5702392578125
1.5750732421875
1.5082031249999999
1.35673828125
1.4316650390624999
1.4759765624999999
1.5106201171875
1.55009765625
1.5992431640625
1.7797119140625
1.722509765625
1.6363037109374998
1.611328125
1.60166015625
1.5791015625
1.5589599609375
1.5396240234374998
1.5283447265624999
1.5678222656249998
1.571044921875
1.5678222656249998
1.577490234375
1.571044921875
1.5412353515625
1.738623046875
1.6645019531249998
1.6234130859375
1.619384765625
1.5412353515625
1.538818359375
1.4397216796874999
1.4316650390624999
1.40830078125
1.4381103515625
1.4953124999999998
1.5541259765625
1.5243164062499999
1.5122314453124999
1.522705078125
1.5654052734375
1.5621826171875
1.5138427734375
1.5726562499999999
1.574267578125
1.571044921875
1.3784912109374998
1.4373046875
1.48564453125
1.4864501953125
1.5428466796875
1.5460693359375
1.6612792968749999
1.7362060546875
1.6451660156249999
1.5807128906249999
1.577490234375
1.593603515625
1.6266357421875
1.5645996093749999
1.5919921874999998
1.5565429687499999
1.5597656249999998
1.5436523437499998
1.506591796875
1.533984375
1.53720703125
1.73056640625
1.667724609375
1.6330810546874999
1.6483886718749998
1.6000488281249998
1.5218994140625
1.4703369140625
1.47275390625
1.4187744140624998
1.432470703125
1.4373046875
1.4791992187499998
1.5678222656249998
1.5734619140625
1.5702392578125
1.577490234375
1.5573486328125
1.5218994140625
1.5331787109375
1.5243164062499999
1.5218994140625
1.3631835937499999
1.4655029296875
1.4864501953125
1.509814453125
1.4953124999999998
1.542041015625
1.6878662109375
1.76279296875
1.683837890625
1.6532226562499999
1.587158203125
1.545263671875
1.611328125
1.5839355468749998
1.5637939453124998
1.56298828125
1.554931640625
1.5670166015625
1.5380126953125
1.6008544921874999
1.546875
1.7660156249999999
1.7007568359374998
1.6371093749999999
1.6218017578125
1.5807128906249999
1.533984375
1.461474609375
1.38896484375
1.3857421875
1.4703369140625
1.5251220703125
1.5573486328125
1.5444580078124999
1.4920898437499999
1.509814453125
1.5621826171875
1.56943359375
1.5645996093749999
1.5509033203125
1.5670166015625
1.5533203125
1.3543212890624998
1.3921875
1.4437499999999999
1.4816162109375
1.4953124999999998
1.5428466796875
1.7370117187499998
1.7257324218749999
1.7015624999999999
1.6572509765624999
1.6266357421875
1.5380126953125
1.554931640625
1.561376953125
1.5605712890624999
1.5895751953125
1.554931640625
1.5355957031249998
1.5895751953125
1.5750732421875
1.5122314453124999
1.6451660156249999
1.6532226562499999
1.64677734375
1.651611328125
1.6177734375
1.5589599609375
1.4864501953125
1.474365234375
1.416357421875
1.4373046875
1.4510009765624998
1.4397216796874999
1.490478515625
1.5509033203125
1.5090087890625
1.538818359375
1.5589599609375
1.5218994140625
1.5654052734375
1.55009765625
1.5758789062499998
1.3672119140624999
1.4203857421875
1.445361328125
1.5315673828124998
1.5758789062499998
