1.5170654296875
1.5194824218749998
1.522705078125
1.5082031249999999
1.538818359375
1.5476806640624998
1.5436523437499998
1.554931640625
1.525927734375
1.522705078125
1.3921875
1.5041748046874999
1.52109375
1.545263671875
1.5492919921875
1.5863525390625
1.7217041015624999
1.635498046875
1.6000488281249998
1.6161621093749998
1.5565429687499999
1.5734619140625
1.5927978515624999
1.5589599609375
1.5621826171875
1.5557373046874998
1.5758789062499998
1.5396240234374998
1.5476806640624998
1.4638916015624999
1.5380126953125
1.6862548828125
1.65966796875
1.609716796875
1.6266357421875
1.5637939453124998
1.4791992187499998
1.47275390625
1.4630859374999998
1.4800048828124999
1.5138427734375
1.513037109375
1.5347900390625
1.51787109375
1.5073974609374998
1.554931640625
1.53720703125
1.5380126953125
1.55009765625
1.5686279296874999
1.5444580078124999
1.5082031249999999
1.3929931640625
1.5033691406249998
1.5396240234374998
1.5283447265624999
1.51787109375
1.5404296874999999
1.67578125
1.6991455078125
1.6411376953124999
1.6306640625
1.5750732421875
1.5807128906249999
1.5645996093749999
1.5726562499999999
1.5355957031249998
1.558154296875
1.5557373046874998
1.5412353515625
1.5678222656249998
1.5517089843749998
1.554931640625
1.690283203125
1.6685302734374998
1.6137451171875
1.5815185546875
1.5637939453124998
1.5863525390625
1.4896728515625
1.4477783203124999
1.4622802734375
1.4767822265625
1.5202880859374999
1.5235107421874998
1.5331787109375
1.496923828125
1.5251220703125
1.522705078125
1.5791015625
1.51787109375
1.5460693359375
1.5541259765625
1.5073974609374998
1.380908203125
1.47275390625
1.4864501953125
1.5090087890625
1.5355957031249998
1.5460693359375
1.72734375
1.72412109375
1.6798095703125
1.5557373046874998
1.6129394531249999
1.5927978515624999
1.5718505859374998
1.5734619140625
1.5557373046874998
1.5347900390625
1.5605712890624999
1.5267333984375
1.5863525390625
1.5355957031249998
1.5444580078124999
1.6693359374999999
1.606494140625
1.6314697265625
1.5992431640625
1.5525146484374999
1.5444580078124999
1.4590576171874998
1.4840332031249999
1.4655029296875
1.482421875
1.4896728515625
1.5492919921875
1.5404296874999999
1.5492919921875
1.5154541015624998
1.5202880859374999
1.5331787109375
1.5589599609375
1.561376953125
1.5791015625
1.561376953125
1.397021484375
1.4284423828125
1.4759765624999999
1.5355957031249998
1.5911865234375
1.5541259765625
1.6234130859375
1.6459716796875
1.6395263671875
1.6854492187499999
1.5839355468749998
1.571044921875
1.56298828125
1.5678222656249998
1.5791015625
1.5645996093749999
1.58232421875
1.542041015625
1.545263671875
1.5645996093749999
1.5621826171875
1.6862548828125
1.6540283203125
1.60166015625
1.6056884765625
1.6000488281249998
1.5541259765625
1.4928955078125
1.4542236328125
1.4550292968749998
1.4832275390624998
1.5162597656249999
1.4832275390624998
1.5355957031249998
1.587158203125
1.5331787109375
1.5243164062499999
1.545263671875
1.5017578125
1.5380126953125
1.55009765625
1.5573486328125
1.400244140625
1.4042724609375
1.5033691406249998
1.5235107421874998
1.5662109375
1.5428466796875
1.61455078125
1.6669189453125
1.6395263671875
1.593603515625
1.5968261718749999
1.5807128906249999
1.55009765625
1.571044921875
1.587158203125
1.5799072265624998
1.5887695312499999
1.5766845703124999
1.5315673828124998
1.5791015625
1.5645996093749999
1.6459716796875
1.667724609375
1.5815185546875
1.5799072265624998
1.5807128906249999
1.5484863281249999
1.5251220703125
1.4832275390624998
1.4493896484375
1.4606689453125
1.5009521484375
1.5009521484375
1.5138427734375
1.5831298828125
1.5283447265624999
1.5243164062499999
1.506591796875
1.5396240234374998
1.5517089843749998
1.52109375
1.5299560546875
1.4276367187499999
1.4195800781249999
1.4800048828124999
1.4912841796874998
1.525927734375
1.5927978515624999
1.654833984375
1.7088134765624998
1.6669189453125
1.6250244140624999
1.5782958984375
1.5847412109374999
1.577490234375
1.5887695312499999
1.5621826171875
1.5839355468749998
1.5662109375
1.5597656249999998
1.5484863281249999
1.5565429687499999
1.5525146484374999
1.635498046875
1.7015624999999999
1.5887695312499999
1.590380859375
1.577490234375
1.5605712890624999
1.5243164062499999
1.4558349609374999
1.4574462890625
1.4550292968749998
1.5025634765625
1.50498046875
1.5396240234374998
1.5621826171875
1.5637939453124998
1.5412353515625
1.5597656249999998
1.506591796875
1.4977294921875
1.5396240234374998
1.561376953125
1.4832275390624998
1.4389160156249998
1.4864501953125
1.4630859374999998
1.546875
1.5315673828124998
1.558154296875
1.66611328125
1.73056640625
1.6451660156249999
1.603271484375
1.585546875
1.6105224609375
1.56943359375
1.5734619140625
1.5460693359375
1.533984375
1.5404296874999999
1.6008544921874999
1.5726562499999999
1.5404296874999999
1.5758789062499998
1.706396484375
1.6532226562499999
1.6056884765625
1.5984375
1.5533203125
1.509814453125
1.4687255859375
1.4389160156249998
1.4518066406249999
1.52109375
1.4751708984374998
1.4848388671875
1.5323730468749999
1.5235107421874998
1.5517089843749998
1.525927734375
1.5428466796875
1.5138427734375
1.5597656249999998
1.5654052734375
1.5283447265624999
1.41796875
1.51787109375
1.5025634765625
1.5033691406249998
1.525927734375
1.56943359375
1.6653076171874999
1.6975341796874999
1.609716796875
1.5807128906249999
1.6089111328124999
1.5726562499999999
1.5831298828125
1.5879638671874998
1.585546875
1.5154541015624998
1.5347900390625
1.5533203125
1.5670166015625
1.53720703125
1.5525146484374999
1.6894775390624999
1.67900390625
1.6105224609375
1.585546875
1.5565429687499999
1.5621826171875
1.4364990234375
1.4413330078125
1.5122314453124999
1.4558349609374999
1.509814453125
1.5170654296875
1.5364013671874999
1.546875
1.5170654296875
1.5541259765625
1.5557373046874998
1.5436523437499998
1.5509033203125
1.5146484375
1.4767822265625
1.3752685546874999
1.47275390625
1.4953124999999998
1.525927734375
1.5460693359375
1.5589599609375
1.7015624999999999
1.6749755859375
1.6411376953124999
1.6040771484374998
1.5863525390625
1.60166015625
1.5404296874999999
1.5355957031249998
1.5597656249999998
1.5533203125
1.5750732421875
1.5484863281249999
1.5879638671874998
1.5702392578125
1.5517089843749998
1.7168701171874998
1.62744140625
1.571044921875
1.5919921874999998
1.571044921875
1.5355957031249998
1.46953125
1.4751708984374998
1.4622802734375
1.4687255859375
1.5243164062499999
1.6105224609375
1.5444580078124999
1.5645996093749999
1.5573486328125
1.5412353515625
1.5637939453124998
1.5734619140625
1.5041748046874999
1.5162597656249999
1.525927734375
1.397021484375
1.4719482421874999
1.5001464843749999
1.5106201171875
1.545263671875
1.5621826171875
1.6475830078125
1.6910888671875
1.64677734375
1.5815185546875
1.5654052734375
1.5557373046874998
1.5686279296874999
1.5380126953125
1.554931640625
1.5557373046874998
1.5927978515624999
1.6072998046875
1.622607421875
1.5839355468749998
1.5315673828124998
1.6878662109375
1.638720703125
1.606494140625
1.5919921874999998
1.59521484375
1.5243164062499999
1.4622802734375
1.4671142578124998
1.4791992187499998
1.4920898437499999
1.525927734375
1.5380126953125
1.5073974609374998
1.5315673828124998
1.5541259765625
1.542041015625
1.545263671875
1.5331787109375
1.5621826171875
1.546875
1.5380126953125
1.380908203125
1.4373046875
1.4961181640624999
1.5243164062499999
1.5492919921875
1.5791015625
1.6822265625
1.6943115234375
1.6322753906249998
1.6371093749999999
1.5654052734375
1.561376953125
1.5911865234375
1.5782958984375
1.545263671875
1.5702392578125
1.5702392578125
1.5605712890624999
1.56943359375
1.5919921874999998
1.5678222656249998
1.7055908203124999
1.63388671875
1.590380859375
1.5992431640625
1.6153564453125
1.5605712890624999
1.5162597656249999
1.477587890625
1.4493896484375
1.4638916015624999
1.4993408203124998
1.5082031249999999
1.5283447265624999
1.5355957031249998
1.5194824218749998
1.5001464843749999
1.5202880859374999
1.5476806640624998
1.5460693359375
1.5541259765625
1.545263671875
1.41796875
1.45341796875
1.5001464843749999
1.509814453125
1.506591796875
1.5355957031249998
1.611328125
1.699951171875
1.6532226562499999
1.5992431640625
1.542041015625
1.5815185546875
1.5927978515624999
1.5976318359375
1.5887695312499999
1.5734619140625
1.5645996093749999
1.5202880859374999
1.561376953125
1.5702392578125
1.5605712890624999
1.6701416015625
1.687060546875
1.611328125
1.56943359375
1.5782958984375
1.5605712890624999
1.496923828125
1.445361328125
1.4356933593749999
1.5017578125
1.5082031249999999
1.5251220703125
1.5364013671874999
1.5090087890625
1.5251220703125
1.5436523437499998
1.5186767578125
1.5025634765625
1.533984375
1.5404296874999999
1.5541259765625
1.4574462890625
1.4751708984374998
1.522705078125
1.5315673828124998
1.5283447265624999
1.51787109375
1.6024658203125
1.6894775390624999
1.674169921875
1.64677734375
1.60166015625
1.5879638671874998
1.5734619140625
1.5831298828125
1.5734619140625
1.5686279296874999
1.5911865234375
1.5396240234374998
1.5662109375
1.5645996093749999
1.5533203125
1.6153564453125
1.6620849609375
1.62744140625
1.587158203125
1.6000488281249998
1.5863525390625
1.53076171875
1.4437499999999999
1.4445556640625
1.445361328125
1.4598632812499999
1.456640625
1.5001464843749999
1.5597656249999998
1.5162597656249999
1.5404296874999999
1.53720703125
1.55009765625
1.5533203125
1.538818359375
1.5404296874999999
1.4284423828125
1.4598632812499999
1.461474609375
1.4783935546875
1.4928955078125
1.5662109375
1.6290527343749999
1.6943115234375
1.6773925781249999
1.654833984375
1.6072998046875
1.561376953125
1.5605712890624999
1.5791015625
1.585546875
1.5927978515624999
1.5460693359375
1.5919921874999998
1.5637939453124998
1.5154541015624998
1.5597656249999998
1.574267578125
1.6701416015625
1.5944091796875
1.5678222656249998
1.585546875
1.5863525390625
1.4711425781249998
1.46953125
1.4308593749999998
1.4300537109375
1.5017578125
1.4993408203124998
1.5315673828124998
1.490478515625
1.5033691406249998
1.5509033203125
1.5525146484374999
1.5573486328125
1.5718505859374998
1.5589599609375
1.545263671875
1.5557373046874998
1.4252197265625
1.5154541015624998
1.5428466796875
1.52109375
1.5331787109375
1.5686279296874999
1.7088134765624998
1.658056640625
1.6403320312499998
1.609716796875
1.5791015625
1.5565429687499999
1.5726562499999999
1.5589599609375
1.5517089843749998
1.5235107421874998
1.5645996093749999
1.5476806640624998
1.5436523437499998
1.5799072265624998
1.5984375
1.719287109375
1.6508056640625
1.5992431640625
1.606494140625
1.5726562499999999
1.525927734375
1.4518066406249999
1.4469726562499998
1.4638916015624999
1.490478515625
1.5017578125
1.5001464843749999
1.5090087890625
1.5170654296875
1.5355957031249998
1.554931640625
1.56943359375
1.561376953125
1.5347900390625
1.5557373046874998
1.51787109375
1.40185546875
1.4848388671875
1.4920898437499999
1.5380126953125
1.5517089843749998
1.5533203125
1.6959228515625
1.6685302734374998
1.6290527343749999
1.590380859375
1.606494140625
1.5597656249999998
1.5678222656249998
1.58232421875
1.5686279296874999
1.6024658203125
1.5686279296874999
1.5509033203125
1.5533203125
1.5758789062499998
1.5275390624999998
1.6290527343749999
1.6564453124999998
1.6459716796875
1.5911865234375
1.5766845703124999
1.5275390624999998
1.5017578125
1.4461669921875
1.45341796875
1.4920898437499999
1.5194824218749998
1.482421875
1.4880615234374999
1.5194824218749998
1.5597656249999998
1.5444580078124999
1.554931640625
1.56943359375
1.5645996093749999
1.5122314453124999
1.4840332031249999
1.3881591796875
1.4703369140625
1.5033691406249998
1.5001464843749999
1.5654052734375
1.5831298828125
1.674169921875
1.7047851562499998
1.6371093749999999
1.619384765625
1.6089111328124999
1.5919921874999998
1.58232421875
1.546875
1.55009765625
1.5517089843749998
1.5847412109374999
1.558154296875
1.5315673828124998
1.5686279296874999
1.5734619140625
1.6798095703125
1.6967285156249998
1.593603515625
1.5726562499999999
1.5637939453124998
1.5436523437499998
1.4953124999999998
1.4461669921875
1.4518066406249999
1.464697265625
1.4945068359375
1.522705078125
1.53076171875
1.5509033203125
1.490478515625
1.5154541015624998
1.5645996093749999
1.5517089843749998
1.5645996093749999
1.53720703125
1.5243164062499999
1.36962890625
1.4469726562499998
1.4888671875
1.5122314453124999
1.5484863281249999
1.5315673828124998
1.6653076171874999
1.6910888671875
1.6298583984375
1.5911865234375
1.5799072265624998
1.5637939453124998
1.5895751953125
1.6048828124999999
1.6081054687499998
1.5557373046874998
1.5138427734375
1.546875
1.587158203125
1.5589599609375
1.5589599609375
1.7120361328125
1.6572509765624999
1.56943359375
1.61455078125
1.5605712890624999
1.5243164062499999
1.4711425781249998
1.4880615234374999
1.493701171875
1.4783935546875
1.493701171875
1.4945068359375
1.5154541015624998
1.5573486328125
1.545263671875
1.533984375
1.5162597656249999
1.554931640625
1.5895751953125
1.5484863281249999
1.5396240234374998
1.3752685546874999
1.448583984375
1.5073974609374998
1.522705078125
1.5621826171875
1.5533203125
1.6072998046875
1.7055908203124999
1.651611328125
1.611328125
1.5782958984375
1.577490234375
1.5895751953125
1.5702392578125
1.5670166015625
1.5525146484374999
1.5492919921875
1.5476806640624998
1.5815185546875
1.5726562499999999
1.53720703125
1.6322753906249998
1.662890625
1.6081054687499998
1.609716796875
1.5734619140625
1.5275390624999998
1.5001464843749999
1.46630859375
1.4671142578124998
1.4622802734375
1.4872558593749998
1.4848388671875
1.522705078125
1.5243164062499999
1.5218994140625
1.5162597656249999
1.5484863281249999
1.5533203125
1.5670166015625
1.5597656249999998
1.4993408203124998
1.3986328124999998
1.4139404296875
1.4953124999999998
1.5235107421874998
1.5380126953125
1.5686279296874999
1.609716796875
1.7015624999999999
1.6451660156249999
1.64677734375
1.5968261718749999
1.5807128906249999
1.611328125
1.6105224609375
1.5347900390625
1.5492919921875
1.5766845703124999
1.5799072265624998
1.5758789062499998
1.5702392578125
1.5678222656249998
1.6218017578125
1.714453125
1.611328125
1.5968261718749999
1.5670166015625
1.525927734375
1.5396240234374998
1.4598632812499999
1.448583984375
1.474365234375
1.4888671875
1.5364013671874999
1.5162597656249999
1.5073974609374998
1.545263671875
1.5428466796875
1.5218994140625
1.542041015625
1.5605712890624999
1.6048828124999999
1.5517089843749998
1.4783935546875
1.4115234374999999
1.4888671875
1.5492919921875
1.506591796875
1.522705078125
1.5799072265624998
1.6935058593749999
1.6588623046875
1.5992431640625
1.5799072265624998
1.5734619140625
1.593603515625
1.5807128906249999
1.6089111328124999
1.585546875
1.5565429687499999
1.5734619140625
1.545263671875
1.5364013671874999
1.5380126953125
1.6483886718749998
1.6798095703125
1.6129394531249999
1.5992431640625
1.542041015625
1.5436523437499998
1.52109375
1.4711425781249998
1.4977294921875
1.5082031249999999
1.4783935546875
1.48564453125
1.5017578125
1.5347900390625
1.5218994140625
1.5202880859374999
1.5944091796875
1.558154296875
1.554931640625
1.56943359375
1.5645996093749999
1.4719482421874999
1.3986328124999998
1.47275390625
1.4832275390624998
1.5509033203125
1.5637939453124998
1.5968261718749999
1.687060546875
1.6556396484375
1.6089111328124999
1.593603515625
1.585546875
1.5541259765625
1.558154296875
1.542041015625
1.5436523437499998
1.5726562499999999
1.5678222656249998
1.5621826171875
1.5766845703124999
1.571044921875
1.5315673828124998
1.6693359374999999
1.6185791015625
1.59521484375
1.6266357421875
1.58232421875
1.55009765625
1.5114257812499998
1.474365234375
1.4638916015624999
1.46630859375
1.5114257812499998
1.480810546875
1.4437499999999999
1.5162597656249999
1.5355957031249998
1.5839355468749998
1.5412353515625
1.533984375
1.5484863281249999
1.585546875
1.46630859375
1.3954101562499999
1.5146484375
1.5114257812499998
1.5009521484375
1.558154296875
1.5605712890624999
1.6943115234375
1.6765869140624998
1.6250244140624999
1.619384765625
1.5766845703124999
1.5831298828125
1.587158203125
1.5267333984375
1.5670166015625
1.574267578125
1.5782958984375
1.577490234375
1.525927734375
1.6089111328124999
1.590380859375
1.6798095703125
1.6564453124999998
1.619384765625
1.609716796875
1.585546875
1.5090087890625
1.4389160156249998
1.5041748046874999
1.5154541015624998
1.4848388671875
1.496923828125
1.4993408203124998
1.5404296874999999
1.5331787109375
1.522705078125
1.5597656249999998
1.529150390625
1.51787109375
1.5484863281249999
1.56298828125
1.5082031249999999
1.3656005859375
1.4703369140625
1.5073974609374998
1.5154541015624998
1.593603515625
1.554931640625
1.66611328125
1.6604736328124998
1.6209960937499999
1.5799072265624998
1.6000488281249998
1.5960205078124998
1.5895751953125
1.5565429687499999
1.5702392578125
1.5557373046874998
1.5726562499999999
1.5444580078124999
1.5243164062499999
1.5323730468749999
1.5186767578125
1.7168701171874998
1.641943359375
1.6129394531249999
1.611328125
1.5766845703124999
1.5662109375
1.4759765624999999
1.4300537109375
1.4767822265625
1.4510009765624998
1.4920898437499999
1.4993408203124998
1.5235107421874998
1.5154541015624998
1.4993408203124998
1.53076171875
1.585546875
1.5428466796875
1.533984375
1.5726562499999999
1.5791015625
1.384130859375
1.4228027343749998
1.4703369140625
1.5041748046874999
1.5331787109375
1.5517089843749998
1.64677734375
1.7200927734375
1.7168701171874998
1.638720703125
1.5718505859374998
1.53076171875
1.5484863281249999
1.5782958984375
1.6185791015625
1.6105224609375
1.5355957031249998
1.571044921875
1.585546875
1.5662109375
1.5533203125
1.662890625
1.65966796875
1.5750732421875
1.561376953125
1.5589599609375
1.5718505859374998
1.477587890625
1.43408203125
1.445361328125
1.51787109375
1.533984375
1.522705078125
1.509814453125
1.5283447265624999
1.474365234375
1.5057861328125
1.4928955078125
1.5202880859374999
1.5879638671874998
1.5476806640624998
1.5476806640624998
1.384130859375
1.4606689453125
1.5001464843749999
1.4993408203124998
1.5154541015624998
1.5444580078124999
1.5911865234375
1.7410400390624998
1.6781982421875
1.611328125
1.5726562499999999
1.5637939453124998
1.625830078125
1.5863525390625
1.5895751953125
1.529150390625
1.5557373046874998
1.5484863281249999
1.5573486328125
1.5678222656249998
1.5235107421874998
1.7120361328125
1.699951171875
1.5919921874999998
1.5750732421875
1.5799072265624998
1.5831298828125
1.509814453125
1.4687255859375
1.4896728515625
1.51787109375
1.52109375
1.4880615234374999
1.4687255859375
1.4783935546875
1.493701171875
1.53076171875
1.5283447265624999
1.5718505859374998
1.5887695312499999
1.603271484375
1.52109375
1.40185546875
1.4687255859375
1.48564453125
1.4840332031249999
1.5436523437499998
1.5380126953125
1.635498046875
1.7096191406249999
1.6105224609375
1.5976318359375
1.5686279296874999
1.6475830078125
1.5976318359375
1.561376953125
1.56298828125
1.546875
1.5766845703124999
1.5412353515625
1.5766845703124999
1.571044921875
1.5887695312499999
1.7080078125
1.6322753906249998
1.585546875
1.59521484375
1.571044921875
1.5009521484375
1.5194824218749998
1.4638916015624999
1.4630859374999998
1.432470703125
1.4687255859375
1.509814453125
1.51787109375
1.5364013671874999
1.5436523437499998
1.5533203125
1.5355957031249998
1.6169677734374999
1.5911865234375
1.5517089843749998
1.5476806640624998
1.3954101562499999
1.4381103515625
1.4606689453125
1.5186767578125
1.5202880859374999
1.5476806640624998
1.5702392578125
1.6951171875
1.6862548828125
1.6306640625
1.5879638671874998
1.606494140625
1.5541259765625
1.5509033203125
1.5839355468749998
1.5557373046874998
1.5589599609375
1.55009765625
1.554931640625
1.5605712890624999
1.561376953125
1.5637939453124998
1.6693359374999999
1.6121337890624998
1.6250244140624999
1.6234130859375
1.5509033203125
1.533984375
1.490478515625
1.4598632812499999
1.4501953125
1.4671142578124998
1.5355957031249998
1.5186767578125
1.554931640625
1.5146484375
1.513037109375
1.5517089843749998
1.5404296874999999
1.5436523437499998
1.5251220703125
1.5364013671874999
1.464697265625
1.4187744140624998
1.5041748046874999
1.490478515625
1.4953124999999998
1.5637939453124998
1.5992431640625
1.6822265625
1.7015624999999999
1.667724609375
1.6411376953124999
1.5984375
1.5791015625
1.577490234375
1.571044921875
1.5637939453124998
1.5299560546875
1.5162597656249999
1.5492919921875
1.5839355468749998
1.5678222656249998
1.5662109375
1.732177734375
1.6371093749999999
1.62744140625
1.590380859375
1.5678222656249998
1.4945068359375
1.4300537109375
1.405078125
1.4888671875
1.4953124999999998
1.5565429687499999
1.5839355468749998
1.5565429687499999
1.533984375
1.50498046875
1.5243164062499999
1.5404296874999999
1.509814453125
1.5597656249999998
1.5484863281249999
1.4945068359375
1.4268310546874998
1.5154541015624998
1.5670166015625
1.5460693359375
1.5347900390625
1.5533203125
1.6612792968749999
1.6773925781249999
1.5927978515624999
1.6024658203125
1.5984375
1.5895751953125
1.55009765625
1.546875
1.5839355468749998
1.6081054687499998
1.5726562499999999
1.6129394531249999
1.6056884765625
1.5750732421875
1.56943359375
1.6951171875
1.606494140625
1.558154296875
1.593603515625
1.5323730468749999
1.4848388671875
1.4171630859375
1.4356933593749999
1.4228027343749998
1.50498046875
1.493701171875
1.5347900390625
1.5670166015625
1.5299560546875
1.5645996093749999
1.5355957031249998
1.5678222656249998
1.5654052734375
1.5517089843749998
1.5436523437499998
1.5186767578125
1.3712402343749999
1.4123291015625
1.4638916015624999
1.509814453125
1.5396240234374998
1.5509033203125
1.683837890625
1.7128417968749998
1.6991455078125
1.5992431640625
1.6137451171875
1.5436523437499998
1.5815185546875
1.56943359375
1.5557373046874998
1.546875
1.5734619140625
1.5863525390625
1.5831298828125
1.5662109375
1.529150390625
1.690283203125
1.6612792968749999
1.6459716796875
1.6209960937499999
1.638720703125
1.574267578125
1.4751708984374998
1.445361328125
1.448583984375
1.4155517578124999
1.4228027343749998
1.4469726562499998
1.4711425781249998
1.529150390625
1.561376953125
1.5090087890625
1.5073974609374998
1.542041015625
1.5412353515625
1.577490234375
1.5766845703124999
1.3599609375
1.4493896484375
1.4461669921875
1.4655029296875
1.5323730468749999
1.5944091796875
1.7015624999999999
1.7208984374999998
1.7329833984374998
1.6604736328124998
1.6306640625
1.5960205078124998
1.5436523437499998
1.538818359375
1.5597656249999998
1.5476806640624998
1.5476806640624998
1.5911865234375
1.5460693359375
1.542041015625
1.5476806640624998
1.7120361328125
1.7233154296875
1.66611328125
1.6403320312499998
1.6056884765625
1.542041015625
1.380908203125
1.3623779296874998
1.4026611328124998
1.4477783203124999
1.4912841796874998
1.5911865234375
1.53720703125
1.5799072265624998
1.5509033203125
1.5299560546875
1.5412353515625
1.546875
1.5436523437499998
1.558154296875
1.5283447265624999
1.3349853515624999
1.3921875
1.3494873046875
1.4091064453125
1.4783935546875
1.5106201171875
1.6943115234375
1.7724609375
1.78857421875
1.69833984375
1.625830078125
1.635498046875
1.5927978515624999
1.62744140625
1.5968261718749999
1.5831298828125
1.5565429687499999
1.5436523437499998
1.5436523437499998
1.603271484375
1.5654052734375
1.703173828125
1.7297607421874999
1.6588623046875
1.6209960937499999
1.587158203125
1.5734619140625
1.4703369140625
1.400244140625
1.3575439453125
1.4147460937499998
1.4461669921875
1.4026611328124998
1.448583984375
1.5194824218749998
1.5686279296874999
1.56943359375
1.545263671875
1.5968261718749999
1.5911865234375
1.522705078125
1.5380126953125
1.2777832031249998
1.2858398437499998
1.3269287109374999
1.3994384765624999
1.46953125
1.56298828125
1.7378173828124999
1.8820312499999998
1.8216064453124998
1.8248291015625
1.740234375
1.65966796875
1.593603515625
1.5782958984375
1.5533203125
1.5114257812499998
1.56943359375
1.641943359375
1.5887695312499999
1.5766845703124999
1.506591796875
1.7370117187499998
1.8489990234375
1.8232177734375
1.7660156249999999
1.7128417968749998
1.6371093749999999
1.4171630859375
1.2181640624999999
1.07958984375
1.252001953125
1.3736572265625
1.4171630859375
1.47275390625
1.5573486328125
1.4123291015625
1.2938964843749998
1.24716796875
1.276171875
1.3083984375
1.1408203125
1.1617675781249999
1.029638671875
1.1061767578125
1.1835205078125
1.255224609375
1.3728515625
1.405078125
1.59521484375
1.980322265625
2.15595703125
2.1986572265624997
2.173681640625
2.1785156249999997
2.2115478515625
2.064111328125
2.0689453125
1.9706542968749998
1.8892822265625
1.869140625
1.8626953124999999
1.751513671875
1.6951171875
1.941650390625
2.16884765625
2.2590820312499997
2.3436767578124997
2.4032958984375
2.3678466796874997
2.2349121093749997
1.9593749999999999
1.82080078125
1.5323730468749999
1.329345703125
1.216552734375
1.0505859375
0.9966064453125
0.9434326171874999
0.862060546875
0.825
0.7718261718749999
0.7677978515624999
0.7315429687499999
0.7661865234374999
0.48662109374999996
0.30051269531249997
0.2553955078125
0.10151367187499999
0.0684814453125
0.09748535156249999
0.24169921875
0.6703125
0.9007324218749999
1.213330078125
1.276171875
1.4469726562499998
1.577490234375
1.7120361328125
1.8336914062499998
1.835302734375
1.844970703125
1.864306640625
1.8280517578125
1.8908935546874999
1.861083984375
1.9706542968749998
2.350927734375
2.59423828125
2.65869140625
2.771484375
2.737646484375
2.7247558593749996
2.5096435546875
2.2429687499999997
1.9835449218749999
1.8522216796875
1.6508056640625
1.538818359375
1.44052734375
1.3559326171875
1.2705322265624999
1.2101074218749999
1.152099609375
1.1384033203125
1.0884521484375
1.0803955078125
1.0175537109375
0.58974609375
0.46164550781249997
0.32065429687499997
0.246533203125
0.2215576171875
0.2715087890625
0.631640625
0.9168457031249999
1.12470703125
1.327734375
1.5347900390625
1.6685302734374998
1.7668212890625
1.8328857421875
1.8739746093749998
1.8441650390625
1.8264404296874999
1.8417480468749998
1.85947265625
1.8908935546874999
2.0117431640625
2.373486328125
2.486279296875
2.5845703125
2.7650390624999996
2.7908203124999997
2.7521484375
2.4935302734375
2.2550537109374997
2.044775390625
1.7176757812499999
1.5654052734375
1.4928955078125
1.397021484375
1.16337890625
1.1690185546875
1.1206787109375
1.0417236328125
1.0385009765625
1.0562255859375
1.026416015625
0.913623046875
0.46245117187499996
0.33837890625
0.1409912109375
0.043505859375
0.0394775390625
0.09345703124999999
0.510791015625
0.8306396484374999
1.042529296875
1.2479736328125
1.3543212890624998
1.513037109375
1.6653076171874999
1.7595703125
1.7587646484375
1.82724609375
1.8715576171875
1.8626953124999999
1.9352050781249999
1.993212890625
1.9916015624999999
2.3517333984374997
2.5193115234374996
2.6522460937499996
2.7819580078125
2.7996826171875
2.7046142578124996
2.4645263671874997
2.2631103515624997
1.9472900390624999
1.8046875
1.6588623046875
1.4598632812499999
1.3382080078124998
1.2777832031249998
1.2076904296875
1.190771484375
1.158544921875
1.1617675781249999
1.1303466796875
1.0997314453125
1.071533203125
0.610693359375
0.5325439453124999
0.43425292968749996
0.246533203125
0.19497070312499998
0.1941650390625
0.543017578125
0.8870361328124999
1.0642822265625
1.2157470703125
1.3333740234375
1.364794921875
1.50498046875
1.6427490234375
1.754736328125
1.8151611328125
1.7853515624999998
1.8224121093749999
1.8119384765625
1.8538330078124998
1.8925048828125
2.3630126953125
2.4766113281249997
2.6385498046875
2.8270751953124997
2.9044189453125
2.9116699218749997
2.7263671874999997
2.502392578125
2.3323974609375
2.0761962890625
1.93681640625
1.803076171875
1.622607421875
1.522705078125
1.456640625
1.4228027343749998
1.3188720703124999
1.2544189453124999
1.1295410156249999
1.1174560546874999
1.0997314453125
0.7073730468749999
0.46728515625
0.33837890625
0.2570068359375
0.20866699218749998
0.159521484375
0.39396972656249996
0.7283203125
0.992578125
1.168212890625
1.2616699218749998
1.409912109375
1.52109375
1.5718505859374998
1.6298583984375
1.683837890625
1.7619873046874999
1.77890625
1.8385253906249999
1.84013671875
1.9142578124999998
2.1704589843749997
2.434716796875
2.63935546875
2.7908203124999997
2.811767578125
2.7811523437499996
2.6530517578125
2.5007812499999997
2.1970458984375
2.00771484375
1.8473876953125
1.6322753906249998
1.53076171875
1.4058837890625
1.32451171875
1.2286376953125
1.2125244140625
1.1061767578125
1.0320556640625
1.0731445312499999
1.0191650390625
0.6678955078125
0.5035400390625
0.4318359375
0.2634521484375
0.2102783203125
0.2280029296875
0.3762451171875
0.8386962890624999
1.0385009765625
1.2399169921875
1.4115234374999999
1.48564453125
1.533984375
1.635498046875
1.7426513671875
1.8538330078124998
1.8586669921874999
1.9392333984374999
1.8820312499999998
1.9956298828124999
2.0302734375
2.2429687499999997
2.5354248046874996
2.6876953125
2.8359375
2.889111328125
2.8721923828125
2.719921875
2.5072265624999996
2.26552734375
1.915869140625
1.7611816406249998
1.6266357421875
1.47275390625
1.3341796874999998
1.2640869140625
1.090869140625
1.0997314453125
1.0803955078125
1.1029541015625
1.0755615234375
0.9643798828125
0.6413085937499999
0.394775390625
0.1973876953125
0.1071533203125
0.069287109375
0.06767578125
0.217529296875
0.54140625
0.7871337890625
1.0594482421875
1.2624755859374999
1.3736572265625
1.493701171875
1.6266357421875
1.7394287109375
1.8578613281249998
1.9110351562499999
1.93681640625
1.9916015624999999
2.0254394531249997
1.9924072265625
1.9424560546874998
2.4790283203124996
2.6272705078125
2.618408203125
2.72958984375
2.7400634765625
2.695751953125
2.5160888671875
2.2760009765625
2.0334960937499997
1.8465820312499999
1.6379150390625
1.5484863281249999
1.4364990234375
1.416357421875
1.1609619140625
1.1899658203124999
1.1464599609375
1.11181640625
1.0852294921874999
1.0948974609375
0.7581298828124999
0.559130859375
0.4632568359375
0.37382812499999996
0.23122558593749998
0.2731201171875
0.265869140625
0.7178466796874999
0.994189453125
1.134375
1.2777832031249998
1.4655029296875
1.4864501953125
1.5992431640625
1.79501953125
1.85947265625
1.9062011718749998
1.941650390625
1.95615234375
1.925537109375
1.8989501953124999
1.972265625
2.39443359375
2.518505859375
2.7271728515625
2.866552734375
2.9277832031249997
2.7739013671875
2.6965576171874996
2.437939453125
2.13984375
1.925537109375
1.7571533203124998
1.611328125
1.4542236328125
1.3946044921874998
1.327734375
1.27939453125
1.222998046875
1.1899658203124999
1.16015625
1.0489746093749999
0.961962890625
0.47856445312499996
0.39396972656249996
0.2280029296875
0.06767578125
0.03544921875
0.09748535156249999
0.3665771484375
0.7291259765625
1.0239990234375
1.1400146484375
1.3059814453124998
1.456640625
1.5557373046874998
1.6894775390624999
1.75634765625
1.8014648437499998
1.8635009765625
1.883642578125
1.9553466796874999
2.0020751953125
1.9303710937499998
2.4113525390625
2.5628173828125
2.6707763671875
2.8858886718749996
2.9745117187499996
2.985791015625
2.7884033203125
2.4911132812499996
2.2671386718749997
1.9779052734375
1.7781005859374999
1.6314697265625
1.5162597656249999
1.3583496093749998
1.2769775390625
1.1690185546875
1.224609375
1.155322265625
1.1295410156249999
1.090869140625
1.0973144531249999
0.5631591796875
0.39396972656249996
0.26748046875
0.12810058593749998
0.1353515625
0.14824218749999998
0.5180419921875
0.8370849609375
1.0481689453125
1.2568359375
1.43408203125
1.4630859374999998
1.6081054687499998
1.73056640625
1.8441650390625
1.8731689453125
1.8312744140625
1.803076171875
1.8796142578125
1.8546386718749999
1.883642578125
2.2663330078125
2.4484130859374997
2.6200195312499996
2.7247558593749996
2.7988769531249997
2.81015625
2.6691650390625
2.4258544921875
2.1809326171875
1.896533203125
1.75634765625
1.65966796875
1.522705078125
1.4236083984374999
1.3510986328124999
1.2101074218749999
1.1770751953125
1.1641845703125
1.1214843749999999
1.1206787109375
1.0675048828125
0.6308349609374999
0.378662109375
0.285205078125
0.16677246093749998
0.111181640625
0.07412109374999999
0.2876220703125
0.6211669921874999
0.878173828125
1.029638671875
1.17626953125
1.3462646484374998
1.4896728515625
1.619384765625
1.687060546875
1.7700439453124999
1.8554443359375
1.9005615234375
1.88525390625
1.9569580078125
1.9142578124999998
2.23330078125
2.4282714843749997
2.5555664062499996
2.6780273437499997
2.7972656249999996
2.81015625
2.6683593749999996
2.3823486328125
2.1946289062499997
1.977099609375
1.7877685546875
1.662890625
1.4961181640624999
1.4928955078125
1.4034667968749999
1.303564453125
1.18271484375
1.173046875
1.1271240234375
1.0787841796875
1.1674072265625
0.7677978515624999
0.5220703125
0.3585205078125
0.23928222656249998
0.11279296875
0.1409912109375
0.3552978515625
0.7436279296874999
1.0207763671874999
1.2141357421874999
1.3365966796875
1.4816162109375
1.554931640625
1.7233154296875
1.7579589843749999
1.8280517578125
1.8659179687499998
1.8949218749999999
1.9198974609375
1.9134521484375
1.8022705078124999
2.083447265625
2.3581787109375
2.5869873046875
2.7835693359375
2.8786376953125
2.979345703125
2.86494140625
2.550732421875
2.2776123046875
2.0069091796875
1.85947265625
1.706396484375
1.5533203125
1.46953125
1.3575439453125
1.2697265624999998
1.1593505859375
1.2109130859375
1.158544921875
1.1416259765624999
1.0892578124999999
0.9224853515625
0.6646728515625
0.5389892578125
0.34079589843749997
0.2135009765625
0.1973876953125
0.2570068359375
0.613916015625
0.91845703125
1.0755615234375
1.2334716796875
1.384130859375
1.5791015625
1.6314697265625
1.7684326171875
1.928759765625
1.9513183593749999
1.972265625
2.0713623046875
2.0431640625
2.07216796875
2.2308837890624997
2.39765625
2.55234375
2.6844726562499996
2.8576904296874996
2.8657470703124996
2.82626953125
2.5595947265624996
2.3291748046875
2.102783203125
1.783740234375
1.6008544921874999
1.5122314453124999
1.3921875
1.3599609375
1.26005859375
1.2834228515625
1.1657958984374999
1.1400146484375
1.1690185546875
1.1794921875
0.926513671875
0.5986083984375
0.3826904296875
0.27634277343749997
0.1877197265625
0.1635498046875
0.1619384765625
0.5220703125
0.8000244140624999
1.0143310546875
1.2963134765625
1.46630859375
1.5428466796875
1.5662109375
1.7088134765624998
1.7072021484375
1.7474853515625
1.7813232421874998
1.7660156249999999
1.8054931640624998
1.799853515625
1.8264404296874999
2.2647216796875
2.4524414062499997
2.5958496093749996
2.715087890625
2.727978515625
2.7529541015624996
2.560400390625
2.338037109375
2.0858642578124997
1.9053955078125
1.74345703125
1.6105224609375
1.4791992187499998
1.40830078125
1.2463623046874999
1.2584472656249999
1.1666015625
1.139208984375
1.1384033203125
1.1077880859375
1.0868408203125
0.6034423828125
0.49467773437499996
0.36496582031249997
0.207861328125
0.1732177734375
0.21511230468749998
0.5841064453125
1.026416015625
1.164990234375
1.27939453125
1.3929931640625
1.456640625
1.509814453125
1.5911865234375
1.6266357421875
1.6862548828125
1.699951171875
1.7781005859374999
1.8473876953125
1.8304687499999999
1.8900878906249998
2.255859375
2.4129638671875
2.4983642578125
2.6482177734374996
2.6272705078125
2.70380859375
2.470166015625
2.2502197265625
2.02705078125
1.7023681640625
1.5662109375
1.4276367187499999
1.4244140625
1.284228515625
1.213330078125
1.1625732421875
1.1158447265625
1.1061767578125
1.07958984375
1.14404296875
1.1931884765625
0.6614501953124999
0.514013671875
0.39719238281249997
0.252978515625
0.1716064453125
0.22075195312499998
0.5244873046874999
0.8870361328124999
1.0731445312499999
1.2818115234374998
1.3978271484375
1.4719482421874999
1.5927978515624999
1.6862548828125
1.7474853515625
1.9223144531249998
1.9263427734374998
1.9827392578124998
2.0254394531249997
1.9746826171874998
1.957763671875
2.280029296875
2.5064208984375
2.6530517578125
2.7650390624999996
2.8633300781249997
2.8166015625
2.6272705078125
2.4943359375
2.1720703125
2.0085205078125
1.8546386718749999
1.6508056640625
1.5380126953125
1.3825195312499998
1.3333740234375
1.2012451171875
1.1480712890625
1.142431640625
1.1545166015625
1.1464599609375
1.1271240234375
0.6493652343749999
0.47775878906249997
0.3029296875
0.182080078125
0.1168212890625
0.10957031249999999
0.26828613281249997
0.7782714843749999
1.039306640625
1.2173583984375
1.36962890625
1.4800048828124999
1.5911865234375
1.6967285156249998
1.783740234375
1.85625
1.8683349609375
1.8828369140624999
1.861083984375
1.8635009765625
1.8312744140625
2.1543457031249997
2.4363281249999997
2.616796875
2.763427734375
2.8190185546874997
2.8415771484374996
2.711865234375
2.570068359375
2.3235351562499997
1.9948242187499998
1.8046875
1.6814208984374999
1.5678222656249998
1.4316650390624999
1.3365966796875
1.2826171874999999
1.2503906249999999
1.148876953125
1.1698242187499999
1.1126220703125
1.1778808593749999
0.8024414062499999
0.5220703125
0.394775390625
0.2376708984375
0.1393798828125
0.1458251953125
0.37785644531249996
0.758935546875
0.91845703125
1.2060791015624999
1.3212890625
1.4493896484375
1.5758789062499998
1.6822265625
1.7096191406249999
1.754736328125
1.783740234375
1.8264404296874999
1.899755859375
1.96904296875
1.9916015624999999
2.1487060546875
2.5168945312499997
2.69736328125
2.7585937499999997
2.848828125
2.8431884765624997
2.6868896484375
2.5265625
2.230078125
2.0415527343749997
1.9005615234375
1.7080078125
1.5686279296874999
1.4735595703125
1.4034667968749999
1.2995361328125
1.2374999999999998
1.1384033203125
1.1698242187499999
1.168212890625
1.1158447265625
0.742822265625
0.4245849609375
0.339990234375
0.1635498046875
0.1039306640625
0.07814941406249999
0.159521484375
0.6856201171874999
0.9369873046874999
1.1432373046875
1.3954101562499999
1.5799072265624998
1.7023681640625
1.7660156249999999
1.7595703125
1.812744140625
1.7740722656249999
1.85625
1.8385253906249999
1.8280517578125
1.869140625
2.0093261718749997
2.2760009765625
2.5330078124999997
2.7811523437499996
2.8109619140624997
2.8431884765624997
2.7239501953125
2.5434814453124996
2.3597900390624997
2.023828125
1.8868652343749999
1.8175781249999998
1.6532226562499999
1.4364990234375
1.3688232421875
1.2447509765625
1.126318359375
1.0828125
1.0352783203125
0.9966064453125
0.9321533203125
0.7178466796874999
0.42861328125
0.314208984375
0.2956787109375
0.22075195312499998
0.13212890624999998
0.1426025390625
0.5776611328125
0.8685058593749999
1.0594482421875
1.2947021484374999
1.3591552734374999
1.55009765625
1.654833984375
1.7047851562499998
1.8538330078124998
1.84013671875
1.812744140625
1.8361083984375
1.85625
1.9529296875
1.989990234375
2.5031982421874996
2.5974609374999997
2.7400634765625
2.9173095703125
2.9898193359375
2.9366455078125
2.7408691406249996
2.4041015624999997
2.2099365234375
2.002880859375
1.7909912109375
1.6475830078125
1.5815185546875
1.4381103515625
1.3752685546874999
1.297119140625
1.216552734375
1.2479736328125
1.2125244140625
1.2101074218749999
0.9514892578124999
0.6195556640625
0.5051513671875
0.3665771484375
0.2570068359375
0.19013671875
0.2102783203125
0.6598388671875
0.9708251953125
1.14404296875
1.3664062499999998
1.48564453125
1.590380859375
1.590380859375
1.6685302734374998
1.6185791015625
1.6491943359374999
1.67900390625
1.6798095703125
1.7740722656249999
1.85302734375
1.84013671875
2.225244140625
2.3759033203124997
2.5241455078125
2.7078369140625
2.6868896484375
2.6119628906249996
2.4911132812499996
2.296142578125
2.05927734375
1.8651123046875
1.7635986328125
1.5968261718749999
1.52109375
1.4397216796874999
1.33740234375
1.2987304687499999
1.3019531249999998
1.2366943359375
1.18271484375
1.1279296875
1.1883544921875
0.6993164062499999
0.5115966796875
0.4116943359375
0.3714111328125
0.346435546875
0.3101806640625
0.5808837890624999
0.91845703125
1.071533203125
1.2109130859375
1.319677734375
1.4719482421874999
1.5492919921875
1.6081054687499998
1.706396484375
1.7845458984375
1.7619873046874999
1.7297607421874999
1.7942138671874999
1.7813232421874998
1.7901855468749999
2.2244384765625
2.2985595703125
2.4943359375
2.6772216796875
2.7183105468749997
2.6933349609375
2.4774169921875
2.3855712890625
2.2405517578125
2.0576660156249997
1.7909912109375
1.7039794921875
1.5734619140625
1.461474609375
1.429248046875
1.3285400390625
1.2592529296875
1.2076904296875
1.071533203125
1.0086914062499999
1.068310546875
0.59619140625
0.472119140625
0.2940673828125
0.18449707031249998
0.1780517578125
0.18691406249999998
0.36093749999999997
0.6533935546874999
0.8846191406249999
1.1939941406249999
1.3309570312499999
1.4880615234374999
1.6153564453125
1.7080078125
1.7772949218749998
1.8602783203125
1.9400390625
1.9634033203124999
1.9996582031249999
1.996435546875
1.9625976562499998
2.215576171875
2.408935546875
2.5853759765624997
2.6683593749999996
2.7021972656249997
2.7465087890624997
2.5837646484374996
2.4524414062499997
2.1301757812499997
1.9343994140624998
1.8111328125
1.6298583984375
1.4389160156249998
1.3317626953125
1.2584472656249999
1.134375
1.0812011718749999
1.0868408203125
1.068310546875
1.0948974609375
1.103759765625
0.6759521484375
0.549462890625
0.359326171875
0.21591796875
0.1699951171875
0.1998046875
0.3279052734375
0.736376953125
0.9949951171875
1.2044677734375
1.3752685546874999
1.4034667968749999
1.5009521484375
1.5863525390625
1.699951171875
1.732177734375
1.748291015625
1.8344970703124999
1.9182861328124998
1.9408447265625
1.9827392578124998
2.286474609375
2.5587890625
2.6216308593749997
2.7513427734375
2.8093505859374996
2.8319091796875
2.6876953125
2.5555664062499996
2.3315917968749997
2.1293701171875
1.8900878906249998
1.740234375
1.6564453124999998
1.4719482421874999
1.3470703124999999
1.29228515625
1.19560546875
1.0723388671875
1.0159423828125
0.9869384765625
0.91845703125
0.6187499999999999
0.44956054687499997
0.36496582031249997
0.29326171875
0.2513671875
0.12890625
0.1699951171875
0.5478515625
0.79921875
1.023193359375
1.213330078125
1.329345703125
1.3913818359374999
1.4783935546875
1.5533203125
1.7764892578125
1.8119384765625
1.815966796875
1.8224121093749999
1.7845458984375
1.7410400390624998
1.88525390625
2.3275634765624997
2.5177001953125
2.7674560546875
2.9068359375
2.908447265625
2.8858886718749996
2.715087890625
2.358984375
2.24619140625
2.044775390625
1.8232177734375
1.5992431640625
1.4630859374999998
1.4187744140624998
1.2882568359375
1.24072265625
1.2028564453125
1.190771484375
1.1819091796874999
1.16337890625
0.8419189453125
0.62841796875
0.451171875
0.31662597656249997
0.159521484375
0.15227050781249998
0.17724609375
0.6243896484375
0.8193603515625
1.039306640625
1.184326171875
1.3857421875
1.5057861328125
1.5412353515625
1.6604736328124998
1.7660156249999999
1.7442626953125
1.714453125
1.8328857421875
1.8498046874999998
1.9182861328124998
2.038330078125
2.3855712890625
2.5354248046874996
2.640966796875
2.7497314453125
2.763427734375
2.7368408203124996
2.578125
2.373486328125
2.118896484375
1.9311767578124999
1.7877685546875
1.6475830078125
1.432470703125
1.3365966796875
1.3172607421875
1.1625732421875
1.08603515625
1.1617675781249999
1.139208984375
1.1214843749999999
1.0191650390625
0.639697265625
0.49790039062499997
0.356103515625
0.2296142578125
0.18852539062499998
0.29970703125
0.6582275390625
0.9345703125
1.1786865234375
1.3599609375
1.4244140625
1.5283447265624999
1.5662109375
1.6685302734374998
1.8280517578125
1.9215087890625
1.9730712890625
2.0439697265625
2.1035888671875
2.0713623046875
2.1180908203124997
2.59423828125
2.6594970703125
2.7964599609375
2.874609375
2.921337890625
2.8633300781249997
2.7223388671874997
2.441162109375
2.1390380859375
1.9674316406249999
1.8006591796875
1.703173828125
1.6040771484374998
1.4574462890625
1.3825195312499998
1.2987304687499999
1.2173583984375
1.1512939453125
1.1416259765624999
1.147265625
1.03125
0.678369140625
0.5003173828124999
0.3762451171875
0.29970703125
0.2296142578125
0.24169921875
0.5454345703125
0.7702148437499999
0.9216796875
1.1126220703125
1.3494873046875
1.413134765625
1.5605712890624999
1.6814208984374999
1.7410400390624998
1.7660156249999999
1.7982421874999999
1.803076171875
1.828857421875
1.877197265625
1.9215087890625
2.292919921875
2.4613037109375
2.6578857421874997
2.776318359375
2.7811523437499996
2.8157958984375
2.6739990234374997
2.473388671875
2.2566650390625
2.0649169921875
1.9037841796875
1.735400390625
1.6056884765625
1.429248046875
1.38896484375
1.3229003906249999
1.252001953125
1.2479736328125
1.1698242187499999
1.1279296875
1.1529052734375
0.678369140625
0.443115234375
0.28439941406249997
0.2505615234375
0.19094238281249998
0.185302734375
0.4632568359375
0.7863281249999999
1.1279296875
1.3083984375
1.4091064453125
1.4751708984374998
1.5428466796875
1.5267333984375
1.6169677734374999
1.7047851562499998
1.716064453125
1.8175781249999998
1.8473876953125
1.8626953124999999
1.928759765625
2.34287109375
2.4258544921875
2.6353271484375
2.7569824218749996
2.7722900390625
2.76181640625
2.65546875
2.4322998046874997
2.2018798828125
2.0407470703125
1.7660156249999999
1.6081054687499998
1.4945068359375
1.3833251953124999
1.3059814453124998
1.1794921875
1.095703125
1.0973144531249999
1.052197265625
0.994189453125
1.055419921875
0.6050537109374999
0.404443359375
0.233642578125
0.09023437499999999
0.10231933593749999
0.0845947265625
0.4197509765625
0.717041015625
0.9966064453125
1.1625732421875
1.3712402343749999
1.4501953125
1.5766845703124999
1.6693359374999999
1.7684326171875
1.8586669921874999
1.9182861328124998
1.8900878906249998
1.88525390625
1.844970703125
1.8022705078124999
2.1019775390624997
2.3267578125
2.582958984375
2.78759765625
2.8609130859375
2.8528564453125
2.7497314453125
2.55234375
2.3291748046875
2.0496093749999997
1.8151611328125
1.740234375
1.571044921875
1.4187744140624998
1.2705322265624999
1.2463623046874999
1.2076904296875
1.1698242187499999
1.1666015625
1.1214843749999999
1.11181640625
0.6977050781249999
0.4954833984375
0.3552978515625
0.19658203124999998
0.0958740234375
0.0797607421875
0.18046874999999998
0.543017578125
0.889453125
1.123095703125
1.284228515625
1.413134765625
1.5283447265624999
1.6250244140624999
1.7176757812499999
1.7829345703125
1.8473876953125
1.8546386718749999
1.869140625
1.91748046875
1.912646484375
2.2034912109375
2.38154296875
2.5064208984375
2.6522460937499996
2.8311035156249997
2.9197265624999997
2.8399658203125
2.5595947265624996
2.344482421875
2.1148681640625
1.9029785156249999
1.7281494140625
1.6266357421875
1.5299560546875
1.3510986328124999
1.2511962890625
1.2028564453125
1.1561279296875
1.04736328125
1.0376953125
1.0562255859375
0.7782714843749999
0.5422119140625
0.41411132812499996
0.24169921875
0.18288574218749998
0.21511230468749998
0.32871093749999997
0.7412109375
0.9708251953125
1.1794921875
1.41796875
1.4864501953125
1.593603515625
1.6459716796875
1.6927001953124998
1.7410400390624998
1.8087158203125
1.815966796875
1.84013671875
1.8151611328125
1.861083984375
1.9215087890625
2.3009765625
2.512060546875
2.6699707031249997
2.7650390624999996
2.8593017578124997
2.7747070312499997
2.631298828125
2.4234375
2.1060058593749997
1.9674316406249999
1.7901855468749999
1.7096191406249999
1.5799072265624998
1.506591796875
1.3946044921874998
1.4115234374999999
1.3817138671875
1.2745605468749999
1.1456542968749999
1.1093994140624999
1.0119140625
0.42539062499999997
0.31259765624999997
0.193359375
0.1232666015625
0.1168212890625
0.153076171875
0.488232421875
0.8193603515625
1.0731445312499999
1.2350830078125
1.3752685546874999
1.4977294921875
1.6322753906249998
1.7152587890625
1.7370117187499998
1.767626953125
1.8014648437499998
1.8554443359375
1.8981445312499998
1.925537109375
1.9384277343749998
2.33642578125
2.4500244140625
2.6441894531249996
2.8166015625
2.792431640625
2.785986328125
2.4693603515625
2.2623046875
2.101171875
1.883642578125
1.7990478515625
1.7394287109375
1.5396240234374998
1.45341796875
1.4147460937499998
1.329345703125
1.287451171875
1.2906738281249999
1.2544189453124999
1.2665039062499999
1.197216796875
0.720263671875
0.5244873046874999
0.36174316406249996
0.3150146484375
0.24169921875
0.34079589843749997
0.57041015625
0.9015380859375
1.2101074218749999
1.3704345703124998
1.4469726562499998
1.6266357421875
1.7893798828124998
1.977099609375
2.1374267578125
2.32998046875
2.4911132812499996
2.56201171875
2.7013916015625
2.7908203124999997
2.850439453125
3.0462158203125
3.043798828125
3.04541015625
3.04541015625
3.0462158203125
3.0446044921874997
3.04541015625
3.0478271484375
3.0446044921874997
3.0462158203125
3.0429931640624996
3.0421875
3.0083496093749997
2.977734375
3.0446044921874997
3.0147949218749996
3.0405761718749997
3.0478271484375
3.0446044921874997
3.0470214843749996
3.0446044921874997
3.0429931640624996
3.04541015625
3.0470214843749996
3.043798828125
3.0462158203125
3.0429931640624996
3.0446044921874997
3.04541015625
3.0446044921874997
3.0446044921874997
3.04541015625
3.0429931640624996
3.04541015625
3.04541015625
3.0462158203125
3.0486328124999997
3.04541015625
2.96162109375
2.9422851562499996
2.86494140625
2.8061279296875
3.0389648437499996
3.0462158203125
3.0429931640624996
3.0462158203125
3.0470214843749996
3.0486328124999997
2.9583984374999996
2.8141845703125
2.6127685546875
2.3630126953125
2.19140625
2.0898925781249997
2.0133544921874997
1.8522216796875
1.7781005859374999
1.6443603515624998
1.4308593749999998
1.3752685546874999
1.3921875
1.3470703124999999
1.3656005859375
1.0006347656249999
0.8338623046875
0.6767578125
0.6034423828125
0.6227783203124999
0.5929687499999999
0.8991210937499999
1.1698242187499999
1.4671142578124998
1.6636962890625
1.7128417968749998
1.7055908203124999
1.7764892578125
1.706396484375
1.6540283203125
1.5404296874999999
1.5017578125
1.4332763671875
1.3865478515624998
1.3712402343749999
1.3083984375
1.7297607421874999
1.8973388671875
2.03994140625
2.1503173828124997
2.357373046875
2.3565673828125
2.209130859375
1.8312744140625
1.493701171875
1.1947998046875
0.894287109375
0.69609375
0.4874267578125
0.35690917968749997
0.3069580078125
0.36093749999999997
0.410888671875
0.4519775390625
0.451171875
0.55107421875
0.6388916015624999
0.29245605468749997
0.185302734375
0.165966796875
0.08056640625
0.2118896484375
0.29245605468749997
0.6211669921874999
1.0650878906249999
1.37607421875
1.5831298828125
1.6604736328124998
1.662890625
1.658056640625
1.6645019531249998
1.5927978515624999
1.5565429687499999
1.4244140625
1.3631835937499999
1.22783203125
1.206884765625
1.1674072265625
1.384130859375
1.5654052734375
1.6266357421875
1.6314697265625
1.5847412109374999
1.48564453125
1.24716796875
1.0481689453125
0.8612548828125
0.7299316406249999
0.7242919921875
0.7557128906249999
0.6952880859374999
0.7516845703124999
0.8612548828125
0.9651855468749999
1.0207763671874999
1.0820068359375
1.0828125
1.1279296875
1.1126220703125
0.9708251953125
0.8564208984374999
0.8572265625
0.889453125
0.9160400390625
0.9966064453125
1.1778808593749999
1.5734619140625
1.799853515625
1.85625
1.9134521484375
1.8780029296874998
1.8659179687499998
1.8336914062499998
1.7265380859375
1.58232421875
1.5702392578125
1.5396240234374998
1.458251953125
1.3728515625
1.42119140625
1.6403320312499998
1.73056640625
1.7217041015624999
1.7781005859374999
1.7466796875
1.66611328125
1.5235107421874998
1.2616699218749998
1.1190673828125
0.9772705078124999
1.1110107421875
1.0900634765625
1.119873046875
1.252001953125
1.2745605468749999
1.3204833984375
1.384130859375
1.4010498046875
1.4171630859375
1.5428466796875
1.5122314453124999
1.2536132812499998
1.116650390625
1.1778808593749999
1.1561279296875
1.21171875
1.2858398437499998
1.332568359375
1.7635986328125
1.8626953124999999
1.8635009765625
1.8465820312499999
1.7861572265624999
1.735400390625
1.6765869140624998
1.67578125
1.6290527343749999
1.5509033203125
1.5114257812499998
1.4703369140625
1.4864501953125
1.5202880859374999
1.5202880859374999
1.7732666015624998
1.7893798828124998
1.7611816406249998
1.7813232421874998
1.7096191406249999
1.5944091796875
1.3712402343749999
1.095703125
1.0965087890625
1.103759765625
1.184326171875
1.2890625
1.3462646484374998
1.4630859374999998
1.4300537109375
1.496923828125
1.5243164062499999
1.5404296874999999
1.4896728515625
1.53720703125
1.5347900390625
1.1375976562499999
1.2310546875
1.2423339843749999
1.3607666015625
1.4558349609374999
1.5202880859374999
1.7265380859375
1.9875732421874999
1.9658203125
1.8788085937499999
1.8014648437499998
1.7652099609374998
1.7531249999999998
1.611328125
1.5251220703125
1.4816162109375
1.46953125
1.4945068359375
1.561376953125
1.5025634765625
1.5404296874999999
1.85625
1.8707519531249999
1.84013671875
1.7611816406249998
1.5919921874999998
1.5799072265624998
1.3921875
1.3092041015625
1.21494140625
1.2012451171875
1.2906738281249999
1.2938964843749998
1.4437499999999999
1.456640625
1.4671142578124998
1.506591796875
1.5267333984375
1.52109375
1.522705078125
1.5968261718749999
1.5670166015625
1.1964111328125
1.187548828125
1.2044677734375
1.3027587890624999
1.35673828125
1.5251220703125
1.7692382812499998
2.0004638671875
1.989990234375
1.9537353515625
1.8731689453125
1.7813232421874998
1.7217041015624999
1.683837890625
1.603271484375
1.4759765624999999
1.4735595703125
1.464697265625
1.480810546875
1.52109375
1.542041015625
1.8385253906249999
1.8167724609375
1.780517578125
1.7015624999999999
1.6620849609375
1.59521484375
1.4300537109375
1.20849609375
1.2536132812499998
1.2697265624999998
1.287451171875
1.33740234375
1.4719482421874999
1.513037109375
1.4510009765624998
1.5001464843749999
1.55009765625
1.6395263671875
1.6218017578125
1.6048828124999999
1.5678222656249998
1.2536132812499998
1.3011474609375
1.3261230468749998
1.4091064453125
1.4912841796874998
1.522705078125
1.7684326171875
1.931982421875
1.869140625
1.780517578125
1.735400390625
1.6975341796874999
1.6508056640625
1.5984375
1.5831298828125
1.5839355468749998
1.587158203125
1.545263671875
1.5114257812499998
1.4977294921875
1.5323730468749999
1.8119384765625
1.864306640625
1.7595703125
1.7458740234374999
1.71123046875
1.606494140625
1.4091064453125
1.3140380859374998
1.2262207031249999
1.27939453125
1.332568359375
1.409912109375
1.4284423828125
1.4542236328125
1.5090087890625
1.554931640625
1.5782958984375
1.5331787109375
1.442138671875
1.4413330078125
1.5025634765625
1.224609375
1.2447509765625
1.3180664062499998
1.3784912109374998
1.4203857421875
1.5122314453124999
1.67578125
1.9625976562499998
1.9118408203125
1.9247314453125
1.8296630859374998
1.6951171875
1.651611328125
1.546875
1.5911865234375
1.5597656249999998
1.5557373046874998
1.5299560546875
1.6040771484374998
1.5678222656249998
1.6234130859375
1.8087158203125
1.77568359375
1.7289550781249998
1.6483886718749998
1.6169677734374999
1.5758789062499998
1.3865478515624998
1.3092041015625
1.3365966796875
1.3188720703124999
1.3494873046875
1.4228027343749998
1.4671142578124998
1.4671142578124998
1.5017578125
1.5766845703124999
1.5831298828125
1.513037109375
1.55009765625
1.5944091796875
1.5517089843749998
1.3140380859374998
1.2930908203125
1.3672119140624999
1.335791015625
1.3946044921874998
1.4816162109375
1.651611328125
1.90458984375
1.8989501953124999
1.7893798828124998
1.7499023437499999
1.6862548828125
1.6201904296874998
1.6089111328124999
1.5484863281249999
1.5436523437499998
1.5863525390625
1.5807128906249999
1.577490234375
1.5807128906249999
1.5847412109374999
1.63388671875
1.7499023437499999
1.7370117187499998
1.7611816406249998
1.6443603515624998
1.5766845703124999
1.4872558593749998
1.3390136718749999
1.27939453125
1.2850341796875
1.2866455078124999
1.3623779296874998
1.368017578125
1.5041748046874999
1.5114257812499998
1.4840332031249999
1.5678222656249998
1.529150390625
1.571044921875
1.5791015625
1.6048828124999999
1.2544189453124999
1.232666015625
1.3067871093749999
1.4066894531249998
1.5114257812499998
1.5380126953125
1.5992431640625
1.9110351562499999
1.9150634765624999
1.8844482421875
1.751513671875
1.6935058593749999
1.641943359375
1.5670166015625
1.5404296874999999
1.6121337890624998
1.5573486328125
1.5009521484375
1.482421875
1.5057861328125
1.56943359375
1.69833984375
1.8409423828125
1.786962890625
1.7257324218749999
1.6000488281249998
1.5565429687499999
1.5041748046874999
1.40830078125
1.2955078125
1.2938964843749998
1.2858398437499998
1.3237060546875
1.432470703125
1.4832275390624998
1.46953125
1.47275390625
1.5645996093749999
1.574267578125
1.6089111328124999
1.5605712890624999
1.6161621093749998
1.3801025390625
1.2576416015624998
1.3172607421875
1.368017578125
1.40185546875
1.4477783203124999
1.525927734375
1.8417480468749998
1.896533203125
1.8989501953124999
1.7877685546875
1.6935058593749999
1.6185791015625
1.5863525390625
1.5436523437499998
1.5815185546875
1.5750732421875
1.5799072265624998
1.5887695312499999
1.5621826171875
1.5686279296874999
1.7297607421874999
1.8618896484374998
1.783740234375
1.7289550781249998
1.65966796875
1.622607421875
1.558154296875
1.3712402343749999
1.300341796875
1.29228515625
1.3382080078124998
1.400244140625
1.46953125
1.416357421875
1.4445556640625
1.52109375
1.5364013671874999
1.4953124999999998
1.5033691406249998
1.5090087890625
1.5428466796875
1.4848388671875
1.255224609375
1.332568359375
1.3962158203125
1.4574462890625
1.496923828125
1.651611328125
1.8755859375
1.96904296875
1.8981445312499998
1.7603759765625
1.662890625
1.6322753906249998
1.4928955078125
1.5025634765625
1.5146484375
1.53076171875
1.5057861328125
1.5347900390625
1.5073974609374998
1.5734619140625
1.641943359375
1.8731689453125
1.7748779296875
1.7257324218749999
1.67900390625
1.571044921875
1.496923828125
1.2745605468749999
1.2689208984375
1.2818115234374998
1.2850341796875
1.4268310546874998
1.4759765624999999
1.4928955078125
1.5396240234374998
1.587158203125
1.5645996093749999
1.641943359375
1.5960205078124998
1.6121337890624998
1.538818359375
1.577490234375
1.3067871093749999
1.3333740234375
1.335791015625
1.4373046875
1.5283447265624999
1.5863525390625
1.896533203125
1.883642578125
1.8143554687499999
1.751513671875
1.64677734375
1.6371093749999999
1.6056884765625
1.5944091796875
1.606494140625
1.5484863281249999
1.4993408203124998
1.474365234375
1.5299560546875
1.5645996093749999
1.5573486328125
1.8256347656249998
1.815966796875
1.69189453125
1.658056640625
1.6532226562499999
1.5323730468749999
1.4219970703125
1.3478759765625
1.332568359375
1.34384765625
1.3929931640625
1.4356933593749999
1.4783935546875
1.5275390624999998
1.545263671875
1.5364013671874999
1.5364013671874999
1.5654052734375
1.5637939453124998
1.5323730468749999
1.4872558593749998
1.2455566406249998
1.3768798828125
1.4413330078125
1.448583984375
1.4993408203124998
1.5605712890624999
1.6967285156249998
1.8264404296874999
1.796630859375
1.716064453125
1.69189453125
1.6081054687499998
1.5476806640624998
1.5436523437499998
1.5186767578125
1.5750732421875
1.6072998046875
1.6314697265625
1.6322753906249998
1.5968261718749999
1.554931640625
1.7499023437499999
1.748291015625
1.6814208984374999
1.6814208984374999
1.58232421875
1.5154541015624998
1.4147460937499998
1.3712402343749999
1.2995361328125
1.297119140625
1.3857421875
1.4284423828125
1.5033691406249998
1.5654052734375
1.5766845703124999
1.5275390624999998
1.4816162109375
1.5533203125
1.606494140625
1.56298828125
1.53076171875
1.2995361328125
1.3285400390625
1.37607421875
1.3962158203125
1.51787109375
1.5831298828125
1.7716552734375
1.8296630859374998
1.8087158203125
1.7362060546875
1.6693359374999999
1.622607421875
1.577490234375
1.5807128906249999
1.5331787109375
1.5146484375
1.587158203125
1.5162597656249999
1.5670166015625
1.5017578125
1.5009521484375
1.6620849609375
1.767626953125
1.7442626953125
1.7208984374999998
1.6991455078125
1.5887695312499999
1.4848388671875
1.3156494140625
1.2938964843749998
1.3623779296874998
1.4308593749999998
1.4606689453125
1.4445556640625
1.4711425781249998
1.5138427734375
1.5686279296874999
1.5492919921875
1.538818359375
1.5791015625
1.5791015625
1.5944091796875
1.3317626953125
1.2995361328125
1.3607666015625
1.3768798828125
1.4284423828125
1.47275390625
1.6081054687499998
1.8554443359375
1.8216064453124998
1.8119384765625
1.7458740234374999
1.6564453124999998
1.6089111328124999
1.5839355468749998
1.5090087890625
1.5283447265624999
1.5533203125
1.6153564453125
1.5347900390625
1.5597656249999998
1.56943359375
1.783740234375
1.77568359375
1.7265380859375
1.6701416015625
1.6330810546874999
1.6000488281249998
1.4767822265625
1.36962890625
1.276171875
1.2753662109375
1.3180664062499998
1.456640625
1.4816162109375
1.4816162109375
1.490478515625
1.5484863281249999
1.542041015625
1.509814453125
1.48564453125
1.5605712890624999
1.5347900390625
1.368017578125
1.327734375
1.4364990234375
1.400244140625
1.4501953125
1.5243164062499999
1.6282470703124998
1.8788085937499999
1.8224121093749999
1.7458740234374999
1.7104248046875
1.6717529296875
1.6201904296874998
1.5621826171875
1.5492919921875
1.561376953125
1.5766845703124999
1.5436523437499998
1.5412353515625
1.5323730468749999
1.5017578125
1.5380126953125
1.7926025390625
1.719287109375
1.74345703125
1.6024658203125
1.603271484375
1.5090087890625
1.3897705078125
1.2834228515625
1.3180664062499998
1.3639892578125
1.4630859374999998
1.5396240234374998
1.5726562499999999
1.5541259765625
1.587158203125
1.5662109375
1.4896728515625
1.5170654296875
1.522705078125
1.5492919921875
1.3607666015625
1.3253173828125
1.4010498046875
1.4590576171874998
1.5162597656249999
1.6000488281249998
1.670947265625
1.786962890625
1.78857421875
1.738623046875
1.6540283203125
1.5976318359375
1.5807128906249999
1.5976318359375
1.571044921875
1.5686279296874999
1.571044921875
1.554931640625
1.533984375
1.5138427734375
1.5637939453124998
1.6000488281249998
1.8071044921875
1.7982421874999999
1.6927001953124998
1.587158203125
1.5517089843749998
1.5283447265624999
1.432470703125
1.3664062499999998
1.36962890625
1.4284423828125
1.482421875
1.4872558593749998
1.5194824218749998
1.5082031249999999
1.546875
1.5734619140625
1.5436523437499998
1.56298828125
1.5605712890624999
1.5565429687499999
1.4719482421874999
1.2818115234374998
1.33740234375
1.3639892578125
1.4993408203124998
1.545263671875
1.6620849609375
1.8667236328124999
1.835302734375
1.7571533203124998
1.6773925781249999
1.6653076171874999
1.6266357421875
1.585546875
1.558154296875
1.5726562499999999
1.49853515625
1.4993408203124998
1.4945068359375
1.496923828125
1.5114257812499998
1.5476806640624998
1.8062988281249999
1.7829345703125
1.767626953125
1.619384765625
1.5662109375
1.5114257812499998
1.3768798828125
1.3510986328124999
1.3059814453124998
1.3801025390625
1.4308593749999998
1.542041015625
1.4526123046875
1.4767822265625
1.5509033203125
1.4735595703125
1.5331787109375
1.56943359375
1.622607421875
1.6169677734374999
1.5517089843749998
1.3108154296874999
1.3728515625
1.426025390625
1.4735595703125
1.5984375
1.577490234375
1.73056640625
1.8006591796875
1.7893798828124998
1.7208984374999998
1.690283203125
1.625830078125
1.593603515625
1.6024658203125
1.5984375
1.538818359375
1.5299560546875
1.5355957031249998
1.5364013671874999
1.538818359375
1.52109375
1.7297607421874999
1.7184814453125
1.732177734375
1.662890625
1.5275390624999998
1.5186767578125
1.4244140625
1.3978271484375
1.329345703125
1.43408203125
1.4872558593749998
1.4888671875
1.4606689453125
1.4526123046875
1.4896728515625
1.5428466796875
1.5766845703124999
1.53076171875
1.525927734375
1.5436523437499998
1.5041748046874999
1.3333740234375
1.384130859375
1.461474609375
1.554931640625
1.52109375
1.6040771484374998
1.8216064453124998
1.8119384765625
1.754736328125
1.7039794921875
1.5960205078124998
1.5605712890624999
1.5267333984375
1.5758789062499998
1.5645996093749999
1.5799072265624998
1.561376953125
1.5911865234375
1.5734619140625
1.561376953125
1.5702392578125
1.7772949218749998
1.7184814453125
1.6773925781249999
1.6854492187499999
1.6749755859375
1.5589599609375
1.3720458984375
1.2640869140625
1.2906738281249999
1.3704345703124998
1.4074951171874999
1.4864501953125
1.5380126953125
1.558154296875
1.56943359375
1.5380126953125
1.5355957031249998
1.49853515625
1.5605712890624999
1.5436523437499998
1.5984375
1.313232421875
1.384130859375
1.42119140625
1.4526123046875
1.5766845703124999
1.5815185546875
1.670947265625
1.7096191406249999
1.7176757812499999
1.738623046875
1.7128417968749998
1.571044921875
1.5718505859374998
1.6322753906249998
1.587158203125
1.56298828125
1.5670166015625
1.5355957031249998
1.5114257812499998
1.5154541015624998
1.5412353515625
1.8328857421875
1.812744140625
1.7772949218749998
1.6532226562499999
1.5460693359375
1.5331787109375
1.397021484375
1.3285400390625
1.3108154296874999
1.3543212890624998
1.4381103515625
1.4413330078125
1.5162597656249999
1.52109375
1.47275390625
1.5364013671874999
1.5492919921875
1.5839355468749998
1.6024658203125
1.6282470703124998
1.5654052734375
1.313232421875
1.300341796875
1.3591552734374999
1.3921875
1.4711425781249998
1.5484863281249999
1.7088134765624998
1.8570556640625
1.8232177734375
1.7942138671874999
1.6612792968749999
1.577490234375
1.561376953125
1.5476806640624998
1.5565429687499999
1.5839355468749998
1.5605712890624999
1.4759765624999999
1.5637939453124998
1.53720703125
1.5525146484374999
1.732177734375
1.7579589843749999
1.7015624999999999
1.67900390625
1.5750732421875
1.5734619140625
1.4461669921875
1.3712402343749999
1.3253173828125
1.3140380859374998
1.3929931640625
1.4655029296875
1.5243164062499999
1.5138427734375
1.5146484375
1.5251220703125
1.5645996093749999
1.5758789062499998
1.529150390625
1.56298828125
1.5670166015625
1.3672119140624999
1.380908203125
1.4203857421875
1.4203857421875
1.5146484375
1.5621826171875
1.6411376953124999
1.7764892578125
1.7539306640624999
1.690283203125
1.6491943359374999
1.6371093749999999
1.6161621093749998
1.5734619140625
1.545263671875
1.5025634765625
1.4550292968749998
1.5960205078124998
1.587158203125
1.5541259765625
1.5847412109374999
1.7168701171874998
1.7660156249999999
1.66611328125
1.65
1.5887695312499999
1.5895751953125
1.50498046875
1.42119140625
1.313232421875
1.3317626953125
1.4501953125
1.482421875
1.47275390625
1.442138671875
1.480810546875
1.509814453125
1.56943359375
1.5766845703124999
1.6040771484374998
1.5412353515625
1.5315673828124998
1.3873535156249999
1.2834228515625
1.405078125
1.477587890625
1.490478515625
1.59521484375
1.6290527343749999
1.764404296875
1.7490966796874998
1.7450683593749998
1.6854492187499999
1.635498046875
1.609716796875
1.6137451171875
1.5879638671874998
1.5444580078124999
1.513037109375
1.5919921874999998
1.6330810546874999
1.6040771484374998
1.53076171875
1.6894775390624999
1.740234375
1.6935058593749999
1.6459716796875
1.6483886718749998
1.577490234375
1.5090087890625
1.348681640625
1.3229003906249999
1.3317626953125
1.405078125
1.5057861328125
1.5517089843749998
1.5460693359375
1.546875
1.53720703125
1.461474609375
1.4977294921875
1.5090087890625
1.53720703125
1.5476806640624998
1.3913818359374999
1.3551269531249999
1.4413330078125
1.4679199218749999
1.5243164062499999
1.5146484375
1.6612792968749999
1.880419921875
1.8546386718749999
1.8119384765625
1.651611328125
1.5895751953125
1.5678222656249998
1.6040771484374998
1.5968261718749999
1.509814453125
1.5460693359375
1.5275390624999998
1.5186767578125
1.5025634765625
1.490478515625
1.542041015625
1.8103271484374999
1.7072021484375
1.6806152343749998
1.6540283203125
1.5863525390625
1.5621826171875
1.3962158203125
1.3631835937499999
1.3672119140624999
1.340625
1.4880615234374999
1.5637939453124998
1.5106201171875
1.5492919921875
1.4945068359375
1.5082031249999999
1.5315673828124998
1.546875
1.5404296874999999
1.5275390624999998
1.5476806640624998
1.3043701171875
1.3269287109374999
1.37607421875
1.4864501953125
1.577490234375
1.6153564453125
1.8554443359375
1.8473876953125
1.7418457031249999
1.73056640625
1.5863525390625
1.587158203125
1.5992431640625
1.554931640625
1.5509033203125
1.603271484375
1.5557373046874998
1.5621826171875
1.5331787109375
1.53076171875
1.5267333984375
1.74345703125
1.7217041015624999
1.6701416015625
1.662890625
1.6040771484374998
1.50498046875
1.3623779296874998
1.297119140625
1.3229003906249999
1.3462646484374998
1.3768798828125
1.4219970703125
1.5670166015625
1.5533203125
1.574267578125
1.5202880859374999
1.5686279296874999
1.587158203125
1.558154296875
1.46953125
1.5517089843749998
1.3261230468749998
1.4203857421875
