1.73056640625
1.6451660156249999
1.6371093749999999
1.6169677734374999
1.3986328124999998
1.4840332031249999
1.5041748046874999
1.5170654296875
1.529150390625
1.7555419921875
3.0470214843749996
2.59423828125
2.34931640625
2.151123046875
1.5589599609375
1.0239990234375
0.0394775390625
0.04189453125
0.038671874999999994
0.39396972656249996
0.6896484374999999
0.8016357421875
1.0707275390625
1.6322753906249998
1.56298828125
1.6636962890625
1.843359375
1.8715576171875
1.803076171875
1.509814453125
1.6773925781249999
0.042700195312499994
0.53818359375
0.8773681640625
1.1053710937499999
1.5492919921875
1.8151611328125
3.0446044921874997
3.0470214843749996
2.7666503906249997
2.4041015624999997
2.225244140625
1.7829345703125
1.7329833984374998
1.6524169921874998
1.6371093749999999
1.4977294921875
1.5146484375
1.522705078125
1.4848388671875
1.493701171875
1.4783935546875
3.0462158203125
3.0470214843749996
2.2856689453125
2.2486083984375
1.8860595703124998
1.4622802734375
0.18046874999999998
0.04189453125
0.037060546874999996
0.3069580078125
0.6670898437499999
0.8910644531249999
1.0086914062499999
1.5154541015624998
1.5347900390625
1.7531249999999998
1.7635986328125
1.7893798828124998
1.75634765625
1.8087158203125
1.667724609375
0.038671874999999994
0.040283203125
0.90234375
1.0239990234375
1.4268310546874998
1.9142578124999998
3.0494384765625
3.0470214843749996
2.7779296875
2.321923828125
2.0197998046875
1.7958251953125
1.7442626953125
1.538818359375
1.7200927734375
1.56943359375
1.5315673828124998
1.5194824218749998
1.506591796875
1.5895751953125
1.46630859375
3.0470214843749996
3.0494384765625
2.47177734375
2.370263671875
2.0987548828125
1.4542236328125
0.167578125
0.0394775390625
0.0459228515625
0.17885742187499998
0.5091796875
0.9176513671875
1.1690185546875
1.3873535156249999
1.4671142578124998
1.6048828124999999
1.72412109375
1.80791015625
1.56943359375
1.7499023437499999
1.638720703125
0.0394775390625
0.0394775390625
0.781494140625
1.0530029296874999
1.26328125
1.8828369140624999
2.6522460937499996
3.0478271484375
3.0333251953125
2.550732421875
2.0826416015625
1.8006591796875
1.7200927734375
1.6000488281249998
1.590380859375
1.6604736328124998
1.496923828125
1.5146484375
1.56298828125
1.5460693359375
1.5122314453124999
2.5837646484374996
3.0486328124999997
2.624853515625
2.350927734375
2.0794189453125
1.5807128906249999
0.968408203125
0.0394775390625
0.04189453125
0.041088867187499996
0.5067626953125
0.8024414062499999
1.0119140625
1.3100097656249998
1.5114257812499998
1.7660156249999999
1.7217041015624999
1.7587646484375
1.7555419921875
1.5895751953125
1.7104248046875
0.55107421875
0.04189453125
0.6243896484375
0.9635742187499999
1.21494140625
1.844970703125
2.4097412109375
3.0470214843749996
3.0486328124999997
2.7932373046874996
2.2695556640625
1.9956298828124999
1.76279296875
1.6886718749999998
1.658056640625
1.5702392578125
1.4477783203124999
1.6234130859375
1.4928955078125
1.464697265625
1.4759765624999999
1.5331787109375
3.0478271484375
2.7666503906249997
2.4065185546875
2.1180908203124997
1.6185791015625
1.1698242187499999
0.04189453125
0.040283203125
0.040283203125
0.37785644531249996
0.5663818359375
0.968408203125
1.045751953125
1.3269287109374999
1.6346923828125
1.662890625
1.7418457031249999
1.770849609375
1.7732666015624998
1.7297607421874999
1.6693359374999999
0.0394775390625
0.559130859375
0.9579345703125
1.284228515625
1.6201904296874998
1.7442626953125
3.0446044921874997
3.0429931640624996
2.811767578125
2.4169921875
2.1052001953125
1.77890625
1.7072021484375
1.6121337890624998
1.6443603515624998
1.4993408203124998
1.6491943359374999
1.4993408203124998
1.48564453125
1.4735595703125
1.4622802734375
3.0486328124999997
3.0486328124999997
2.4564697265624997
2.4322998046874997
1.8586669921874999
1.1931884765625
0.041088867187499996
0.041088867187499996
0.041088867187499996
0.3117919921875
0.6711181640624999
0.9611572265624999
1.1077880859375
1.348681640625
1.5025634765625
1.6685302734374998
1.7821289062499999
1.8087158203125
1.8151611328125
1.7378173828124999
1.6371093749999999
0.0443115234375
0.31743164062499996
0.837890625
0.9595458984374999
1.474365234375
1.8175781249999998
3.0486328124999997
3.0470214843749996
2.8552734374999997
2.44921875
2.08828125
1.7901855468749999
1.7233154296875
1.40185546875
1.60166015625
1.47275390625
1.558154296875
1.5299560546875
1.7055908203124999
1.5170654296875
1.4816162109375
3.0470214843749996
3.0486328124999997
2.51044921875
2.1648193359375
1.8465820312499999
1.4219970703125
0.67998046875
0.0459228515625
0.041088867187499996
0.167578125
0.343212890625
1.1698242187499999
1.0803955078125
1.332568359375
1.52109375
1.5887695312499999
1.740234375
1.593603515625
1.815966796875
1.7829345703125
1.6991455078125
0.04189453125
0.0378662109375
0.7412109375
0.9821044921875
1.4074951171874999
1.8812255859375
3.0486328124999997
3.0478271484375
3.0462158203125
2.591015625
2.093115234375
1.803076171875
1.6725585937499998
1.5428466796875
1.64677734375
1.5791015625
1.5251220703125
1.490478515625
1.4993408203124998
1.5251220703125
1.5090087890625
2.1358154296875
3.0462158203125
2.47822265625
2.2792236328124997
2.03671875
1.5364013671874999
0.5841064453125
0.0394775390625
0.040283203125
0.15468749999999998
0.41330566406249997
0.5478515625
1.06669921875
1.345458984375
1.5162597656249999
1.7474853515625
1.716064453125
1.7184814453125
1.58232421875
1.7394287109375
1.7072021484375
0.9990234375
0.042700195312499994
0.760546875
0.9547119140625
1.26328125
1.8377197265624998
2.34609375
3.0478271484375
3.043798828125
2.6707763671875
2.2751953124999997
1.6991455078125
1.7635986328125
1.6822265625
1.654833984375
1.5001464843749999
1.6000488281249998
1.5090087890625
1.3873535156249999
1.4469726562499998
1.4671142578124998
1.6403320312499998
3.0429931640624996
2.8472167968749997
2.4758056640625
2.1035888671875
1.52109375
1.0997314453125
0.04189453125
0.041088867187499996
0.040283203125
0.39396972656249996
0.7903564453124999
1.02802734375
1.126318359375
1.4526123046875
1.561376953125
1.542041015625
1.7853515624999998
1.8111328125
1.76279296875
1.799853515625
1.5645996093749999
0.0394775390625
0.4439208984375
0.88623046875
1.2205810546875
1.6290527343749999
2.2115478515625
3.0478271484375
3.0478271484375
2.8472167968749997
2.29775390625
1.9956298828124999
1.8022705078124999
1.7692382812499998
1.6564453124999998
1.635498046875
1.5944091796875
1.480810546875
1.5033691406249998
1.335791015625
1.4880615234374999
1.545263671875
3.0470214843749996
2.7666503906249997
2.4983642578125
2.4443847656249997
1.65
1.284228515625
0.040283203125
0.040283203125
0.041088867187499996
0.28037109374999997
0.6413085937499999
0.958740234375
1.1456542968749999
1.4558349609374999
1.5476806640624998
1.4115234374999999
1.738623046875
1.7772949218749998
1.7942138671874999
1.7732666015624998
1.7047851562499998
0.045117187499999996
0.2505615234375
0.8354736328125
0.9232910156249999
1.5162597656249999
1.9247314453125
3.0478271484375
3.0462158203125
2.9511474609375
2.5491210937499997
2.0737792968749997
1.80791015625
1.8441650390625
1.6403320312499998
1.7732666015624998
1.5726562499999999
1.464697265625
1.3921875
1.4187744140624998
1.442138671875
1.590380859375
3.05185546875
3.0486328124999997
2.4822509765625
2.2598876953125
1.92392578125
1.3559326171875
0.04189453125
0.0378662109375
0.0443115234375
0.17644042968749998
0.5478515625
0.881396484375
1.0610595703124999
1.4300537109375
1.5073974609374998
1.5541259765625
1.7668212890625
1.77890625
1.8409423828125
1.7740722656249999
1.651611328125
0.038671874999999994
0.041088867187499996
0.816943359375
1.0787841796875
1.3414306640625
1.9392333984374999
2.7062255859374997
3.0462158203125
3.0462158203125
2.4790283203124996
2.141455078125
1.8659179687499998
1.6781982421875
1.5525146484374999
1.6081054687499998
1.6636962890625
1.533984375
1.5057861328125
1.5533203125
1.53076171875
1.525927734375
1.5927978515624999
3.0478271484375
2.4693603515625
2.2341064453125
1.8312744140625
1.4236083984374999
0.760546875
0.04189453125
0.04189453125
0.09990234375
0.4793701171875
0.8725341796874999
1.03125
1.2374999999999998
1.4034667968749999
1.4896728515625
1.7571533203124998
1.88525390625
1.8473876953125
1.7861572265624999
1.7740722656249999
0.0394775390625
0.041088867187499996
0.708984375
0.9007324218749999
1.2955078125
1.9440673828125
2.318701171875
3.0470214843749996
3.0478271484375
2.6949462890625
2.1889892578125
1.9553466796874999
1.654833984375
1.6854492187499999
1.703173828125
1.65
1.5968261718749999
1.4928955078125
1.4719482421874999
1.4872558593749998
1.4880615234374999
1.4493896484375
3.0486328124999997
2.86494140625
2.3372314453125
2.1519287109375
1.6177734375
0.865283203125
0.040283203125
0.041088867187499996
0.053173828124999996
0.4600341796875
0.7138183593749999
0.9498779296875
1.2431396484375
1.47275390625
1.5565429687499999
1.7909912109375
1.7152587890625
1.7579589843749999
1.7458740234374999
1.6975341796874999
1.62744140625
0.0378662109375
0.7565185546875
0.9627685546875
1.26005859375
1.799853515625
2.1583740234374997
3.0470214843749996
3.0470214843749996
2.7287841796874996
2.384765625
2.038330078125
1.72734375
1.7595703125
1.6330810546874999
1.6532226562499999
1.6975341796874999
1.4268310546874998
1.448583984375
1.5194824218749998
1.448583984375
1.4977294921875
3.043798828125
2.8625244140625
2.4846679687499997
2.1333984375
1.6822265625
1.2979248046874998
0.042700195312499994
0.041088867187499996
0.04189453125
0.33354492187499996
0.708984375
0.9692138671874999
1.069921875
1.42119140625
1.5605712890624999
1.4622802734375
1.7974365234374998
1.803076171875
1.7337890624999999
1.7023681640625
1.62744140625
0.041088867187499996
0.15871582031249998
1.0175537109375
1.1416259765624999
1.4993408203124998
1.8900878906249998
3.0510498046874996
3.0470214843749996
2.963232421875
2.333203125
2.03671875
1.799853515625
1.7176757812499999
1.6371093749999999
1.796630859375
1.5589599609375
1.4308593749999998
1.4526123046875
1.5033691406249998
1.5082031249999999
1.4397216796874999
3.0478271484375
3.0486328124999997
2.4766113281249997
2.281640625
1.9456787109375
1.21494140625
0.041088867187499996
0.041088867187499996
0.040283203125
0.23203125
0.554296875
0.9571289062499999
1.042529296875
1.3253173828125
1.4800048828124999
1.7080078125
1.791796875
1.98515625
1.8232177734375
1.7724609375
1.687060546875
0.038671874999999994
0.041088867187499996
0.9289306640624999
1.0159423828125
1.5960205078124998
1.8739746093749998
2.9076416015624997
3.0470214843749996
2.9495361328125
2.5313964843749996
1.9601806640625
1.8465820312499999
1.7660156249999999
1.6169677734374999
1.674169921875
1.7732666015624998
1.4123291015625
1.3986328124999998
1.5146484375
1.5146484375
1.5251220703125
3.0429931640624996
3.0470214843749996
2.45888671875
2.2212158203125
1.9360107421875
1.44052734375
0.8580322265625
0.04189453125
0.040283203125
0.049951171875
0.507568359375
0.8201660156249999
1.007080078125
1.222998046875
1.4638916015624999
1.5162597656249999
1.8336914062499998
1.8014648437499998
1.7652099609374998
1.8143554687499999
1.6806152343749998
0.040283203125
0.04189453125
0.6832031249999999
0.9450439453124999
1.368017578125
1.7587646484375
2.5088378906249997
3.0470214843749996
3.0462158203125
2.7416748046875
2.3742919921875
1.9617919921875
1.7772949218749998
1.6886718749999998
1.7080078125
1.6572509765624999
1.4187744140624998
1.4308593749999998
1.4123291015625
1.45341796875
1.4655029296875
1.4687255859375
3.0494384765625
2.602294921875
2.3178955078125
1.9005615234375
1.5170654296875
1.01513671875
0.0394775390625
0.038671874999999994
0.25620117187499997
0.3762451171875
0.662255859375
1.0376953125
1.2028564453125
1.5122314453124999
1.4945068359375
1.8151611328125
1.8014648437499998
1.7990478515625
1.7418457031249999
1.73056640625
1.6588623046875
0.045117187499999996
0.6775634765624999
0.9249023437499999
1.18271484375
1.7853515624999998
2.1084228515625
3.0470214843749996
3.0494384765625
2.69736328125
2.33642578125
1.90458984375
1.9005615234375
1.7233154296875
1.6137451171875
1.6072998046875
1.558154296875
1.4912841796874998
1.6282470703124998
1.513037109375
1.5202880859374999
1.5033691406249998
3.0470214843749996
2.9277832031249997
2.4177978515625
2.1293701171875
1.7781005859374999
1.3502929687499998
0.0394775390625
0.042700195312499994
0.04189453125
0.26022949218749997
0.6590332031249999
0.9385986328125
1.0489746093749999
1.4123291015625
1.5218994140625
1.7329833984374998
1.8240234375
1.7684326171875
1.7571533203124998
1.73056640625
1.65966796875
0.041088867187499996
0.1716064453125
0.8886474609374999
1.0417236328125
1.46630859375
1.9835449218749999
3.0494384765625
3.0462158203125
2.972900390625
2.4258544921875
2.14306640625
1.8763916015625
1.7474853515625
1.9489013671875
1.6572509765624999
1.5082031249999999
1.4139404296875
1.4034667968749999
1.416357421875
1.3551269531249999
1.4711425781249998
3.04541015625
3.0446044921874997
2.4403564453124997
2.289697265625
1.6209960937499999
1.32451171875
0.062841796875
0.041088867187499996
0.041088867187499996
0.14501953125
0.5567138671874999
0.8588378906249999
0.9933837890624999
1.31162109375
1.5009521484375
1.8473876953125
1.9730712890625
1.8336914062499998
1.7466796875
1.7370117187499998
1.6250244140624999
0.041088867187499996
0.04189453125
0.781494140625
1.152099609375
1.46630859375
1.8876708984375
2.4725830078124997
3.0486328124999997
3.0462158203125
2.7344238281249997
2.1197021484375
1.893310546875
1.7499023437499999
1.5347900390625
1.6105224609375
1.706396484375
1.400244140625
1.4880615234374999
1.5138427734375
1.5686279296874999
1.5428466796875
3.0470214843749996
3.0470214843749996
2.512060546875
2.255859375
1.977099609375
1.529150390625
0.3552978515625
0.040283203125
0.040283203125
0.045117187499999996
0.49306640625
0.8266113281249999
1.058642578125
1.2826171874999999
1.4888671875
1.7265380859375
1.7668212890625
1.7845458984375
1.7813232421874998
1.7184814453125
1.6612792968749999
0.04189453125
0.0394775390625
0.7218749999999999
1.069921875
1.2906738281249999
1.9392333984374999
2.5088378906249997
3.0486328124999997
3.04541015625
2.592626953125
2.2026855468749997
1.8925048828125
1.9352050781249999
1.603271484375
1.5605712890624999
1.574267578125
1.409912109375
1.4630859374999998
1.46630859375
1.533984375
1.5444580078124999
1.5509033203125
3.0462158203125
2.5950439453125
2.31708984375
1.993212890625
1.5589599609375
1.0610595703124999
0.041088867187499996
0.041088867187499996
0.1426025390625
0.36093749999999997
0.7718261718749999
1.0191650390625
1.2503906249999999
1.4026611328124998
1.9062011718749998
1.7072021484375
1.8248291015625
1.8006591796875
1.7595703125
1.7378173828124999
0.6469482421874999
0.043505859375
0.807275390625
0.95390625
1.2238037109375
1.6588623046875
1.996435546875
3.0478271484375
3.0470214843749996
2.7529541015624996
2.2647216796875
1.9891845703125
1.7571533203124998
1.7611816406249998
1.635498046875
1.5186767578125
1.5919921874999998
1.4864501953125
1.5170654296875
1.50498046875
1.67900390625
1.4501953125
3.04541015625
2.9970703125
2.3235351562499997
2.0923095703125
1.6669189453125
1.152099609375
0.045117187499999996
0.041088867187499996
0.041088867187499996
0.322265625
0.6388916015624999
0.733154296875
1.152099609375
1.4115234374999999
1.5565429687499999
1.66611328125
1.8570556640625
1.7797119140625
1.7289550781249998
1.6725585937499998
1.6024658203125
0.045117187499999996
0.7178466796874999
0.992578125
1.164990234375
1.6967285156249998
1.9658203125
3.0470214843749996
3.0470214843749996
2.8383544921875
2.502392578125
2.1358154296875
1.7692382812499998
1.7136474609374999
1.7039794921875
1.619384765625
1.46630859375
1.46630859375
1.47275390625
1.4679199218749999
1.60166015625
1.4872558593749998
3.0462158203125
3.0446044921874997
2.4016845703125
2.1873779296875
1.972265625
1.3478759765625
0.3029296875
0.042700195312499994
0.041088867187499996
0.16677246093749998
0.6453369140624999
0.9949951171875
1.30517578125
1.4066894531249998
1.5573486328125
1.64677734375
1.714453125
1.76279296875
1.8328857421875
1.7088134765624998
1.6645019531249998
0.0378662109375
0.04189453125
0.791162109375
1.1625732421875
1.4461669921875
1.803076171875
3.0462158203125
3.043798828125
3.0333251953125
2.6288818359375
2.1221191406249997
1.8498046874999998
1.767626953125
1.5992431640625
1.6161621093749998
1.6266357421875
1.525927734375
1.5114257812499998
1.5057861328125
1.513037109375
1.538818359375
2.905224609375
3.0462158203125
2.4629150390625
2.2921142578125
1.9746826171874998
1.3559326171875
0.7694091796875
0.040283203125
0.041088867187499996
0.19094238281249998
0.4632568359375
0.8306396484374999
1.1134277343749999
1.3551269531249999
1.5412353515625
1.6129394531249999
1.7337890624999999
1.77568359375
1.7499023437499999
1.7345947265625
1.815966796875
0.339990234375
0.04189453125
0.6791748046874999
1.0304443359375
1.3946044921874998
1.9634033203124999
2.4242431640624997
3.0446044921874997
3.0486328124999997
2.6079345703124996
2.25263671875
2.1052001953125
1.76279296875
1.670947265625
1.590380859375
1.525927734375
1.4574462890625
1.4252197265625
1.482421875
1.5283447265624999
1.4759765624999999
2.2389404296874997
3.0486328124999997
2.6047119140625
2.180126953125
2.08505859375
1.545263671875
1.0852294921874999
0.0443115234375
0.040283203125
0.041088867187499996
0.44794921875
0.7420166015624999
0.9917724609374999
1.16337890625
1.61455078125
1.732177734375
1.722509765625
1.819189453125
1.8441650390625
1.7587646484375
1.6878662109375
1.1077880859375
0.040283203125
0.5083740234374999
0.8934814453125
1.2624755859374999
1.658056640625
2.321923828125
3.0486328124999997
3.0478271484375
2.6466064453125
2.2776123046875
2.0012695312499997
1.7772949218749998
1.5017578125
1.6234130859375
1.6435546875
1.5243164062499999
1.5202880859374999
1.4888671875
1.4880615234374999
1.5090087890625
1.5073974609374998
3.0462158203125
2.63291015625
2.4468017578125
2.183349609375
1.5605712890624999
1.147265625
0.037060546874999996
0.040283203125
0.0394775390625
0.38349609375
0.6807861328125
1.055419921875
1.203662109375
1.413134765625
1.561376953125
1.754736328125
1.7732666015624998
1.751513671875
1.7660156249999999
1.6967285156249998
1.622607421875
0.0394775390625
0.43747558593749997
0.8950927734374999
1.0119140625
1.5533203125
1.8788085937499999
3.0486328124999997
3.0494384765625
3.0156005859375
2.4814453125
1.998046875
1.786962890625
1.7128417968749998
1.6564453124999998
1.4252197265625
1.4542236328125
1.513037109375
1.4872558593749998
1.5090087890625
1.513037109375
1.5009521484375
3.050244140625
3.0494384765625
2.47177734375
2.199462890625
1.8119384765625
1.3672119140624999
0.04189453125
0.0394775390625
0.038671874999999994
0.1740234375
0.620361328125
0.910400390625
1.1666015625
1.4493896484375
1.5428466796875
1.6524169921874998
1.7394287109375
1.7337890624999999
1.851416015625
1.7329833984374998
1.6250244140624999
0.043505859375
0.0394775390625
1.0626708984375
1.071533203125
1.4284423828125
1.9166748046875
2.8069335937499997
3.0494384765625
3.0446044921874997
2.550732421875
2.1954345703125
1.9311767578124999
1.738623046875
1.56298828125
1.6379150390625
1.4655029296875
1.50498046875
1.4679199218749999
1.474365234375
1.458251953125
1.4945068359375
2.3646240234375
3.0462158203125
2.5031982421874996
2.2421630859375
1.8385253906249999
1.3994384765624999
0.6598388671875
0.0394775390625
0.0378662109375
0.2118896484375
0.53173828125
0.8838134765625
1.04736328125
1.276171875
1.5082031249999999
1.4791992187499998
1.7329833984374998
1.74345703125
1.7297607421874999
1.7039794921875
1.7668212890625
0.041088867187499996
0.042700195312499994
0.72509765625
0.91201171875
1.400244140625
1.93681640625
2.2792236328124997
3.0470214843749996
3.0470214843749996
2.6103515625
2.22041015625
1.8780029296874998
1.6935058593749999
1.6443603515624998
1.658056640625
1.4848388671875
1.5114257812499998
1.482421875
1.46630859375
1.4800048828124999
1.5170654296875
1.71123046875
3.0486328124999997
2.6965576171874996
2.2776123046875
2.1390380859375
1.5299560546875
0.7742431640624999
0.040283203125
0.040283203125
0.041088867187499996
0.5607421874999999
0.8306396484374999
1.061865234375
1.276171875
1.461474609375
1.5637939453124998
1.803076171875
1.7595703125
1.8014648437499998
1.7821289062499999
1.7104248046875
1.4928955078125
0.04189453125
0.7097900390624999
0.865283203125
1.1947998046875
1.8216064453124998
2.34287109375
3.0510498046874996
3.0470214843749996
2.6611083984375
2.2566650390625
1.957763671875
1.7257324218749999
1.699951171875
1.65966796875
1.611328125
1.5750732421875
1.493701171875
1.5162597656249999
1.52109375
1.45341796875
1.456640625
3.0486328124999997
2.744091796875
2.447607421875
2.141455078125
1.6572509765624999
1.316455078125
0.041088867187499996
0.042700195312499994
0.043505859375
0.3552978515625
0.7323486328125
1.0223876953125
1.1093994140624999
1.3986328124999998
1.55009765625
1.5750732421875
1.738623046875
1.8014648437499998
1.73056640625
1.7297607421874999
1.6645019531249998
0.040283203125
0.36577148437499996
0.80888671875
1.1915771484375
1.5678222656249998
1.9384277343749998
3.0446044921874997
3.0389648437499996
3.04541015625
2.487890625
1.9754882812499999
1.7974365234374998
1.7289550781249998
1.6395263671875
1.4276367187499999
1.5323730468749999
1.4187744140624998
1.42119140625
1.448583984375
1.5235107421874998
1.4816162109375
3.04541015625
3.0470214843749996
2.4484130859374997
2.27197265625
1.867529296875
1.34384765625
0.040283203125
0.04189453125
0.041088867187499996
0.3182373046875
0.630029296875
1.0175537109375
1.0948974609375
1.4228027343749998
1.5122314453124999
1.5146484375
1.764404296875
1.6854492187499999
1.786962890625
1.95615234375
1.6717529296875
0.040283203125
0.16677246093749998
0.800830078125
0.9958007812499999
1.1859374999999999
1.8820312499999998
2.98740234375
3.0470214843749996
2.9592041015625
2.5869873046875
2.17529296875
1.7893798828124998
1.748291015625
1.6024658203125
1.6636962890625
1.5791015625
1.533984375
1.538818359375
1.5017578125
1.4880615234374999
1.4759765624999999
3.04541015625
3.0470214843749996
2.582958984375
2.31064453125
1.9021728515624998
1.4397216796874999
0.8080810546874999
0.042700195312499994
0.041088867187499996
0.2054443359375
0.533349609375
0.8354736328125
1.0352783203125
1.4751708984374998
1.43408203125
1.384130859375
1.7233154296875
1.7692382812499998
1.76279296875
1.571044921875
1.654833984375
0.040283203125
0.0394775390625
0.75087890625
1.068310546875
1.16337890625
1.7128417968749998
2.5894042968749997
3.0470214843749996
3.0462158203125
2.642578125
2.176904296875
1.8908935546874999
1.7531249999999998
1.6604736328124998
1.662890625
1.5960205078124998
1.4155517578124999
1.4550292968749998
1.477587890625
1.6137451171875
1.5621826171875
1.5919921874999998
3.0486328124999997
2.5450927734374997
2.2308837890624997
2.1543457031249997
1.4268310546874998
0.849169921875
0.037060546874999996
0.040283203125
0.062841796875
0.44553222656249997
0.720263671875
0.9966064453125
1.2028564453125
1.4381103515625
1.5976318359375
1.8409423828125
1.7982421874999999
1.799853515625
1.735400390625
1.6765869140624998
1.65
0.0394775390625
0.6340576171875
0.8121093749999999
1.1150390625
1.6693359374999999
1.9537353515625
3.050244140625
3.0470214843749996
2.745703125
2.415380859375
1.9867675781249998
1.7781005859374999
1.5484863281249999
1.6967285156249998
1.6685302734374998
1.7152587890625
1.4228027343749998
1.4711425781249998
1.4526123046875
1.47275390625
1.5025634765625
3.0486328124999997
2.8625244140625
2.5007812499999997
2.1591796875
1.716064453125
1.4316650390624999
0.0378662109375
0.0394775390625
0.042700195312499994
0.3037353515625
0.66064453125
0.9369873046874999
1.0497802734375
1.429248046875
1.5396240234374998
1.590380859375
1.7990478515625
1.77568359375
1.7337890624999999
1.7055908203124999
1.6395263671875
0.040283203125
0.2183349609375
0.7452392578125
1.1416259765624999
1.4437499999999999
2.035107421875
3.0462158203125
3.04541015625
2.8786376953125
2.2969482421875
2.035107421875
1.819189453125
1.7426513671875
1.670947265625
1.64677734375
1.6153564453125
1.50498046875
1.5654052734375
1.56298828125
1.5090087890625
1.3470703124999999
3.050244140625
3.0010986328125
2.4838623046875
2.3259521484375
1.9408447265625
1.40830078125
0.25217285156249997
0.0378662109375
0.041088867187499996
0.1716064453125
0.301318359375
0.90234375
1.044140625
1.3059814453124998
1.4501953125
1.66611328125
1.6951171875
1.6379150390625
1.9464843749999998
1.6806152343749998
1.69833984375
0.041088867187499996
0.038671874999999994
0.78310546875
0.887841796875
1.5114257812499998
1.9053955078125
2.5958496093749996
3.043798828125
3.0470214843749996
2.5885986328125
2.096337890625
1.8618896484374998
1.754736328125
1.6685302734374998
1.67900390625
1.8135498046874998
1.5017578125
1.4155517578124999
1.4373046875
1.4397216796874999
1.4373046875
3.0470214843749996
3.0470214843749996
2.5168945312499997
2.34609375
1.95615234375
1.45341796875
0.078955078125
0.04189453125
0.037060546874999996
0.050756835937499994
0.46728515625
0.7541015624999999
1.2101074218749999
1.271337890625
1.4493896484375
1.4510009765624998
1.6991455078125
1.75634765625
1.529150390625
1.7370117187499998
1.674169921875
0.040283203125
0.0443115234375
0.717041015625
0.8773681640625
1.1931884765625
2.064111328125
2.45888671875
3.04541015625
3.0478271484375
2.6176025390624997
2.23974609375
1.7088134765624998
1.7595703125
1.69833984375
1.6693359374999999
1.844970703125
1.464697265625
1.5202880859374999
1.3462646484374998
1.5331787109375
1.5267333984375
1.5186767578125
3.0470214843749996
2.6240478515624996
2.3960449218749997
2.051220703125
1.5347900390625
0.928125
0.041088867187499996
0.038671874999999994
0.0668701171875
0.4278076171875
0.8185546874999999
1.036083984375
1.1271240234375
1.3744628906249998
1.5436523437499998
1.6685302734374998
1.7700439453124999
1.7772949218749998
1.7724609375
1.799853515625
0.040283203125
0.040283203125
0.5744384765625
0.7774658203125
1.1674072265625
1.43408203125
2.02705078125
3.050244140625
3.0494384765625
2.7432861328125
2.2969482421875
1.9867675781249998
1.65
1.7974365234374998
1.7023681640625
1.6129394531249999
1.6322753906249998
1.5186767578125
1.5404296874999999
1.5106201171875
1.51787109375
1.5082031249999999
3.0470214843749996
2.9801513671874997
2.4766113281249997
2.25263671875
1.9569580078125
1.1093994140624999
0.037060546874999996
0.0394775390625
0.041088867187499996
0.2956787109375
0.5873291015625
0.8531982421875
1.06669921875
1.34384765625
1.4840332031249999
1.6072998046875
1.7442626953125
1.7442626953125
1.7345947265625
1.716064453125
1.6435546875
0.041088867187499996
0.3907470703125
0.8749511718749999
1.03125
1.4268310546874998
2.0254394531249997
3.0486328124999997
3.0462158203125
2.81015625
2.4749999999999996
2.183349609375
1.8506103515624999
1.8167724609375
1.7362060546875
1.7329833984374998
1.5976318359375
1.46953125
1.4542236328125
1.474365234375
1.2963134765625
1.4816162109375
3.04541015625
3.0413818359375
2.4935302734375
2.40087890625
1.8908935546874999
1.4252197265625
0.091845703125
0.040283203125
0.041088867187499996
0.1732177734375
0.604248046875
0.8596435546875
1.0320556640625
1.2399169921875
1.4880615234374999
1.7055908203124999
1.7257324218749999
1.7257324218749999
1.815966796875
1.7603759765625
1.6653076171874999
0.041088867187499996
0.040283203125
0.7557128906249999
1.2479736328125
1.4147460937499998
1.8417480468749998
3.0486328124999997
3.0478271484375
3.02607421875
2.586181640625
2.16884765625
1.9521240234375
1.7853515624999998
1.7072021484375
1.6636962890625
1.864306640625
1.5492919921875
1.4920898437499999
1.5017578125
1.493701171875
1.4977294921875
3.0446044921874997
3.04541015625
2.5088378906249997
2.399267578125
2.1068115234375
1.4558349609374999
0.20463867187499998
0.037060546874999996
0.040283203125
0.04189453125
0.4149169921875
0.662255859375
0.889453125
1.1722412109375
1.442138671875
1.5041748046874999
1.7096191406249999
1.7990478515625
1.8344970703124999
1.803076171875
1.6105224609375
0.0443115234375
0.041088867187499996
0.6429199218749999
0.910400390625
1.1239013671875
2.075390625
2.8979736328124996
3.0478271484375
3.0002929687499997
2.602294921875
2.2953369140624997
1.9972412109375
1.8538330078124998
1.791796875
1.740234375
1.7426513671875
1.4800048828124999
1.4703369140625
1.46630859375
1.561376953125
1.5412353515625
2.6643310546874996
3.0470214843749996
2.7110595703125
2.457275390625
2.164013671875
1.593603515625
1.0409179687499999
0.041088867187499996
0.043505859375
0.0394775390625
0.2344482421875
0.6566162109375
0.8604492187499999
1.0409179687499999
1.4622802734375
1.6636962890625
1.9754882812499999
1.7531249999999998
1.783740234375
1.8602783203125
1.7893798828124998
0.31259765624999997
0.040283203125
0.55751953125
0.8258056640625
1.1819091796874999
1.6395263671875
2.36865234375
3.0494384765625
3.0470214843749996
2.8166015625
2.376708984375
2.070556640625
1.8780029296874998
2.0109375
1.72734375
1.6862548828125
1.5758789062499998
1.4751708984374998
1.47275390625
1.3301513671874998
1.5041748046874999
1.4864501953125
3.04541015625
2.7030029296875
2.5273681640624996
2.28486328125
1.585546875
1.1706298828125
0.18449707031249998
0.0378662109375
0.0394775390625
0.3544921875
0.5518798828125
0.8773681640625
0.9329589843749999
1.235888671875
1.442138671875
1.7579589843749999
1.8022705078124999
1.7893798828124998
1.7724609375
1.7426513671875
1.6459716796875
0.040283203125
0.5277099609375
0.8693115234375
1.0223876953125
1.480810546875
1.815966796875
3.0462158203125
3.0478271484375
2.7352294921875
2.4403564453124997
1.989990234375
1.8014648437499998
1.8046875
1.7466796875
1.703173828125
1.2584472656249999
1.5984375
1.5911865234375
1.5839355468749998
1.5251220703125
1.674169921875
3.0494384765625
3.0486328124999997
2.5483154296875
2.3477050781249997
1.9617919921875
1.45341796875
0.1651611328125
0.041088867187499996
0.040283203125
0.0910400390625
0.5422119140625
0.816943359375
0.8773681640625
1.248779296875
1.400244140625
1.5831298828125
1.786962890625
1.996435546875
1.8022705078124999
1.7571533203124998
1.6105224609375
0.041088867187499996
0.041088867187499996
0.8765624999999999
1.0634765625
1.4034667968749999
1.85947265625
3.0486328124999997
3.0478271484375
2.8697753906249996
2.4830566406249996
2.1938232421875
1.9271484374999999
1.84013671875
1.7603759765625
1.7893798828124998
1.5726562499999999
1.545263671875
1.4735595703125
1.477587890625
1.456640625
1.590380859375
2.94873046875
3.0421875
2.560400390625
2.4911132812499996
2.0020751953125
1.619384765625
0.091845703125
0.041088867187499996
0.04189453125
0.0443115234375
0.298095703125
0.639697265625
0.742822265625
1.2689208984375
1.3543212890624998
1.5831298828125
1.71123046875
1.78857421875
1.8248291015625
1.815966796875
1.7362060546875
0.0394775390625
0.0378662109375
0.65419921875
0.8483642578124999
1.5073974609374998
1.767626953125
2.4169921875
3.0486328124999997
3.0494384765625
2.7166992187499996
2.101171875
2.0971435546875
1.8884765625
1.828857421875
1.732177734375
1.5251220703125
1.48564453125
1.4155517578124999
1.4880615234374999
1.533984375
1.5106201171875
2.0979492187499997
3.04541015625
2.6377441406249997
2.3162841796875
2.17529296875
1.6322753906249998
0.11359863281249999
0.040283203125
0.041088867187499996
0.04189453125
0.33757324218749996
0.597802734375
0.8596435546875
1.1093994140624999
1.3043701171875
1.828857421875
1.732177734375
1.7579589843749999
1.815966796875
1.7982421874999999
1.7442626953125
1.1690185546875
0.0443115234375
0.6211669921874999
0.7694091796875
1.0062744140625
1.76279296875
2.1325927734375
3.0486328124999997
3.0470214843749996
2.7650390624999996
2.4355224609375
2.1205078125
1.9231201171874999
1.8473876953125
1.7168701171874998
1.4767822265625
1.5404296874999999
1.4735595703125
1.5436523437499998
1.6177734375
1.5146484375
1.533984375
3.04541015625
2.8206298828125
2.647412109375
2.4194091796875
1.699951171875
1.5678222656249998
0.040283203125
0.040283203125
0.040283203125
0.1957763671875
0.5526855468749999
0.7887451171875
0.9982177734375
1.2673095703125
1.4445556640625
1.4268310546874998
1.7257324218749999
1.574267578125
1.7249267578124998
1.7555419921875
1.5984375
0.041088867187499996
0.23928222656249998
0.8016357421875
1.071533203125
1.3873535156249999
1.764404296875
3.0421875
3.0470214843749996
2.9825683593749996
2.5015869140625
2.1849609375
1.98837890625
1.912646484375
1.7974365234374998
1.7853515624999998
1.5847412109374999
1.493701171875
1.4872558593749998
1.4928955078125
1.4711425781249998
1.641943359375
3.0470214843749996
3.0462158203125
2.5434814453124996
2.370263671875
2.0165771484375
1.5202880859374999
0.040283203125
0.040283203125
0.041088867187499996
0.18288574218749998
0.423779296875
0.6993164062499999
0.8709228515624999
1.229443359375
1.432470703125
1.6105224609375
1.703173828125
1.75634765625
1.6967285156249998
1.5541259765625
1.6532226562499999
0.040283203125
0.06767578125
0.8048583984375
0.87978515625
1.3962158203125
1.5718505859374998
2.72314453125
3.0470214843749996
3.0470214843749996
2.6925292968749996
2.3307861328125
1.9545410156249998
1.861083984375
1.716064453125
1.7313720703125
1.6564453124999998
1.5364013671874999
1.5082031249999999
1.49853515625
1.464697265625
1.474365234375
3.04541015625
3.0494384765625
2.4258544921875
2.4911132812499996
2.0979492187499997
1.5484863281249999
0.7549072265625
0.042700195312499994
0.040283203125
0.041088867187499996
0.41813964843749996
0.700927734375
0.8523925781249999
0.8274169921875
1.3752685546874999
1.3551269531249999
1.6927001953124998
1.7619873046874999
1.7772949218749998
1.7096191406249999
1.6411376953124999
0.042700195312499994
0.0394775390625
0.6670898437499999
0.8572265625
1.2205810546875
1.65
3.04541015625
3.0478271484375
3.0462158203125
2.808544921875
2.5499267578125
2.08505859375
1.8812255859375
1.719287109375
1.7539306640624999
1.4864501953125
1.690283203125
1.5436523437499998
1.6943115234375
1.5436523437499998
1.525927734375
1.5879638671874998
3.0446044921874997
2.6804443359374996
2.63291015625
2.257470703125
1.6242187499999998
0.9579345703125
0.037060546874999996
0.040283203125
0.0394775390625
0.3311279296875
0.554296875
0.8346679687499999
1.0973144531249999
1.3422363281249998
1.4679199218749999
1.638720703125
1.667724609375
1.7088134765624998
1.6854492187499999
1.6814208984374999
1.5726562499999999
0.041088867187499996
0.5486572265624999
0.7395996093749999
0.9482666015625
1.6234130859375
2.147900390625
3.050244140625
3.04541015625
3.0381591796875
2.5064208984375
2.12373046875
1.9166748046875
1.8586669921874999
1.7539306640624999
1.8232177734375
1.835302734375
1.480810546875
1.4308593749999998
1.4074951171874999
1.456640625
1.3148437499999999
3.0486328124999997
2.9737060546875
2.6119628906249996
2.3678466796874997
1.8659179687499998
1.7047851562499998
0.041088867187499996
0.0443115234375
0.04189453125
0.12246093749999999
0.47856445312499996
0.517236328125
0.80888671875
1.1915771484375
1.3986328124999998
1.4977294921875
1.6951171875
1.5863525390625
1.6653076171874999
1.754736328125
1.71123046875
0.040283203125
0.0990966796875
0.6670898437499999
0.887841796875
1.2536132812499998
2.038330078125
3.04541015625
3.0462158203125
2.9930419921875
2.5676513671874996
2.280029296875
2.0391357421875
1.8820312499999998
1.8264404296874999
1.5807128906249999
1.786962890625
1.8199951171875
1.5033691406249998
1.480810546875
1.4759765624999999
1.4767822265625
3.0462158203125
2.905224609375
2.6748046875
2.513671875
1.941650390625
1.493701171875
0.0443115234375
0.041088867187499996
0.041088867187499996
0.149853515625
0.46245117187499996
0.7822998046874999
0.855615234375
1.20849609375
1.329345703125
1.5541259765625
1.6862548828125
1.7660156249999999
1.8046875
1.7611816406249998
1.7587646484375
0.041088867187499996
0.041088867187499996
0.636474609375
0.845947265625
1.2503906249999999
1.8578613281249998
3.0462158203125
3.050244140625
3.0462158203125
2.7481201171875
2.5402587890625
2.018994140625
1.9271484374999999
1.6814208984374999
1.7289550781249998
1.7007568359374998
1.5025634765625
1.47275390625
1.4832275390624998
1.493701171875
1.5347900390625
3.04541015625
3.0429931640624996
2.5048095703124997
2.5491210937499997
2.228466796875
1.6475830078125
0.0926513671875
0.0394775390625
0.04189453125
0.037060546874999996
0.33676757812499997
0.578466796875
0.742822265625
1.1295410156249999
1.340625
1.2463623046874999
1.4413330078125
1.7233154296875
1.7652099609374998
1.735400390625
1.6910888671875
0.040283203125
0.0378662109375
0.47050781249999996
0.6840087890625
0.9901611328125
1.7120361328125
2.5273681640624996
3.0462158203125
3.0429931640624996
2.7674560546875
2.4806396484374997
2.1599853515625
1.9529296875
1.861083984375
1.7015624999999999
2.0004638671875
1.5380126953125
1.50498046875
1.4671142578124998
1.4816162109375
1.477587890625
1.464697265625
3.04541015625
2.745703125
2.5225341796875
2.37509765625
1.7362060546875
0.984521484375
0.040283203125
0.0362548828125
0.040283203125
0.046728515624999994
0.5446289062499999
0.87333984375
0.9394042968749999
1.213330078125
1.361572265625
1.67900390625
1.7418457031249999
1.9303710937499998
1.7652099609374998
1.716064453125
0.037060546874999996
0.0378662109375
0.5446289062499999
0.6251953124999999
1.03447265625
1.6886718749999998
2.086669921875
3.0478271484375
3.0470214843749996
2.8069335937499997
2.3952392578125
2.1599853515625
1.9223144531249998
1.85302734375
1.8046875
1.6137451171875
1.7531249999999998
1.5597656249999998
1.53076171875
1.5331787109375
1.4945068359375
1.5033691406249998
3.0494384765625
3.0470214843749996
2.582958984375
2.4306884765625
2.023828125
1.11826171875
0.041088867187499996
0.04189453125
0.042700195312499994
0.249755859375
0.45358886718749997
0.4970947265625
0.87978515625
1.1110107421875
1.2834228515625
1.461474609375
1.6862548828125
1.6218017578125
1.7531249999999998
2.044775390625
1.7200927734375
0.037060546874999996
0.44553222656249997
0.631640625
0.8443359374999999
1.1964111328125
1.864306640625
3.0494384765625
3.0494384765625
2.9422851562499996
2.5434814453124996
2.2832519531249997
1.9327880859375
1.9464843749999998
1.8868652343749999
1.835302734375
1.6967285156249998
1.545263671875
1.52109375
1.4574462890625
1.4791992187499998
1.4364990234375
3.050244140625
3.0494384765625
2.7328124999999996
2.462109375
2.0955322265625
1.561376953125
0.0378662109375
0.0394775390625
0.041088867187499996
0.0580078125
0.41330566406249997
0.6703125
0.78310546875
1.1158447265625
1.3446533203125
1.6161621093749998
1.593603515625
1.7088134765624998
1.7128417968749998
1.6008544921874999
1.6967285156249998
0.040283203125
0.040283203125
0.485009765625
0.7669921875
1.2697265624999998
1.5017578125
3.04541015625
3.0494384765625
3.04541015625
2.6876953125
2.434716796875
2.13984375
1.9827392578124998
1.915869140625
1.799853515625
1.9408447265625
1.5323730468749999
1.477587890625
1.5082031249999999
1.2665039062499999
1.490478515625
3.04541015625
3.04541015625
2.6361328124999996
2.5837646484374996
2.254248046875
1.6040771484374998
0.045117187499999996
0.042700195312499994
0.040283203125
0.040283203125
0.39799804687499996
0.6260009765625
0.7549072265625
1.0497802734375
1.2656982421874998
1.2656982421874998
1.5114257812499998
1.7200927734375
1.7692382812499998
1.7523193359375
1.6943115234375
0.041088867187499996
0.040283203125
0.468896484375
0.7218749999999999
0.928125
1.7055908203124999
2.2373291015625
3.0462158203125
3.0429931640624996
2.802099609375
2.4927246093749997
2.1922119140625
1.9948242187499998
1.6862548828125
1.8498046874999998
1.9037841796875
1.5533203125
1.5347900390625
1.529150390625
1.4477783203124999
1.458251953125
1.606494140625
3.043798828125
2.7747070312499997
2.578125
2.338037109375
1.735400390625
1.1835205078125
0.040283203125
0.041088867187499996
0.042700195312499994
0.20705566406249998
0.5325439453124999
0.7275146484374999
0.9087890624999999
1.2238037109375
1.5122314453124999
1.574267578125
1.7289550781249998
1.843359375
1.812744140625
1.72734375
0.19497070312499998
0.041088867187499996
0.49951171875
0.7065673828125
0.9611572265624999
1.5396240234374998
1.9996582031249999
3.0478271484375
3.0446044921874997
2.8576904296874996
2.4443847656249997
2.1785156249999997
1.98837890625
1.9424560546874998
1.6137451171875
1.8393310546875
1.85625
1.5138427734375
1.5114257812499998
1.4429443359374998
1.4735595703125
1.3108154296874999
3.0462158203125
3.0478271484375
2.5587890625
2.441162109375
2.209130859375
1.2302490234374999
0.043505859375
0.038671874999999994
0.041088867187499996
0.17241210937499998
0.49951171875
0.6517822265625
0.878173828125
1.1512939453125
1.3462646484374998
1.5645996093749999
1.48564453125
1.6483886718749998
2.0004638671875
1.7619873046874999
1.6781982421875
0.040283203125
0.35288085937499997
0.6703125
0.5365722656249999
1.4437499999999999
1.8119384765625
3.0462158203125
3.0470214843749996
3.04541015625
2.5225341796875
2.30419921875
2.0713623046875
1.9875732421874999
1.8949218749999999
1.8224121093749999
1.7023681640625
1.6306640625
1.5315673828124998
1.5404296874999999
1.5033691406249998
1.4961181640624999
3.0470214843749996
3.0486328124999997
2.6603027343749996
2.52978515625
2.1205078125
1.6137451171875
0.1812744140625
0.04189453125
0.040283203125
0.26828613281249997
0.3343505859375
0.5969970703124999
0.6767578125
0.936181640625
1.27294921875
1.480810546875
1.6266357421875
1.7257324218749999
1.7418457031249999
1.7458740234374999
1.6927001953124998
0.0394775390625
0.043505859375
0.6598388671875
0.8854248046875
1.252001953125
1.7249267578124998
3.0486328124999997
3.0486328124999997
3.0486328124999997
2.68125
2.333203125
2.0858642578124997
1.6886718749999998
1.835302734375
1.7555419921875
1.880419921875
1.5944091796875
1.5662109375
1.5275390624999998
1.4872558593749998
1.5057861328125
3.0429931640624996
3.0470214843749996
2.6369384765625
2.6353271484375
2.280029296875
1.5364013671874999
0.704150390625
0.0443115234375
0.038671874999999994
0.06767578125
0.343212890625
0.5679931640625
0.7226806640625
0.9933837890624999
1.203662109375
1.200439453125
1.5766845703124999
1.72734375
1.7474853515625
1.7797119140625
1.74345703125
0.045117187499999996
0.041088867187499996
0.5132080078125
0.6654785156249999
0.903955078125
1.6556396484375
2.3638183593749997
3.0446044921874997
3.04541015625
2.8061279296875
2.512060546875
2.1889892578125
2.0681396484375
1.944873046875
1.9464843749999998
1.7619873046874999
1.5170654296875
1.5162597656249999
1.490478515625
1.5106201171875
1.5863525390625
2.4951416015624996
3.0470214843749996
2.7988769531249997
2.5724853515625
2.3887939453125
1.8860595703124998
1.1448486328125
0.041088867187499996
0.040283203125
0.03544921875
0.1619384765625
0.5204589843749999
0.6590332031249999
0.8596435546875
1.2093017578125
1.5992431640625
1.5637939453124998
1.7982421874999999
1.6943115234375
1.6814208984374999
1.6733642578124999
0.945849609375
0.040283203125
0.20705566406249998
0.6082763671875
0.9216796875
1.4252197265625
2.2115478515625
3.0462158203125
3.0510498046874996
2.9833740234375
2.591015625
2.3130615234375
2.1205078125
1.9456787109375
1.8739746093749998
1.8409423828125
1.7281494140625
1.61455078125
1.546875
1.490478515625
1.4195800781249999
1.4848388671875
3.04541015625
2.7908203124999997
2.63935546875
2.4355224609375
1.8465820312499999
1.276171875
0.0394775390625
0.0394775390625
0.0394775390625
0.2022216796875
0.37785644531249996
0.7162353515625
0.968408203125
1.0731445312499999
1.2826171874999999
1.3857421875
1.7217041015624999
1.7571533203124998
2.002880859375
1.7507080078125
1.6588623046875
0.041088867187499996
0.2666748046875
0.6501708984375
0.5808837890624999
1.3462646484374998
1.73056640625
3.04541015625
3.0478271484375
3.0164062499999997
2.6860839843749997
2.2623046875
2.0874755859375
1.9948242187499998
1.9070068359374999
1.8586669921874999
1.577490234375
1.5589599609375
1.50498046875
1.558154296875
1.5251220703125
1.5082031249999999
3.0470214843749996
3.0470214843749996
2.6321044921874996
2.4870849609374996
2.0947265625
1.6129394531249999
0.037060546874999996
0.042700195312499994
0.040283203125
0.07009277343749999
0.3037353515625
0.5099853515625
0.6179443359375
1.0787841796875
1.4993408203124998
1.506591796875
1.6927001953124998
1.683837890625
1.7539306640624999
1.7152587890625
1.72412109375
0.042700195312499994
0.041088867187499996
0.6654785156249999
0.7806884765625
1.148876953125
1.8788085937499999
2.9930419921875
3.0486328124999997
3.043798828125
2.7183105468749997
2.4202148437499997
1.9754882812499999
2.0568603515625
1.9327880859375
1.9013671875
1.6669189453125
1.6161621093749998
1.5460693359375
1.4381103515625
1.5251220703125
1.5170654296875
2.6611083984375
3.0462158203125
2.6659423828124997
2.56201171875
2.1261474609374997
1.622607421875
0.6243896484375
0.040283203125
0.038671874999999994
0.0394775390625
0.207861328125
0.5309326171875
0.6856201171874999
0.958740234375
0.9740478515625
1.3446533203125
1.8659179687499998
1.7257324218749999
1.7394287109375
1.7096191406249999
1.69833984375
0.040283203125
0.0394775390625
0.543017578125
0.6815917968749999
1.0626708984375
1.6290527343749999
2.23974609375
3.04541015625
3.0462158203125
2.9020019531249996
2.4943359375
2.23330078125
2.0504150390625
1.993212890625
1.8344970703124999
1.5517089843749998
1.5347900390625
1.53076171875
1.4719482421874999
1.2890625
1.5492919921875
1.8062988281249999
3.0470214843749996
2.8464111328125
2.5555664062499996
2.3912109375
1.609716796875
0.8983154296875
0.0394775390625
0.0394775390625
0.0378662109375
0.3117919921875
0.4890380859375
0.7226806640625
0.8660888671875
1.15693359375
1.3422363281249998
1.6056884765625
1.72412109375
1.7821289062499999
1.7660156249999999
1.7265380859375
1.4373046875
0.037060546874999996
0.5631591796875
0.9563232421875
1.03125
1.6371093749999999
2.1543457031249997
3.0486328124999997
3.04541015625
2.7271728515625
2.5877929687499996
2.2832519531249997
1.9988525390624998
1.9263427734374998
1.8328857421875
1.5726562499999999
1.6636962890625
1.5235107421874998
1.4977294921875
1.4945068359375
1.474365234375
1.72734375
3.0446044921874997
2.9390625
2.6772216796875
2.4524414062499997
1.8981445312499998
1.2270263671875
0.041088867187499996
0.038671874999999994
0.03544921875
0.088623046875
0.38994140624999996
0.639697265625
0.7226806640625
1.1134277343749999
1.2987304687499999
1.35673828125
1.6306640625
1.7619873046874999
1.7088134765624998
1.7023681640625
1.6524169921874998
0.0443115234375
0.104736328125
0.420556640625
0.8507812499999999
1.2906738281249999
1.7458740234374999
3.043798828125
3.0446044921874997
3.0462158203125
2.6224365234375
2.392822265625
2.12373046875
2.067333984375
1.90458984375
1.8546386718749999
1.6572509765624999
1.5533203125
1.5017578125
1.490478515625
1.482421875
1.529150390625
3.0470214843749996
3.0462158203125
2.6868896484375
2.560400390625
2.1551513671875
1.4703369140625
0.04189453125
0.037060546874999996
0.040283203125
0.08540039062499999
0.33837890625
0.55751953125
0.7307373046875
1.174658203125
1.2189697265625
1.40830078125
1.6298583984375
1.6806152343749998
1.6910888671875
1.7982421874999999
1.6330810546874999
0.040283203125
0.0362548828125
0.6413085937499999
0.7468505859375
1.51787109375
1.6765869140624998
2.7166992187499996
3.0421875
3.0486328124999997
2.7980712890625
2.4556640625
2.1301757812499997
2.03671875
1.7571533203124998
1.7821289062499999
1.7603759765625
1.635498046875
1.3390136718749999
1.5541259765625
1.5791015625
1.5557373046874998
3.04541015625
3.043798828125
2.5853759765624997
2.5177001953125
2.1906005859374997
1.6491943359374999
0.9418212890625
0.03544921875
0.0394775390625
0.0394775390625
0.36416015625
0.5969970703124999
0.7484619140625
0.9289306640624999
1.2310546875
1.3446533203125
1.5782958984375
1.7088134765624998
1.754736328125
1.7136474609374999
1.6894775390624999
0.040283203125
0.0394775390625
0.5325439453124999
0.734765625
0.9990234375
1.5702392578125
2.373486328125
3.0462158203125
3.0478271484375
2.8061279296875
2.5386474609375
2.2695556640625
2.083447265625
1.957763671875
1.9005615234375
1.6894775390624999
1.5436523437499998
1.5235107421874998
1.4638916015624999
1.4800048828124999
1.4920898437499999
1.513037109375
3.04541015625
2.695751953125
2.5048095703124997
2.18173828125
1.7724609375
1.0546142578125
0.040283203125
0.0394775390625
0.037060546874999996
0.091845703125
0.40283203125
0.6638671875
0.85400390625
1.147265625
1.4308593749999998
1.687060546875
1.6854492187499999
1.7128417968749998
1.7088134765624998
1.6886718749999998
1.609716796875
0.0378662109375
0.69287109375
0.6123046875
0.9998291015624999
1.5041748046874999
2.0181884765625
3.0494384765625
3.0470214843749996
2.9237548828124997
2.6079345703124996
2.2453857421875
2.0375244140624997
2.0165771484375
1.7370117187499998
1.78857421875
1.9037841796875
1.5927978515624999
1.56943359375
1.5275390624999998
1.506591796875
1.5533203125
3.04541015625
2.98095703125
2.487890625
2.3823486328125
1.9303710937499998
1.6451660156249999
0.04189453125
0.037060546874999996
0.041088867187499996
0.19094238281249998
0.39638671875
0.49790039062499997
0.7283203125
1.3140380859374998
1.3478759765625
1.4356933593749999
1.7120361328125
1.751513671875
1.740234375
1.4945068359375
1.7039794921875
0.0394775390625
0.0362548828125
0.671923828125
0.8531982421875
1.2705322265624999
1.7072021484375
3.0470214843749996
3.0462158203125
2.9326171875
2.6304931640625
2.3074218749999997
2.1849609375
1.91748046875
1.7982421874999999
1.7772949218749998
1.6886718749999998
1.5476806640624998
1.7088134765624998
1.53720703125
1.4920898437499999
1.4703369140625
3.0429931640624996
3.0470214843749996
2.6079345703124996
2.512060546875
2.141455078125
1.670947265625
0.3262939453125
0.038671874999999994
0.0378662109375
0.043505859375
0.35771484374999996
0.7081787109375
0.7822998046874999
1.1190673828125
1.3092041015625
1.5565429687499999
1.6636962890625
1.7603759765625
1.780517578125
1.79501953125
1.7934082031249998
0.041088867187499996
0.0394775390625
0.5534912109375
0.7694091796875
1.2721435546875
1.7499023437499999
2.6530517578125
3.0494384765625
3.0446044921874997
2.753759765625
2.3235351562499997
2.10439453125
1.9907958984374998
1.6781982421875
1.8361083984375
1.9456787109375
1.5984375
1.506591796875
1.5041748046874999
1.5573486328125
1.5138427734375
3.043798828125
3.0446044921874997
2.6756103515625
2.5571777343749997
2.321923828125
1.5799072265624998
0.069287109375
0.041088867187499996
0.0378662109375
0.041088867187499996
0.38671875
0.559130859375
0.807275390625
1.142431640625
1.3341796874999998
1.3398193359375
1.65966796875
1.6967285156249998
1.703173828125
1.7023681640625
1.6910888671875
0.038671874999999994
0.0394775390625
0.5615478515625
0.8000244140624999
1.010302734375
1.7088134765624998
2.4194091796875
3.0421875
3.0462158203125
2.88427734375
2.4177978515625
2.1197021484375
1.912646484375
1.8659179687499998
1.7990478515625
2.083447265625
1.4816162109375
1.4840332031249999
1.482421875
1.5009521484375
1.493701171875
1.4864501953125
3.04541015625
2.7722900390625
2.5998779296874996
2.341259765625
1.7281494140625
1.2938964843749998
0.0378662109375
0.037060546874999996
0.04189453125
0.2022216796875
0.53818359375
0.578466796875
0.8846191406249999
1.1641845703125
1.496923828125
1.5831298828125
1.7684326171875
1.6830322265625
1.7668212890625
1.8280517578125
0.2779541015625
0.0394775390625
0.46970214843749997
0.726708984375
0.9531005859374999
1.5597656249999998
1.9859619140625
3.0446044921874997
3.0478271484375
3.0429931640624996
2.5418701171875
2.183349609375
1.944873046875
1.8731689453125
1.716064453125
1.7047851562499998
1.5492919921875
1.5919921874999998
1.5589599609375
1.4816162109375
1.4638916015624999
1.4783935546875
3.0470214843749996
3.0309082031249996
2.7287841796874996
2.4838623046875
2.0536376953124997
1.2052734375
0.0394775390625
0.040283203125
0.037060546874999996
0.1973876953125
0.43022460937499996
0.7057617187499999
0.9877441406249999
1.3075927734375
1.4832275390624998
1.509814453125
1.7426513671875
1.754736328125
1.7692382812499998
1.7394287109375
1.7297607421874999
0.0394775390625
0.28439941406249997
0.662255859375
0.807275390625
1.4518066406249999
2.1060058593749997
3.04541015625
3.0470214843749996
3.043798828125
2.608740234375
2.34287109375
1.9529296875
1.8925048828125
1.7684326171875
1.7072021484375
1.5533203125
1.4687255859375
1.4187744140624998
1.4389160156249998
1.4268310546874998
1.4574462890625
3.0429931640624996
3.0462158203125
2.4435791015625
2.462109375
2.1261474609374997
1.56298828125
0.042700195312499994
0.038671874999999994
0.0394775390625
0.041088867187499996
0.3923583984375
0.652587890625
0.72509765625
1.1545166015625
1.4655029296875
1.7772949218749998
1.8876708984375
1.8224121093749999
1.8635009765625
1.8361083984375
1.7257324218749999
0.0394775390625
0.0394775390625
0.40283203125
0.6823974609375
1.174658203125
1.6886718749999998
3.0462158203125
3.0446044921874997
3.043798828125
2.7102539062499997
2.3485107421875
2.0471923828125
1.8788085937499999
1.683837890625
1.6717529296875
1.9013671875
1.6153564453125
1.4800048828124999
1.5162597656249999
1.5017578125
1.4381103515625
3.04541015625
3.043798828125
2.7263671874999997
2.6433837890625
2.47177734375
1.5380126953125
0.5663818359375
0.040283203125
0.042700195312499994
0.040283203125
0.233642578125
0.49306640625
0.8483642578124999
1.0981201171875
1.3414306640625
1.546875
1.7104248046875
1.8570556640625
1.8498046874999998
1.8417480468749998
1.7579589843749999
0.1119873046875
0.0394775390625
0.49064941406249996
0.5534912109375
1.1674072265625
1.7635986328125
2.421826171875
3.0462158203125
3.0462158203125
2.9970703125
2.4661376953125
2.0431640625
1.8473876953125
1.716064453125
1.6669189453125
1.3059814453124998
1.4139404296875
1.4252197265625
1.458251953125
1.4598632812499999
1.4518066406249999
2.244580078125
3.0462158203125
2.9156982421874997
2.592626953125
2.40087890625
1.719287109375
1.3462646484374998
0.037060546874999996
0.0394775390625
0.041088867187499996
0.30856933593749997
0.5099853515625
0.7919677734374999
1.0320556640625
1.353515625
1.716064453125
1.611328125
1.767626953125
1.574267578125
1.751513671875
1.7740722656249999
1.116650390625
0.040283203125
0.281982421875
0.6815917968749999
0.9603515625
1.4107177734374998
2.3662353515625
3.0429931640624996
3.0486328124999997
3.037353515625
2.5249511718749997
2.2494140625
1.74345703125
1.832080078125
1.7152587890625
1.67900390625
1.5944091796875
1.674169921875
1.4203857421875
1.4244140625
1.4437499999999999
1.4655029296875
3.0446044921874997
2.60712890625
2.560400390625
2.34287109375
1.706396484375
1.2205810546875
0.037060546874999996
0.0394775390625
0.0394775390625
0.24331054687499998
0.546240234375
0.8991210937499999
0.9933837890624999
1.4751708984374998
1.4244140625
1.5251220703125
1.7313720703125
1.7104248046875
1.7829345703125
1.6282470703124998
1.6862548828125
0.0394775390625
0.285205078125
0.7549072265625
0.8870361328124999
1.2181640624999999
1.828857421875
3.04541015625
3.0478271484375
2.9672607421875
2.6224365234375
2.2187988281249997
1.9456787109375
1.867529296875
1.7587646484375
1.7080078125
1.4920898437499999
1.5412353515625
1.4703369140625
1.4590576171874998
1.2342773437499999
1.4590576171874998
3.0470214843749996
3.04541015625
2.6296874999999997
2.408935546875
2.05927734375
1.477587890625
0.0394775390625
0.038671874999999994
0.03544921875
0.040283203125
0.6711181640624999
0.7726318359375
0.8741455078125
1.3092041015625
1.429248046875
1.6056884765625
1.7942138671874999
1.7611816406249998
1.828857421875
1.8175781249999998
1.740234375
0.041088867187499996
0.03544921875
0.6815917968749999
0.8282226562499999
1.2270263671875
1.9360107421875
3.0462158203125
3.0462158203125
3.04541015625
2.6143798828125
2.2171875
1.9811279296875
1.8304687499999999
1.6959228515625
1.7007568359374998
1.593603515625
1.545263671875
1.4550292968749998
1.49853515625
1.496923828125
1.4961181640624999
2.5853759765624997
3.0478271484375
2.6417724609374997
2.4846679687499997
2.0415527343749997
1.506591796875
0.90556640625
0.038671874999999994
0.038671874999999994
0.04189453125
0.3158203125
0.700927734375
0.8322509765624999
1.132763671875
1.3083984375
1.4590576171874998
1.6669189453125
1.7410400390624998
1.6129394531249999
1.7611816406249998
1.740234375
0.0394775390625
0.037060546874999996
0.597802734375
0.768603515625
0.9893554687499999
1.751513671875
2.367041015625
3.0486328124999997
3.0462158203125
3.0188232421874996
2.34931640625
2.0310791015625
1.8635009765625
1.7982421874999999
1.7088134765624998
1.33740234375
1.5968261718749999
1.4558349609374999
1.43408203125
1.4542236328125
1.5122314453124999
1.590380859375
3.043798828125
3.018017578125
2.4846679687499997
2.255859375
1.6620849609375
0.75087890625
0.0378662109375
0.043505859375
0.0378662109375
0.359326171875
0.604248046875
0.8548095703124999
1.11181640625
1.380908203125
1.4590576171874998
1.7845458984375
1.7982421874999999
1.8046875
1.8014648437499998
1.7096191406249999
1.6443603515624998
0.0362548828125
0.5422119140625
0.720263671875
1.003857421875
1.6781982421875
2.328369140625
3.04541015625
3.050244140625
2.785986328125
2.4524414062499997
2.144677734375
1.7901855468749999
1.764404296875
1.7595703125
1.5927978515624999
1.6363037109374998
1.5154541015624998
1.545263671875
1.5170654296875
1.3398193359375
1.5509033203125
3.0462158203125
2.8512451171874997
2.5587890625
2.2590820312499997
1.7748779296875
1.18916015625
0.037060546874999996
0.042700195312499994
0.043505859375
0.2280029296875
0.8362792968749999
0.8274169921875
0.968408203125
1.281005859375
1.4461669921875
1.4244140625
1.73056640625
1.7990478515625
1.8240234375
1.7208984374999998
1.6749755859375
0.0394775390625
0.193359375
0.5937744140625
0.9740478515625
1.3962158203125
1.843359375
3.043798828125
3.0470214843749996
2.898779296875
2.591015625
2.1793212890625
1.9472900390624999
1.8336914062499998
1.8489990234375
1.6830322265625
1.5331787109375
1.4630859374999998
1.493701171875
1.5017578125
1.5001464843749999
1.5138427734375
3.0421875
3.0446044921874997
2.582958984375
2.431494140625
2.018994140625
1.3849365234375
0.042700195312499994
0.038671874999999994
0.0394775390625
0.191748046875
0.5124023437499999
0.7355712890624999
0.9257080078125
1.316455078125
1.4671142578124998
1.6298583984375
1.896533203125
1.7684326171875
1.79501953125
1.7499023437499999
1.6491943359374999
0.0394775390625
0.042700195312499994
0.7371826171875
1.095703125
1.2745605468749999
1.843359375
2.6119628906249996
3.04541015625
3.0486328124999997
2.8190185546874997
2.34931640625
2.03994140625
1.8570556640625
1.658056640625
1.6693359374999999
1.6814208984374999
1.5146484375
1.4493896484375
1.474365234375
1.4832275390624998
1.47275390625
3.043798828125
3.0462158203125
2.5491210937499997
2.410546875
2.038330078125
1.5235107421874998
0.6147216796875
0.0394775390625
0.0394775390625
0.0515625
0.38510742187499997
0.7669921875
0.9240966796875
1.119873046875
1.3607666015625
1.2906738281249999
1.722509765625
1.76279296875
1.82080078125
1.791796875
1.7370117187499998
0.0362548828125
0.038671874999999994
0.6437255859375
0.9917724609374999
1.1939941406249999
1.7893798828124998
2.7521484375
3.0470214843749996
3.0429931640624996
2.7892089843749996
2.321923828125
2.199462890625
1.8989501953124999
1.7047851562499998
1.67578125
1.5895751953125
1.4671142578124998
1.6000488281249998
1.506591796875
1.5412353515625
1.5114257812499998
1.5033691406249998
3.0462158203125
2.6538574218749997
2.408935546875
2.2002685546875
1.5170654296875
0.9031494140624999
0.038671874999999994
0.042700195312499994
0.0394775390625
0.33757324218749996
0.61552734375
0.961962890625
1.1287353515625
1.3591552734374999
1.558154296875
1.6773925781249999
1.77890625
1.8167724609375
1.8038818359375
1.98515625
1.6854492187499999
0.0378662109375
0.5663818359375
0.7323486328125
1.0320556640625
1.5090087890625
2.112451171875
3.04541015625
3.0462158203125
2.81015625
2.4709716796875
1.9352050781249999
1.8369140625
1.9907958984374998
1.735400390625
1.6532226562499999
1.699951171875
1.4364990234375
1.4767822265625
1.2560302734375
1.5001464843749999
1.4953124999999998
3.0510498046874996
2.9302001953124996
2.5499267578125
2.189794921875
1.6524169921874998
1.44052734375
0.0394775390625
0.042700195312499994
0.040283203125
0.1941650390625
0.7863281249999999
0.8056640625
0.8886474609374999
1.2463623046874999
1.4171630859375
1.6443603515624998
1.5114257812499998
1.738623046875
1.7555419921875
1.7555419921875
1.6693359374999999
0.04189453125
0.06767578125
0.7323486328125
1.0658935546875
1.4848388671875
1.9384277343749998
3.04541015625
3.0446044921874997
3.0478271484375
2.5096435546875
2.225244140625
1.9432617187499999
1.79501953125
1.77568359375
1.7217041015624999
1.6524169921874998
1.4123291015625
1.5299560546875
1.5347900390625
1.513037109375
1.5186767578125
3.0486328124999997
3.0421875
2.441162109375
2.286474609375
1.85947265625
1.3825195312499998
0.037060546874999996
0.037060546874999996
0.0394775390625
0.15791015625
0.45842285156249996
0.8596435546875
0.9514892578124999
1.0594482421875
1.3502929687499998
1.6636962890625
1.7740722656249999
1.844970703125
1.8167724609375
1.7974365234374998
1.6524169921874998
0.040283203125
0.03544921875
0.7001220703125
0.926513671875
1.4010498046875
1.8280517578125
2.8899169921874996
3.0470214843749996
3.04541015625
2.6353271484375
1.9907958984374998
1.9166748046875
1.877197265625
1.6653076171874999
1.7047851562499998
1.7716552734375
1.529150390625
1.5194824218749998
1.72412109375
1.5444580078124999
1.4928955078125
3.0470214843749996
3.0510498046874996
2.602294921875
2.4806396484374997
2.0794189453125
1.5565429687499999
0.4761474609375
0.038671874999999994
0.0394775390625
0.20625
0.476953125
0.7541015624999999
0.9240966796875
1.216552734375
1.393798828125
1.4606689453125
1.6935058593749999
1.7281494140625
1.7555419921875
1.7257324218749999
1.6935058593749999
0.040283203125
0.040283203125
0.67998046875
0.961962890625
1.164990234375
1.8296630859374998
2.6232421875
3.0462158203125
3.04541015625
2.634521484375
2.3138671875
2.067333984375
1.819189453125
1.7184814453125
1.69833984375
1.7571533203124998
1.46630859375
1.4912841796874998
1.4840332031249999
1.5041748046874999
1.7499023437499999
1.5162597656249999
3.043798828125
2.650634765625
2.386376953125
2.096337890625
1.3212890625
0.9998291015624999
0.037060546874999996
0.0362548828125
0.0394775390625
0.3150146484375
0.597802734375
0.8322509765624999
1.103759765625
1.3599609375
1.7039794921875
1.7539306640624999
1.786962890625
1.8344970703124999
1.7088134765624998
1.6508056640625
0.3988037109375
0.04189453125
0.5663818359375
0.6670898437499999
1.134375
1.6894775390624999
2.0012695312499997
3.043798828125
3.0421875
2.66513671875
2.3742919921875
2.3162841796875
1.82724609375
1.791796875
1.7337890624999999
1.6556396484375
1.6185791015625
1.2616699218749998
1.4961181640624999
1.4397216796874999
1.4783935546875
1.46630859375
3.043798828125
3.0099609375
2.389599609375
2.270361328125
1.9166748046875
1.152099609375
0.0394775390625
0.0394775390625
0.0378662109375
0.246533203125
0.580078125
0.8596435546875
1.0530029296874999
1.303564453125
1.5557373046874998
1.554931640625
1.7934082031249998
1.7748779296875
1.79501953125
1.7652099609374998
1.5218994140625
0.041088867187499996
0.5043457031249999
0.8266113281249999
0.9692138671874999
1.5750732421875
1.948095703125
3.04541015625
3.0462158203125
2.7996826171875
2.4790283203124996
2.1704589843749997
1.8868652343749999
1.819189453125
1.7265380859375
1.6379150390625
1.4413330078125
1.4880615234374999
1.5895751953125
1.4977294921875
1.538818359375
1.461474609375
3.04541015625
3.0470214843749996
2.4935302734375
2.281640625
2.0625
1.4638916015624999
0.420556640625
0.040283203125
0.0394775390625
0.16274414062499998
0.6340576171875
0.7798828124999999
0.952294921875
1.316455078125
1.5122314453124999
1.6540283203125
1.7595703125
1.7370117187499998
1.7184814453125
1.7168701171874998
1.6153564453125
0.040283203125
0.040283203125
0.708984375
0.9353759765624999
1.3543212890624998
1.8312744140625
3.0478271484375
3.0421875
3.0494384765625
2.6143798828125
2.2292724609375
1.9593749999999999
1.80791015625
1.7466796875
1.6862548828125
1.7507080078125
1.480810546875
1.405078125
1.4606689453125
1.496923828125
1.48564453125
2.8625244140625
3.0486328124999997
2.5080322265625
2.344482421875
2.1277587890625
1.4244140625
0.436669921875
0.0378662109375
0.037060546874999996
0.1152099609375
0.439892578125
0.7412109375
1.1174560546874999
1.264892578125
1.429248046875
1.50498046875
1.6886718749999998
1.740234375
1.748291015625
1.7370117187499998
1.738623046875
0.391552734375
0.040283203125
0.6654785156249999
0.974853515625
1.2334716796875
1.7426513671875
2.3130615234375
3.0478271484375
3.0470214843749996
2.5152832031249996
2.3638183593749997
1.9553466796874999
1.8240234375
1.748291015625
1.7096191406249999
1.5541259765625
1.29228515625
1.5162597656249999
1.546875
1.5533203125
1.538818359375
2.0794189453125
3.050244140625
2.666748046875
2.34287109375
2.1535400390625
1.60166015625
1.087646484375
0.0394775390625
0.040283203125
0.0394775390625
0.394775390625
0.7355712890624999
0.7855224609375
1.068310546875
1.6298583984375
1.6443603515624998
1.5525146484374999
1.7362060546875
1.7466796875
1.7265380859375
1.6508056640625
1.1778808593749999
0.0394775390625
0.4970947265625
0.8838134765625
1.1561279296875
1.574267578125
2.196240234375
3.04541015625
3.0494384765625
2.8149902343749997
2.3904052734375
2.309033203125
1.8683349609375
1.7233154296875
1.6298583984375
1.6443603515624998
1.5815185546875
1.384130859375
1.5396240234374998
1.542041015625
1.509814453125
1.5396240234374998
3.0462158203125
2.6377441406249997
2.457275390625
2.3114501953124997
1.6645019531249998
1.271337890625
0.038671874999999994
0.040283203125
0.040283203125
0.2344482421875
0.5325439453124999
0.9257080078125
1.0884521484375
1.1545166015625
1.529150390625
1.5686279296874999
1.7055908203124999
1.69189453125
1.6975341796874999
1.587158203125
1.5831298828125
0.041088867187499996
0.2908447265625
0.7822998046874999
0.9474609374999999
1.5001464843749999
1.9053955078125
3.0486328124999997
3.0462158203125
2.8955566406249997
2.521728515625
2.1503173828124997
1.9215087890625
1.8135498046874998
1.6209960937499999
1.719287109375
1.5750732421875
1.5645996093749999
1.5162597656249999
1.6363037109374998
1.4751708984374998
1.4888671875
3.04541015625
3.0421875
2.5007812499999997
2.0657226562499997
1.8989501953124999
1.432470703125
0.03544921875
0.037060546874999996
0.0362548828125
0.1345458984375
0.42136230468749997
0.8290283203125
0.968408203125
1.3599609375
1.4501953125
1.7337890624999999
1.7571533203124998
1.7458740234374999
1.7217041015624999
1.72734375
1.6572509765624999
0.0394775390625
0.040283203125
0.7500732421874999
0.9128173828124999
1.2850341796875
1.8586669921874999
2.8552734374999997
3.0462158203125
3.043798828125
2.6296874999999997
2.222021484375
1.9360107421875
1.80791015625
1.6209960937499999
1.6781982421875
1.509814453125
1.4671142578124998
1.4477783203124999
1.6242187499999998
1.5428466796875
1.4832275390624998
2.1374267578125
3.043798828125
2.5612060546874997
2.505615234375
1.998046875
1.50498046875
0.8000244140624999
0.038671874999999994
0.037060546874999996
0.1248779296875
0.46164550781249997
0.8564208984374999
0.984521484375
1.219775390625
1.42119140625
1.4107177734374998
1.7345947265625
1.8248291015625
1.7901855468749999
1.791796875
1.7378173828124999
0.040283203125
0.0394775390625
0.7702148437499999
0.7806884765625
1.197216796875
1.6894775390624999
2.2840576171875
3.04541015625
3.0462158203125
2.6675537109375
2.2179931640625
1.9521240234375
1.8312744140625
1.8143554687499999
1.7571533203124998
1.5275390624999998
1.5404296874999999
1.4759765624999999
1.4606689453125
1.4284423828125
1.4437499999999999
1.5670166015625
3.0470214843749996
2.7183105468749997
2.325146484375
2.151123046875
1.7426513671875
0.9740478515625
0.040283203125
0.037060546874999996
0.0362548828125
0.3714111328125
0.7597412109374999
0.95068359375
1.2576416015624998
1.4300537109375
1.4953124999999998
1.6781982421875
1.6935058593749999
1.7281494140625
1.7281494140625
1.6854492187499999
1.545263671875
0.040283203125
0.6517822265625
0.8515869140625
0.9095947265625
1.7136474609374999
2.2324951171875
3.0446044921874997
3.0421875
2.771484375
2.52978515625
2.101171875
1.8183837890624999
1.780517578125
