0.0394775390625
0.041088867187499996
0.041088867187499996
0.1941650390625
0.5083740234374999
0.78310546875
0.9788818359375
1.3575439453125
1.461474609375
1.6572509765624999
1.7571533203124998
1.799853515625
1.7958251953125
1.7587646484375
1.667724609375
0.041088867187499996
0.043505859375
0.668701171875
0.8757568359375
1.4389160156249998
1.8973388671875
3.0478271484375
3.0494384765625
3.029296875
2.65869140625
2.2937255859375
1.8925048828125
1.815966796875
1.6701416015625
1.6040771484374998
1.6129394531249999
1.4638916015624999
1.490478515625
1.5509033203125
1.5194824218749998
1.52109375
3.0478271484375
3.0446044921874997
2.62646484375
2.4274658203125
2.0294677734374997
1.4711425781249998
0.8991210937499999
0.040283203125
0.041088867187499996
0.061230468749999996
0.4833984375
0.784716796875
0.9482666015625
1.1206787109375
1.4139404296875
1.4622802734375
1.65
1.7797119140625
1.8062988281249999
1.7861572265624999
1.7587646484375
0.04189453125
0.041088867187499996
0.636474609375
0.9837158203124999
1.2560302734375
1.7660156249999999
3.0470214843749996
3.0470214843749996
3.0486328124999997
2.5708740234375
2.254248046875
2.002880859375
1.8038818359375
1.699951171875
1.714453125
1.658056640625
1.458251953125
1.4791992187499998
1.4542236328125
1.4888671875
1.4872558593749998
1.525927734375
3.0470214843749996
2.631298828125
2.4274658203125
2.2171875
1.5202880859374999
0.9353759765624999
0.042700195312499994
0.037060546874999996
0.042700195312499994
0.30615234375
0.6123046875
0.9112060546874999
1.119873046875
1.3349853515624999
1.4993408203124998
1.7611816406249998
1.7668212890625
1.7587646484375
1.683837890625
1.6991455078125
1.6685302734374998
0.041088867187499996
0.6372802734374999
0.8958984375
1.1786865234375
1.7893798828124998
2.1422607421874997
3.0510498046874996
3.0486328124999997
2.76181640625
2.4121582031249997
2.0012695312499997
1.7740722656249999
1.71123046875
1.7096191406249999
1.6669189453125
1.6749755859375
1.53076171875
1.490478515625
1.4953124999999998
1.4469726562499998
1.4703369140625
3.0494384765625
2.969677734375
2.5491210937499997
2.3315917968749997
1.8957275390625
1.3833251953124999
0.041088867187499996
0.041088867187499996
0.040283203125
0.0580078125
0.6332519531249999
0.9087890624999999
0.9861328125
1.3333740234375
1.48564453125
1.6330810546874999
1.7724609375
1.767626953125
1.819189453125
1.799853515625
1.7023681640625
0.041088867187499996
0.040283203125
0.8435302734375
0.9917724609374999
1.4228027343749998
1.912646484375
3.04541015625
3.0462158203125
2.9527587890625
2.4661376953125
2.12373046875
1.8763916015625
1.8022705078124999
1.6886718749999998
1.654833984375
1.4574462890625
1.529150390625
1.5017578125
1.5218994140625
1.513037109375
1.5106201171875
3.0494384765625
3.0462158203125
2.502392578125
2.3759033203124997
1.9142578124999998
1.4268310546874998
0.20061035156249998
0.042700195312499994
0.042700195312499994
0.15227050781249998
0.47453613281249996
0.7927734375
0.9015380859375
1.235888671875
1.4195800781249999
1.6886718749999998
1.7176757812499999
1.7764892578125
1.7845458984375
1.738623046875
1.6620849609375
0.040283203125
0.040283203125
0.655810546875
0.91201171875
1.4477783203124999
1.8667236328124999
2.4967529296874997
3.0462158203125
3.0470214843749996
2.6192138671875
2.196240234375
1.9271484374999999
1.7700439453124999
1.8175781249999998
1.683837890625
1.8054931640624998
1.5114257812499998
1.5057861328125
1.480810546875
1.4848388671875
1.4735595703125
2.95517578125
3.050244140625
2.6466064453125
2.44599609375
2.0778076171874997
1.49853515625
0.343212890625
0.0362548828125
0.045117187499999996
0.130517578125
0.468896484375
0.7968017578125
0.9635742187499999
1.2447509765625
1.4558349609374999
1.6604736328124998
1.732177734375
1.72734375
1.7176757812499999
1.7015624999999999
1.6846435546874998
0.3802734375
0.0378662109375
0.6388916015624999
0.8660888671875
1.1859374999999999
1.7901855468749999
2.286474609375
3.0429931640624996
3.04541015625
2.715087890625
2.3646240234375
2.05927734375
1.7958251953125
1.754736328125
1.6814208984374999
1.5815185546875
1.4880615234374999
1.464697265625
1.5412353515625
1.5154541015624998
1.4872558593749998
1.4953124999999998
3.0470214843749996
2.6691650390625
2.4846679687499997
2.357373046875
1.6218017578125
1.06025390625
0.0394775390625
0.04189453125
0.04189453125
0.3279052734375
0.7355712890624999
0.978076171875
1.1142333984375
1.3365966796875
1.58232421875
1.5299560546875
1.6121337890624998
1.7797119140625
1.7821289062499999
1.7426513671875
1.074755859375
0.041088867187499996
0.46164550781249997
0.82177734375
1.1255126953124999
1.6072998046875
1.9279541015625
3.0470214843749996
3.0462158203125
2.8230468749999997
2.3340087890625
2.03671875
1.8232177734375
1.8393310546875
1.6693359374999999
1.6773925781249999
1.4920898437499999
1.4461669921875
1.464697265625
1.4993408203124998
1.4638916015624999
1.5146484375
3.0446044921874997
3.0478271484375
2.544287109375
2.29775390625
1.8941162109374998
1.2858398437499998
0.041088867187499996
0.040283203125
0.041088867187499996
0.2811767578125
0.5631591796875
0.829833984375
1.0143310546875
1.3349853515624999
1.4840332031249999
1.5960205078124998
1.7313720703125
1.7531249999999998
1.7764892578125
1.767626953125
1.7128417968749998
0.038671874999999994
0.330322265625
0.8177490234375
0.9917724609374999
1.4920898437499999
1.9013671875
3.0478271484375
3.0470214843749996
2.8311035156249997
2.4645263671874997
2.10439453125
1.8683349609375
1.8006591796875
1.52109375
1.6733642578124999
1.56943359375
1.5355957031249998
1.4735595703125
1.4848388671875
1.5017578125
1.4187744140624998
3.0486328124999997
3.0470214843749996
2.5475097656249996
2.3614013671875
1.9360107421875
1.4332763671875
0.21269531249999998
0.0443115234375
0.0394775390625
0.15146484375
0.555908203125
0.8483642578124999
0.9643798828125
1.171435546875
1.416357421875
1.4526123046875
1.69833984375
1.812744140625
1.8071044921875
1.7700439453124999
1.7128417968749998
0.0443115234375
0.04189453125
0.6517822265625
0.97646484375
1.3108154296874999
1.815966796875
3.0486328124999997
3.0494384765625
2.9382568359374996
2.4927246093749997
2.13662109375
1.8860595703124998
1.7555419921875
1.6137451171875
1.6733642578124999
1.5186767578125
1.5484863281249999
1.5428466796875
1.5533203125
1.5380126953125
1.5235107421874998
2.023828125
3.0486328124999997
2.5515380859374996
2.34609375
2.164013671875
1.4687255859375
0.2618408203125
0.043505859375
0.0443115234375
0.11923828125
0.4519775390625
0.8314453125
0.978076171875
1.184326171875
1.4364990234375
1.40830078125
1.722509765625
1.8546386718749999
1.7909912109375
1.7378173828124999
1.699951171875
1.1158447265625
0.040283203125
0.6018310546875
0.8443359374999999
1.2431396484375
1.7877685546875
2.3372314453125
3.043798828125
3.0462158203125
2.6482177734374996
2.3098388671875
1.9682373046875
1.7813232421874998
1.764404296875
1.72734375
1.5557373046874998
1.58232421875
1.482421875
1.5025634765625
1.4558349609374999
1.48564453125
1.5364013671874999
3.050244140625
2.7416748046875
2.3775146484375
2.215576171875
1.6830322265625
1.2753662109375
0.1039306640625
0.041088867187499996
0.040283203125
0.33676757812499997
0.6590332031249999
0.8967041015624999
0.9692138671874999
1.3752685546874999
1.5073974609374998
1.5879638671874998
1.719287109375
1.7499023437499999
1.8111328125
1.7934082031249998
1.6636962890625
0.041088867187499996
0.30051269531249997
0.75732421875
1.1206787109375
1.5114257812499998
2.1615966796875
3.0470214843749996
3.04541015625
2.6675537109375
2.3050048828125
2.0343017578125
1.7901855468749999
1.751513671875
1.69833984375
1.683837890625
1.7047851562499998
1.4953124999999998
1.48564453125
1.480810546875
1.4783935546875
1.5525146484374999
3.04541015625
2.8697753906249996
2.5692626953124997
2.3477050781249997
1.8135498046874998
1.4413330078125
0.040283203125
0.043505859375
0.040283203125
0.2505615234375
0.5929687499999999
0.9812988281249999
1.0812011718749999
1.3639892578125
1.4920898437499999
1.5976318359375
1.71123046875
1.7507080078125
1.6951171875
1.6564453124999998
1.6653076171874999
0.041088867187499996
0.1740234375
0.889453125
1.0731445312499999
1.4719482421874999
1.8546386718749999
3.0478271484375
3.04541015625
2.9455078125
2.5813476562499997
2.1100341796874997
1.88525390625
1.78857421875
1.6612792968749999
1.6540283203125
1.5807128906249999
1.5186767578125
1.5033691406249998
1.522705078125
1.5283447265624999
1.5573486328125
3.0486328124999997
3.043798828125
2.5088378906249997
2.3791259765625
1.977099609375
1.4518066406249999
0.31743164062499996
0.041088867187499996
0.038671874999999994
0.1877197265625
0.5277099609375
0.8129150390625
1.0046630859374999
1.3083984375
1.4356933593749999
1.345458984375
1.7168701171874998
1.748291015625
1.7853515624999998
1.714453125
1.6822265625
0.04189453125
0.04189453125
0.684814453125
0.968408203125
1.2955078125
1.88525390625
2.7175048828125
3.0429931640624996
3.0421875
2.46533203125
2.2880859375
1.998046875
1.8062988281249999
1.7080078125
1.6927001953124998
1.7934082031249998
1.46953125
1.4606689453125
1.4630859374999998
1.4791992187499998
1.5589599609375
1.5484863281249999
3.0486328124999997
2.5805419921875
2.328369140625
2.0415527343749997
1.5033691406249998
0.726708984375
0.061230468749999996
0.0378662109375
0.04833984375
0.3585205078125
0.7798828124999999
0.9659912109375
1.1698242187499999
1.3470703124999999
1.545263671875
1.7039794921875
1.6645019531249998
1.7055908203124999
1.7055908203124999
1.6886718749999998
0.038671874999999994
0.040283203125
0.5824951171875
0.807275390625
1.184326171875
1.6951171875
2.099560546875
3.0486328124999997
3.0470214843749996
2.7287841796874996
2.3130615234375
2.035107421875
1.8522216796875
1.7635986328125
1.6943115234375
1.662890625
1.738623046875
1.4945068359375
1.5202880859374999
1.50498046875
1.5267333984375
1.6435546875
3.0470214843749996
2.8359375
2.3936279296875
2.2026855468749997
1.738623046875
0.79921875
0.1200439453125
0.037060546874999996
0.0443115234375
0.38188476562499996
0.671923828125
0.9313476562499999
1.090869140625
1.37607421875
1.5396240234374998
1.6685302734374998
1.8022705078124999
1.7700439453124999
1.7458740234374999
1.6935058593749999
1.6395263671875
0.041088867187499996
0.53818359375
0.7863281249999999
1.044140625
1.6451660156249999
1.998046875
3.0494384765625
3.0421875
2.7545654296874997
2.431494140625
2.1068115234375
1.8409423828125
1.7813232421874998
1.6910888671875
1.6435546875
1.5202880859374999
1.51787109375
1.496923828125
1.51787109375
1.5138427734375
1.5114257812499998
3.0478271484375
3.021240234375
2.4999755859375
2.24619140625
1.8498046874999998
1.3954101562499999
0.1780517578125
0.040283203125
0.041088867187499996
0.18449707031249998
0.5873291015625
0.910400390625
1.039306640625
1.3664062499999998
1.4945068359375
1.6935058593749999
1.7539306640624999
1.7926025390625
1.7184814453125
1.6733642578124999
1.6129394531249999
0.041088867187499996
0.0362548828125
0.6993164062499999
1.0570312499999999
1.3801025390625
1.877197265625
3.0478271484375
3.0446044921874997
3.0389648437499996
2.6232421875
2.193017578125
1.9666259765624998
1.8361083984375
1.791796875
1.716064453125
1.8175781249999998
1.4800048828124999
1.4783935546875
1.4783935546875
1.4800048828124999
1.4671142578124998
3.0486328124999997
3.0478271484375
2.591015625
2.4629150390625
2.047998046875
1.3736572265625
0.22075195312499998
0.040283203125
0.0443115234375
0.1538818359375
0.4729248046875
0.7806884765625
0.9627685546875
1.27294921875
1.409912109375
1.6846435546874998
1.714453125
1.7466796875
1.7313720703125
1.6910888671875
1.6620849609375
0.0394775390625
0.0362548828125
0.6469482421874999
0.8789794921874999
1.340625
1.8361083984375
2.3694580078125
3.04541015625
3.0470214843749996
2.6562744140624996
2.29453125
1.9569580078125
1.7909912109375
1.7096191406249999
1.687060546875
1.6620849609375
1.464697265625
1.49853515625
1.4783935546875
1.4848388671875
1.474365234375
2.4822509765625
3.0470214843749996
2.6135742187499997
2.3759033203124997
2.1325927734375
1.574267578125
0.990966796875
0.040283203125
0.0378662109375
0.041088867187499996
0.47856445312499996
0.7702148437499999
0.97646484375
1.24716796875
1.4389160156249998
1.7168701171874998
1.60166015625
1.7853515624999998
1.7853515624999998
1.7466796875
1.6854492187499999
0.678369140625
0.043505859375
0.5285156249999999
0.9087890624999999
1.19560546875
1.619384765625
2.254248046875
3.0462158203125
3.0486328124999997
2.6619140624999997
2.2614990234375
1.9916015624999999
1.7797119140625
1.7080078125
1.66611328125
1.651611328125
1.53076171875
1.529150390625
1.4912841796874998
1.522705078125
1.5557373046874998
1.52109375
3.0470214843749996
2.6788330078125
2.502392578125
2.2695556640625
1.61455078125
1.1416259765624999
0.041088867187499996
0.041088867187499996
0.0394775390625
0.32951660156249996
0.578466796875
0.9571289062499999
1.14404296875
1.3664062499999998
1.5315673828124998
1.55009765625
1.799853515625
1.770849609375
1.7362060546875
1.719287109375
1.651611328125
0.045117187499999996
0.388330078125
0.8403076171874999
1.1053710937499999
1.533984375
1.9247314453125
3.0486328124999997
3.0470214843749996
2.8738037109374996
2.5418701171875
2.167236328125
1.9392333984374999
1.8087158203125
1.703173828125
1.6451660156249999
1.46630859375
1.56943359375
1.4638916015624999
1.4783935546875
1.4945068359375
1.5090087890625
3.04541015625
3.0486328124999997
2.5273681640624996
2.286474609375
1.8739746093749998
1.409912109375
0.053173828124999996
0.043505859375
0.040283203125
0.28359375
0.6066650390625
0.8926757812499999
0.9933837890624999
1.3422363281249998
1.4469726562499998
1.6040771484374998
1.7716552734375
1.7934082031249998
1.7684326171875
1.71123046875
1.65
0.0378662109375
0.0443115234375
0.7452392578125
0.9514892578124999
1.297119140625
1.851416015625
3.0462158203125
3.0470214843749996
2.9503417968749996
2.6063232421875
2.244580078125
1.948095703125
1.783740234375
1.625830078125
1.638720703125
1.5235107421874998
1.5186767578125
1.52109375
1.5525146484374999
1.5154541015624998
1.5138427734375
2.4806396484374997
3.050244140625
2.5547607421875
2.4049072265625
1.920703125
1.42119140625
0.7734375
0.040283203125
0.0394775390625
0.13212890624999998
0.45358886718749997
0.8314453125
1.0094970703125
1.2342773437499999
1.4574462890625
1.490478515625
1.7039794921875
1.7748779296875
1.799853515625
1.6604736328124998
1.7007568359374998
0.040283203125
0.0394775390625
0.6356689453125
0.9192626953124999
1.3027587890624999
1.6363037109374998
2.2494140625
3.04541015625
3.04541015625
2.65546875
2.2099365234375
1.8941162109374998
1.7700439453124999
1.6475830078125
1.7168701171874998
1.5758789062499998
1.5750732421875
1.493701171875
1.5299560546875
1.5315673828124998
1.5275390624999998
1.7772949218749998
3.0462158203125
2.5998779296874996
2.3984619140625
2.199462890625
1.5380126953125
0.871728515625
0.041088867187499996
0.041088867187499996
0.043505859375
0.38913574218749997
0.6670898437499999
0.8386962890624999
1.2238037109375
1.4276367187499999
1.5726562499999999
1.7410400390624998
1.783740234375
1.7619873046874999
1.7152587890625
1.6806152343749998
1.4526123046875
0.038671874999999994
0.6227783203124999
0.8080810546874999
1.1134277343749999
1.7652099609374998
2.2598876953125
3.0494384765625
3.0494384765625
2.76181640625
2.3920166015624997
2.0826416015625
1.8054931640624998
1.7772949218749998
1.7233154296875
1.6411376953124999
1.7128417968749998
1.6508056640625
1.4800048828124999
1.4687255859375
1.4574462890625
1.4816162109375
3.0470214843749996
2.6135742187499997
2.5128662109374997
2.1535400390625
1.662890625
1.2979248046874998
0.041088867187499996
0.041088867187499996
0.041088867187499996
0.28842773437499997
0.69287109375
0.98291015625
1.09248046875
1.4203857421875
1.5355957031249998
1.5404296874999999
1.69833984375
1.7668212890625
1.7539306640624999
1.7265380859375
1.6427490234375
0.041088867187499996
0.20302734374999998
0.8185546874999999
1.0336669921875
1.3921875
1.8103271484374999
3.0486328124999997
3.0462158203125
2.905224609375
2.4081298828124997
2.0818359374999997
1.8377197265624998
1.74345703125
1.6612792968749999
1.6250244140624999
1.4501953125
1.5122314453124999
1.5202880859374999
1.5235107421874998
1.558154296875
1.5412353515625
3.04541015625
2.91328125
2.5177001953125
2.3235351562499997
2.002880859375
1.380908203125
0.15791015625
0.040283203125
0.0378662109375
0.22075195312499998
0.5551025390625
0.9160400390625
0.990966796875
1.3849365234375
1.4590576171874998
1.6379150390625
1.7499023437499999
1.7684326171875
1.77890625
1.6967285156249998
1.7289550781249998
0.04189453125
0.050756835937499994
0.7178466796874999
0.87978515625
1.4187744140624998
1.9714599609374999
2.8673583984374997
3.0470214843749996
2.9978759765625
2.5813476562499997
2.2292724609375
1.909423828125
1.8087158203125
1.7176757812499999
1.6951171875
1.7088134765624998
1.4993408203124998
1.4953124999999998
1.4872558593749998
1.493701171875
1.5082031249999999
3.0470214843749996
3.0470214843749996
2.576513671875
2.3678466796874997
1.9891845703125
1.4864501953125
0.14501953125
0.0443115234375
0.038671874999999994
0.0652587890625
0.5003173828124999
0.7798828124999999
0.9490722656249999
1.30517578125
1.432470703125
1.46630859375
1.7152587890625
1.735400390625
1.7458740234374999
1.73056640625
1.6894775390624999
0.0394775390625
0.0443115234375
0.6936767578124999
0.8902587890625
1.2109130859375
1.76279296875
2.4202148437499997
3.0478271484375
3.0462158203125
2.6699707031249997
2.3009765625
2.0439697265625
1.7974365234374998
1.740234375
1.690283203125
1.641943359375
1.4630859374999998
1.4783935546875
1.4687255859375
1.46953125
1.4751708984374998
1.5017578125
3.0462158203125
2.5797363281249996
2.341259765625
2.1422607421874997
1.493701171875
0.9394042968749999
0.040283203125
0.04189453125
0.133740234375
0.40605468749999996
0.7162353515625
0.9893554687499999
1.1786865234375
1.3720458984375
1.6346923828125
1.6814208984374999
1.8167724609375
1.77890625
1.72412109375
1.6935058593749999
1.6371093749999999
0.041088867187499996
0.5905517578125
0.8064697265624999
1.1408203125
1.641943359375
2.012548828125
3.0462158203125
3.0470214843749996
2.7610107421874996
2.3936279296875
2.006103515625
1.8393310546875
1.7619873046874999
1.7047851562499998
1.6765869140624998
1.6322753906249998
1.5114257812499998
1.506591796875
1.5355957031249998
1.5275390624999998
1.5090087890625
3.0486328124999997
2.931005859375
2.42666015625
2.230078125
1.8143554687499999
1.0836181640625
0.040283203125
0.04189453125
0.038671874999999994
0.3714111328125
0.639697265625
0.9257080078125
1.1134277343749999
1.3639892578125
1.5218994140625
1.6733642578124999
1.8103271484374999
1.8038818359375
1.7611816406249998
1.7120361328125
1.6395263671875
0.042700195312499994
0.5526855468749999
0.8701171875
1.0465576171875
1.4477783203124999
2.0133544921874997
3.043798828125
3.0470214843749996
2.7892089843749996
2.437939453125
2.1164794921875
1.6894775390624999
1.7893798828124998
1.7072021484375
1.6403320312499998
1.5323730468749999
1.4735595703125
1.4638916015624999
1.2963134765625
1.4679199218749999
1.4791992187499998
3.0462158203125
3.0446044921874997
2.5193115234374996
2.357373046875
1.8425537109374999
1.3607666015625
0.201416015625
0.0394775390625
0.040283203125
0.13857421875
0.580078125
0.8644775390624999
1.0014404296875
1.316455078125
1.5001464843749999
1.7313720703125
1.6927001953124998
1.7257324218749999
1.7466796875
1.7208984374999998
1.6765869140624998
0.041088867187499996
0.0443115234375
0.6670898437499999
0.9571289062499999
1.426025390625
1.8667236328124999
3.0429931640624996
3.0478271484375
3.0470214843749996
2.6377441406249997
2.167236328125
1.9295654296875
1.77890625
1.6943115234375
1.66611328125
1.7982421874999999
1.5331787109375
1.5041748046874999
1.52109375
1.4977294921875
1.506591796875
2.9712890625
3.0486328124999997
2.487890625
2.3533447265625
2.0625
1.4010498046875
0.6227783203124999
0.037060546874999996
0.04189453125
0.301318359375
0.4874267578125
0.7943847656249999
1.0014404296875
1.3212890625
1.458251953125
1.5412353515625
1.7184814453125
1.767626953125
1.7619873046874999
1.7249267578124998
1.6822265625
0.19899902343749998
0.040283203125
0.6775634765624999
0.97001953125
1.24716796875
1.89169921875
2.4000732421874997
3.0446044921874997
3.0478271484375
2.650634765625
2.2808349609375
1.920703125
1.7595703125
1.7120361328125
1.6572509765624999
1.5146484375
1.45341796875
1.477587890625
1.4912841796874998
1.5041748046874999
1.52109375
2.176904296875
3.04541015625
2.6627197265625
2.4661376953125
2.1543457031249997
1.538818359375
1.0948974609375
0.040283203125
0.043505859375
0.038671874999999994
0.3714111328125
0.749267578125
0.9571289062499999
1.181103515625
1.47275390625
1.6781982421875
1.574267578125
1.6806152343749998
1.7007568359374998
1.7168701171874998
1.7184814453125
1.1416259765624999
0.041088867187499996
0.44553222656249997
0.7774658203125
1.1021484375
1.5911865234375
2.3195068359374997
3.0462158203125
3.050244140625
2.8270751953124997
2.3638183593749997
2.08505859375
1.877197265625
1.8175781249999998
1.6975341796874999
1.687060546875
1.6282470703124998
1.4461669921875
1.448583984375
1.340625
1.482421875
1.4880615234374999
3.0462158203125
2.719921875
2.5265625
2.2107421874999997
1.6081054687499998
1.2254150390625
0.058813476562499994
0.042700195312499994
0.0443115234375
0.246533203125
0.5583251953125
0.958740234375
1.0731445312499999
1.34384765625
1.545263671875
1.6403320312499998
1.7055908203124999
1.7015624999999999
1.703173828125
1.6725585937499998
1.6209960937499999
0.037060546874999996
0.3359619140625
0.8435302734375
0.97646484375
1.5073974609374998
1.8538330078124998
3.0470214843749996
3.04541015625
2.9189208984375
2.55234375
2.101171875
1.8393310546875
1.7772949218749998
1.6475830078125
1.6604736328124998
1.5605712890624999
1.533984375
1.5090087890625
1.52109375
1.5057861328125
1.513037109375
3.043798828125
3.0478271484375
2.513671875
2.286474609375
1.861083984375
1.3905761718749998
0.041088867187499996
0.041088867187499996
0.0394775390625
0.1619384765625
0.6485595703125
0.945849609375
1.06669921875
1.3575439453125
1.4590576171874998
1.5509033203125
1.7579589843749999
1.72734375
1.7120361328125
1.72734375
1.6540283203125
0.040283203125
0.041088867187499996
0.7951904296875
0.9643798828125
1.3309570312499999
1.7619873046874999
3.0446044921874997
3.050244140625
3.0470214843749996
2.62646484375
2.2429687499999997
1.9472900390624999
1.8014648437499998
1.651611328125
1.6773925781249999
1.5807128906249999
1.538818359375
1.5186767578125
1.5114257812499998
1.4912841796874998
1.4840332031249999
2.1221191406249997
3.0510498046874996
2.5555664062499996
2.3243408203125
1.8981445312499998
1.42119140625
0.8612548828125
0.040283203125
0.041088867187499996
0.1345458984375
0.4318359375
0.80888671875
0.9982177734375
1.2318603515625
1.4630859374999998
1.4501953125
1.7055908203124999
1.7668212890625
1.7499023437499999
1.7217041015624999
1.6645019531249998
0.041088867187499996
0.042700195312499994
0.64775390625
0.7879394531249999
1.22783203125
1.7853515624999998
2.3098388671875
3.0486328124999997
3.0486328124999997
2.6885009765624996
2.254248046875
1.9698486328125
1.7861572265624999
1.7926025390625
1.703173828125
1.546875
1.6572509765624999
1.4848388671875
1.4751708984374998
1.4888671875
1.4880615234374999
1.5863525390625
3.0462158203125
2.663525390625
2.3549560546875
2.1543457031249997
1.6282470703124998
0.8515869140625
0.041088867187499996
0.041088867187499996
0.03544921875
0.439892578125
0.6598388671875
1.0046630859374999
1.2495849609374998
1.413134765625
1.5380126953125
1.8006591796875
1.764404296875
1.7861572265624999
1.767626953125
1.6975341796874999
1.6081054687499998
0.041088867187499996
0.5889404296874999
0.7114013671874999
1.0884521484375
1.7233154296875
2.1567626953125
3.04541015625
3.0462158203125
2.7545654296874997
2.4032958984375
2.1140624999999997
1.8071044921875
1.699951171875
1.6411376953124999
1.6435546875
1.6427490234375
1.5114257812499998
1.5202880859374999
1.5057861328125
1.5251220703125
1.5533203125
3.0478271484375
2.8037109375
2.5112548828124996
2.199462890625
1.7233154296875
1.3341796874999998
0.0443115234375
0.040283203125
0.040283203125
0.27392578125
0.6832031249999999
0.9410156249999999
1.0771728515624999
1.3865478515624998
1.5235107421874998
1.587158203125
1.764404296875
1.7635986328125
1.7507080078125
1.722509765625
1.6371093749999999
0.0394775390625
0.230419921875
0.760546875
1.007080078125
1.4115234374999999
1.8103271484374999
3.0470214843749996
3.0429931640624996
2.96162109375
2.4274658203125
2.1229248046875
1.8780029296874998
1.78857421875
1.6951171875
1.5460693359375
1.6508056640625
1.5114257812499998
1.5243164062499999
1.5186767578125
1.5082031249999999
1.5218994140625
3.0486328124999997
3.0268798828124996
2.47822265625
2.3356201171874997
1.9352050781249999
1.3857421875
0.14824218749999998
0.0394775390625
0.041088867187499996
0.2038330078125
0.5228759765625
0.8282226562499999
1.026416015625
1.3712402343749999
1.4501953125
1.740234375
1.690283203125
1.7329833984374998
1.7249267578124998
1.7176757812499999
1.6604736328124998
0.041088867187499996
0.041088867187499996
0.7404052734375
0.9063720703125
1.4348876953124998
1.8393310546875
2.4741943359375
3.0462158203125
3.0478271484375
2.65869140625
2.2776123046875
1.931982421875
1.8167724609375
1.6765869140624998
1.6935058593749999
1.7555419921875
1.5154541015624998
1.4848388671875
1.4864501953125
1.4767822265625
1.490478515625
3.04541015625
3.0486328124999997
2.586181640625
2.3968505859375
2.0020751953125
1.6177734375
0.8612548828125
0.04189453125
0.0394775390625
0.07734374999999999
0.5196533203125
0.8338623046875
1.026416015625
1.2511962890625
1.458251953125
1.4655029296875
1.77568359375
1.6089111328124999
1.7523193359375
1.74345703125
1.6967285156249998
0.038671874999999994
0.041088867187499996
0.5953857421875
0.9176513671875
1.22138671875
1.7611816406249998
2.389599609375
3.0486328124999997
3.0470214843749996
2.727978515625
2.23330078125
1.9247314453125
1.8014648437499998
1.7015624999999999
1.67900390625
1.6234130859375
1.4767822265625
1.4638916015624999
1.5057861328125
1.4928955078125
1.5315673828124998
1.5243164062499999
3.0446044921874997
2.6135742187499997
2.3654296875
2.1793212890625
1.50498046875
0.9611572265624999
0.04189453125
0.0394775390625
0.041088867187499996
0.4487548828125
0.6985107421875
1.0376953125
1.168212890625
1.3897705078125
1.5299560546875
1.6451660156249999
1.748291015625
1.7772949218749998
1.719287109375
1.66611328125
1.6185791015625
0.0394775390625
0.5760498046875
0.8322509765624999
1.0376953125
1.6645019531249998
2.0439697265625
3.043798828125
3.04541015625
2.80048828125
2.37509765625
1.9593749999999999
1.770849609375
1.732177734375
1.7128417968749998
1.7587646484375
1.7249267578124998
1.4912841796874998
1.4832275390624998
1.49853515625
1.482421875
1.5702392578125
3.0478271484375
2.937451171875
2.4854736328125
2.222021484375
1.8473876953125
1.377685546875
0.04189453125
0.04833984375
0.040283203125
0.1877197265625
0.6638671875
0.966796875
1.04736328125
1.3752685546874999
1.5025634765625
1.7265380859375
1.7257324218749999
1.6935058593749999
1.6959228515625
1.7120361328125
1.6346923828125
0.04189453125
0.041088867187499996
0.8789794921874999
1.055419921875
1.4348876953124998
1.9134521484375
3.0478271484375
3.0462158203125
3.0470214843749996
2.489501953125
2.14951171875
1.896533203125
1.7829345703125
1.687060546875
1.674169921875
1.5597656249999998
1.5162597656249999
1.493701171875
1.4800048828124999
1.4816162109375
1.480810546875
3.0462158203125
3.0470214843749996
2.4822509765625
2.392822265625
1.9247314453125
1.43408203125
0.456005859375
0.042700195312499994
0.0362548828125
0.2183349609375
0.5285156249999999
0.8822021484375
1.0078857421875
1.2254150390625
1.3656005859375
1.6169677734374999
1.6846435546874998
1.7748779296875
1.77568359375
1.7748779296875
1.7378173828124999
0.038671874999999994
0.041088867187499996
0.6630615234374999
0.9990234375
1.36962890625
1.8586669921874999
2.3799316406249997
3.043798828125
3.0421875
2.60712890625
2.205908203125
1.9360107421875
1.8022705078124999
1.6935058593749999
1.6645019531249998
1.662890625
1.456640625
1.5057861328125
1.50498046875
1.4928955078125
1.5170654296875
2.7739013671875
3.0486328124999997
2.6135742187499997
2.383154296875
2.101171875
1.545263671875
0.8161376953124999
0.043505859375
0.040283203125
0.0378662109375
0.517236328125
0.8193603515625
1.03447265625
1.2987304687499999
1.4630859374999998
1.6524169921874998
1.7152587890625
1.77568359375
1.7531249999999998
1.7104248046875
1.6443603515624998
0.5124023437499999
0.041088867187499996
0.64453125
0.8991210937499999
1.1698242187499999
1.7748779296875
2.3001708984375
3.0462158203125
3.0470214843749996
2.6562744140624996
2.309033203125
2.0334960937499997
1.7893798828124998
1.7265380859375
1.6588623046875
1.6943115234375
1.5122314453124999
1.4413330078125
1.45341796875
1.5090087890625
1.4759765624999999
1.490478515625
3.0462158203125
2.650634765625
2.4524414062499997
2.152734375
1.5734619140625
1.134375
0.041088867187499996
0.041088867187499996
0.0394775390625
0.346435546875
0.6952880859374999
0.9531005859374999
1.168212890625
1.380908203125
1.6540283203125
1.6822265625
1.7466796875
1.7120361328125
1.7233154296875
1.6806152343749998
1.3414306640625
0.037060546874999996
0.4962890625
0.84111328125
1.123095703125
1.5686279296874999
1.88525390625
3.0486328124999997
3.0486328124999997
2.8593017578124997
2.3984619140625
2.102783203125
1.883642578125
1.8240234375
1.6636962890625
1.6725585937499998
1.538818359375
1.496923828125
1.4800048828124999
1.5243164062499999
1.5444580078124999
1.5436523437499998
3.0470214843749996
3.04541015625
2.47177734375
2.247802734375
1.8618896484374998
1.1931884765625
0.041088867187499996
0.0394775390625
0.04189453125
0.30937499999999996
0.6082763671875
0.9087890624999999
1.0465576171875
1.3527099609375
1.5025634765625
1.4993408203124998
1.7635986328125
1.770849609375
1.88525390625
1.6781982421875
1.6379150390625
0.038671874999999994
0.3585205078125
0.8040527343749999
0.8306396484374999
1.5017578125
1.828857421875
3.04541015625
3.0446044921874997
2.85849609375
2.5015869140625
2.012548828125
1.8498046874999998
1.79501953125
1.658056640625
1.6371093749999999
1.4751708984374998
1.533984375
1.49853515625
1.5041748046874999
1.5331787109375
1.5243164062499999
3.043798828125
3.050244140625
2.5128662109374997
2.3340087890625
1.9078125
1.4026611328124998
0.833056640625
0.041088867187499996
0.0378662109375
0.149853515625
0.5921630859375
0.8765624999999999
1.0368896484374999
1.281005859375
1.48564453125
1.51787109375
1.6645019531249998
1.714453125
1.7490966796874998
1.7080078125
1.65966796875
0.041088867187499996
0.037060546874999996
0.7162353515625
0.9434326171874999
1.2608642578125
1.8022705078124999
2.5894042968749997
3.0462158203125
3.0462158203125
2.6296874999999997
2.276806640625
1.964208984375
1.7692382812499998
1.6129394531249999
1.6798095703125
1.5114257812499998
1.5001464843749999
1.4711425781249998
1.4590576171874998
1.45341796875
1.53076171875
1.9754882812499999
3.0462158203125
2.4661376953125
2.263916015625
2.0657226562499997
1.4332763671875
0.81533203125
0.040283203125
0.04189453125
0.14824218749999998
0.43828124999999996
0.7637695312499999
1.0207763671874999
1.1335693359374999
1.4252197265625
1.6612792968749999
1.7579589843749999
1.7370117187499998
1.719287109375
1.6951171875
1.6435546875
1.3478759765625
0.0394775390625
0.6574218749999999
0.8225830078124999
1.1625732421875
1.7934082031249998
2.2099365234375
3.0478271484375
3.050244140625
2.7344238281249997
2.373486328125
1.9827392578124998
1.8240234375
1.714453125
1.690283203125
1.5718505859374998
1.62744140625
1.477587890625
1.5162597656249999
1.5162597656249999
1.5001464843749999
1.5170654296875
3.0478271484375
2.73603515625
2.5475097656249996
2.1954345703125
1.6975341796874999
1.2640869140625
0.037060546874999996
0.04189453125
0.040283203125
0.2989013671875
0.6896484374999999
0.9732421874999999
1.0739501953125
1.3712402343749999
1.5162597656249999
1.5412353515625
1.7490966796874998
1.7684326171875
1.7619873046874999
1.722509765625
1.6185791015625
0.0394775390625
0.31259765624999997
0.7798828124999999
1.044140625
1.4783935546875
2.070556640625
3.0462158203125
3.04541015625
2.908447265625
2.4161865234374997
2.2131591796875
1.8626953124999999
1.7289550781249998
1.65966796875
1.6564453124999998
1.6411376953124999
1.561376953125
1.482421875
1.5114257812499998
1.5444580078124999
1.5517089843749998
3.0494384765625
2.905224609375
2.5958496093749996
2.39443359375
1.8304687499999999
1.38896484375
0.040283203125
0.040283203125
0.04189453125
0.20302734374999998
0.476953125
0.8443359374999999
1.0505859375
1.3704345703124998
1.461474609375
1.529150390625
1.6959228515625
1.72412109375
1.7378173828124999
1.699951171875
1.66611328125
0.0378662109375
0.0394775390625
0.6735351562499999
0.8354736328125
1.42119140625
1.8941162109374998
2.60068359375
3.0470214843749996
3.0462158203125
2.7086425781249996
2.212353515625
1.9754882812499999
1.8683349609375
1.7152587890625
1.7418457031249999
1.6846435546874998
1.5218994140625
1.429248046875
1.4469726562499998
1.4469726562499998
1.46953125
3.0462158203125
3.0494384765625
2.7271728515625
2.5394531249999996
2.080224609375
1.538818359375
0.042700195312499994
0.043505859375
0.041088867187499996
0.04189453125
0.3504638671875
0.6550048828124999
0.84111328125
1.1867431640625
1.34384765625
1.2882568359375
1.6717529296875
1.7313720703125
1.7426513671875
1.7378173828124999
1.611328125
0.040283203125
0.040283203125
0.5607421874999999
0.78955078125
1.1158447265625
1.799853515625
2.431494140625
3.0494384765625
3.0470214843749996
2.7239501953125
2.4041015624999997
2.1462890624999997
1.9223144531249998
1.7490966796874998
1.738623046875
1.8860595703124998
1.5444580078124999
1.5492919921875
1.554931640625
1.554931640625
1.5605712890624999
1.53076171875
3.0462158203125
2.69091796875
2.4935302734375
2.14951171875
1.6177734375
0.9232910156249999
0.04189453125
0.042700195312499994
0.043505859375
0.2956787109375
0.613916015625
0.8354736328125
1.0489746093749999
1.2705322265624999
1.3921875
1.6395263671875
1.7490966796874998
1.770849609375
1.7958251953125
1.7531249999999998
0.040283203125
0.040283203125
0.4680908203125
0.6163330078125
0.9692138671874999
1.574267578125
2.08828125
3.0478271484375
3.0478271484375
2.9028076171875
2.4935302734375
2.3315917968749997
1.9730712890625
1.87236328125
1.7249267578124998
1.687060546875
1.7104248046875
1.30517578125
1.5235107421874998
1.5202880859374999
1.461474609375
1.4872558593749998
3.0462158203125
3.0397705078125
2.518505859375
2.466943359375
1.9795166015624999
1.16337890625
0.041088867187499996
0.042700195312499994
0.040283203125
0.191748046875
0.42539062499999997
0.6630615234374999
0.903955078125
1.2060791015624999
1.3728515625
1.6121337890624998
1.6991455078125
1.6846435546874998
1.6878662109375
1.7039794921875
1.6822265625
0.042700195312499994
0.269091796875
0.572021484375
0.7702148437499999
1.4316650390624999
1.877197265625
3.04541015625
3.0470214843749996
3.04541015625
2.698974609375
2.4427734375
2.1205078125
2.0415527343749997
1.9078125
1.8006591796875
1.7088134765624998
1.4928955078125
1.49853515625
1.4888671875
1.458251953125
1.4413330078125
3.0486328124999997
3.0462158203125
2.7642333984375
2.5821533203125
2.1664306640624997
1.6532226562499999
0.21914062499999998
0.040283203125
0.037060546874999996
0.037060546874999996
0.285205078125
0.5389892578125
0.6348632812499999
0.978076171875
1.400244140625
1.53720703125
1.5992431640625
1.7184814453125
1.7378173828124999
1.748291015625
1.786962890625
0.04189453125
0.040283203125
0.36174316406249996
0.6815917968749999
1.164990234375
1.719287109375
3.0446044921874997
3.0470214843749996
3.050244140625
2.7392578125
2.4322998046874997
2.1978515625
2.070556640625
1.9013671875
1.8103271484374999
1.9166748046875
1.5686279296874999
1.4896728515625
1.4759765624999999
1.4888671875
1.4719482421874999
3.0478271484375
3.04541015625
2.8681640625
2.8230468749999997
2.4145751953125
1.6975341796874999
0.8040527343749999
0.040283203125
0.040283203125
0.040283203125
0.2022216796875
0.39638671875
0.55751953125
0.9369873046874999
1.1432373046875
1.222998046875
1.5718505859374998
1.706396484375
1.7893798828124998
1.77890625
1.7410400390624998
0.041088867187499996
0.04189453125
0.323876953125
0.5293212890625
0.8354736328125
1.5984375
2.3468994140625
3.0446044921874997
3.0478271484375
2.900390625
2.6514404296875
2.3565673828125
2.167236328125
2.00771484375
1.9215087890625
1.90458984375
1.5275390624999998
1.5404296874999999
1.4977294921875
1.4558349609374999
1.4171630859375
2.7529541015624996
3.04541015625
3.0172119140625
2.7988769531249997
2.5257568359375
1.84013671875
1.134375
0.041088867187499996
0.0443115234375
0.041088867187499996
0.041088867187499996
0.36174316406249996
0.5518798828125
0.7073730468749999
1.09248046875
1.474365234375
1.546875
1.641943359375
1.687060546875
1.7458740234374999
1.7555419921875
0.6227783203124999
0.04189453125
0.15468749999999998
0.4149169921875
0.75087890625
1.368017578125
2.2623046875
3.043798828125
3.04541015625
3.0486328124999997
2.73603515625
2.4645263671874997
2.2292724609375
2.0471923828125
1.9400390625
1.8626953124999999
1.6636962890625
1.5960205078124998
1.5557373046874998
1.5645996093749999
1.53076171875
1.5073974609374998
3.0494384765625
3.001904296875
2.8375488281249996
2.679638671875
1.9376220703125
1.3220947265624998
0.043505859375
0.041088867187499996
0.040283203125
0.04189453125
0.21511230468749998
0.4600341796875
0.6421142578125
0.9321533203125
1.1722412109375
1.2689208984375
1.6427490234375
1.706396484375
1.799853515625
1.8062988281249999
1.7289550781249998
0.043505859375
0.0394775390625
0.4245849609375
0.620361328125
1.2528076171875
1.6717529296875
3.0462158203125
3.0486328124999997
3.0494384765625
2.7900146484375
2.4556640625
2.2196044921875
2.2171875
1.9472900390624999
1.8473876953125
1.5637939453124998
1.6153564453125
1.603271484375
1.5807128906249999
1.5218994140625
1.45341796875
3.0478271484375
3.04541015625
2.8456054687499996
2.7328124999999996
2.386376953125
1.7829345703125
0.037060546874999996
0.041088867187499996
0.0378662109375
0.0394775390625
0.21591796875
0.443115234375
0.5285156249999999
0.9345703125
1.1126220703125
1.3752685546874999
1.5597656249999998
1.6725585937499998
1.7265380859375
1.7499023437499999
1.6951171875
0.040283203125
0.0394775390625
0.42136230468749997
0.48259277343749996
0.8902587890625
1.611328125
2.9358398437499997
3.0462158203125
3.0446044921874997
2.9269775390625
2.7078369140625
2.4427734375
2.2429687499999997
2.0246337890625
1.941650390625
1.6564453124999998
1.67900390625
1.53720703125
1.4816162109375
1.4598632812499999
1.4195800781249999
2.6941406249999997
3.0478271484375
2.8770263671875
2.9189208984375
2.489501953125
1.82080078125
0.8926757812499999
0.0378662109375
0.042700195312499994
0.042700195312499994
0.1007080078125
0.31904296875
0.3681884765625
0.6582275390625
0.9192626953124999
1.2109130859375
1.264892578125
1.6459716796875
1.7474853515625
1.7909912109375
1.79501953125
0.038671874999999994
0.040283203125
0.240087890625
0.28359375
0.7387939453125
1.3720458984375
2.1060058593749997
3.0470214843749996
3.0494384765625
3.0470214843749996
2.731201171875
2.5015869140625
2.318701171875
2.1841552734375
2.054443359375
1.7055908203124999
1.6894775390624999
1.5758789062499998
1.5436523437499998
1.5090087890625
1.4711425781249998
1.7466796875
3.0478271484375
3.043798828125
2.9253662109375
2.89072265625
2.193017578125
1.1537109374999999
0.041088867187499996
0.04189453125
0.038671874999999994
0.0443115234375
0.0926513671875
0.2900390625
0.459228515625
0.7500732421874999
0.9949951171875
1.2745605468749999
1.5734619140625
1.7208984374999998
1.74345703125
1.832080078125
1.6451660156249999
0.041088867187499996
0.10554199218749999
0.1651611328125
0.46647949218749996
0.9047607421874999
1.9625976562499998
3.0478271484375
3.04541015625
3.0478271484375
2.9028076171875
2.6578857421874997
2.376708984375
2.022216796875
2.1462890624999997
2.0455810546874997
1.869140625
1.6185791015625
1.58232421875
1.55009765625
1.4284423828125
1.4469726562499998
3.04541015625
3.043798828125
3.050244140625
3.0365478515624997
2.40087890625
1.8667236328124999
0.04189453125
0.040283203125
0.041088867187499996
0.04189453125
0.03544921875
0.169189453125
0.24331054687499998
0.5260986328125
0.7943847656249999
0.82177734375
1.3237060546875
1.5766845703124999
1.67578125
1.7772949218749998
1.75634765625
0.04189453125
0.040283203125
0.2038330078125
0.28439941406249997
0.6807861328125
1.3382080078124998
3.043798828125
3.04541015625
3.0478271484375
3.0470214843749996
2.8915283203124997
2.6901123046874997
2.63291015625
2.4242431640624997
2.312255859375
1.9779052734375
1.8022705078124999
1.6975341796874999
1.6153564453125
1.525927734375
1.4679199218749999
3.04541015625
3.0478271484375
3.04541015625
3.0462158203125
2.7730957031249996
2.075390625
0.116015625
0.0378662109375
0.03544921875
0.0362548828125
0.07814941406249999
0.054785156249999994
0.0926513671875
0.4970947265625
0.6090820312499999
0.760546875
1.4091064453125
1.41796875
1.6072998046875
1.703173828125
1.7289550781249998
0.04189453125
0.040283203125
0.1264892578125
0.12165527343749999
0.443115234375
1.2785888671874999
2.36220703125
3.04541015625
3.0478271484375
3.0462158203125
2.9156982421874997
2.7021972656249997
2.608740234375
2.3742919921875
2.3082275390625
2.1777099609375
1.9545410156249998
1.8054931640624998
1.7281494140625
1.5976318359375
1.5331787109375
1.7732666015624998
3.0494384765625
3.0462158203125
3.0446044921874997
2.78759765625
2.2494140625
1.3672119140624999
0.040283203125
0.041088867187499996
0.0394775390625
0.040283203125
0.0580078125
0.10151367187499999
0.27392578125
0.604248046875
0.49870605468749996
1.05380859375
1.2987304687499999
1.5146484375
1.63388671875
1.690283203125
0.041088867187499996
0.040283203125
0.0394775390625
0.04189453125
0.2263916015625
0.9450439453124999
1.6822265625
3.0510498046874996
3.0470214843749996
3.0462158203125
2.9986816406249996
2.8367431640625
2.6764160156249996
2.6014892578124997
2.5612060546874997
2.3235351562499997
2.2002685546875
1.867529296875
1.7458740234374999
1.6991455078125
1.7748779296875
1.5082031249999999
3.0486328124999997
3.043798828125
3.04541015625
3.0446044921874997
2.3565673828125
1.5887695312499999
0.041088867187499996
0.043505859375
0.0394775390625
0.037060546874999996
0.04189453125
0.08540039062499999
0.2054443359375
0.452783203125
0.630029296875
0.7259033203124999
1.17626953125
1.319677734375
1.4687255859375
1.5976318359375
1.6177734375
0.040283203125
0.041088867187499996
0.0378662109375
0.07814941406249999
0.46970214843749997
1.5275390624999998
3.0462158203125
3.0462158203125
3.04541015625
3.0446044921874997
3.0462158203125
2.905224609375
2.8625244140625
2.70380859375
2.591015625
2.5869873046875
2.0657226562499997
1.9279541015625
1.7329833984374998
1.6081054687499998
1.50498046875
3.0470214843749996
3.0462158203125
3.0446044921874997
3.0470214843749996
2.6836669921875
2.18173828125
0.12568359375
0.0443115234375
0.0394775390625
0.041088867187499996
0.0394775390625
0.03544921875
0.040283203125
0.33273925781249997
0.4326416015625
0.6550048828124999
0.9901611328125
1.232666015625
1.3736572265625
1.4953124999999998
1.5476806640624998
0.041088867187499996
0.043505859375
0.042700195312499994
0.069287109375
0.49387207031249997
1.0449462890624999
3.0421875
3.0478271484375
3.0462158203125
3.0470214843749996
3.04541015625
2.9422851562499996
2.8770263671875
2.6925292968749996
2.5475097656249996
2.3565673828125
2.060888671875
1.9706542968749998
1.84013671875
1.72734375
1.6403320312499998
3.0446044921874997
3.0421875
3.0486328124999997
3.0462158203125
2.9318115234374997
2.27197265625
0.9144287109375
0.041088867187499996
0.041088867187499996
0.037060546874999996
0.043505859375
0.042700195312499994
0.0394775390625
0.2215576171875
0.3955810546875
0.2553955078125
1.0006347656249999
1.2560302734375
1.3946044921874998
1.5460693359375
1.63388671875
0.040283203125
0.042700195312499994
0.0394775390625
0.042700195312499994
0.252978515625
1.09248046875
2.160791015625
3.0462158203125
3.0486328124999997
3.04541015625
3.0494384765625
2.9463134765624996
2.7908203124999997
2.7046142578124996
2.65869140625
2.7980712890625
2.2131591796875
2.012548828125
1.877197265625
1.7047851562499998
1.6266357421875
1.5412353515625
3.0486328124999997
3.0470214843749996
3.0462158203125
2.9422851562499996
2.3468994140625
1.4840332031249999
0.040283203125
0.042700195312499994
0.045117187499999996
0.040283203125
0.040283203125
0.0394775390625
0.1812744140625
0.46245117187499996
0.59619140625
1.1174560546874999
1.2020507812499999
1.3720458984375
1.477587890625
1.5605712890624999
1.5718505859374998
0.04189453125
0.0378662109375
0.0394775390625
0.2618408203125
0.9128173828124999
1.554931640625
3.0446044921874997
3.0462158203125
3.0510498046874996
3.0470214843749996
2.892333984375
2.7432861328125
2.6917236328125
2.5241455078125
2.4290771484375
2.4403564453124997
1.9456787109375
1.8409423828125
1.7265380859375
1.6403320312499998
1.522705078125
3.04541015625
3.0478271484375
3.04541015625
3.0462158203125
2.5974609374999997
1.5243164062499999
0.037060546874999996
0.041088867187499996
0.0394775390625
0.04189453125
0.038671874999999994
0.088623046875
0.17724609375
0.359326171875
0.591357421875
0.7871337890625
1.132763671875
1.3825195312499998
1.5347900390625
1.6653076171874999
1.6612792968749999
0.041088867187499996
0.0394775390625
0.327099609375
0.1611328125
0.5502685546875
1.32451171875
3.050244140625
3.04541015625
3.0470214843749996
3.0462158203125
2.89072265625
2.6844726562499996
2.5934326171874997
2.4725830078124997
2.3203125
2.0536376953124997
1.93681640625
1.8071044921875
1.6854492187499999
1.65966796875
1.6169677734374999
3.0470214843749996
3.0462158203125
3.0446044921874997
3.0462158203125
2.7086425781249996
2.12373046875
0.7863281249999999
0.037060546874999996
0.040283203125
0.040283203125
0.043505859375
0.10554199218749999
0.0555908203125
0.32951660156249996
0.6413085937499999
1.036083984375
1.1303466796875
1.43408203125
1.5637939453124998
1.6475830078125
1.703173828125
0.040283203125
0.04189453125
0.0604248046875
0.1039306640625
0.5228759765625
1.1375976562499999
2.0858642578124997
3.0470214843749996
3.0462158203125
3.0462158203125
2.9285888671875
2.792431640625
2.6675537109375
2.6111572265625
2.399267578125
2.6047119140625
1.9650146484375
1.8183837890624999
1.7442626953125
1.6435546875
1.5355957031249998
3.0446044921874997
3.0470214843749996
3.0462158203125
3.04541015625
2.8528564453125
2.2598876953125
0.8934814453125
0.0394775390625
0.038671874999999994
0.040283203125
0.037060546874999996
0.09829101562499999
0.040283203125
0.38671875
0.5406005859374999
0.8266113281249999
1.0981201171875
1.3494873046875
1.4832275390624998
1.4977294921875
1.6532226562499999
0.0443115234375
0.040283203125
0.041088867187499996
0.1007080078125
0.270703125
1.068310546875
1.8489990234375
3.0470214843749996
3.0462158203125
3.043798828125
3.018017578125
2.8963623046875
2.711865234375
2.586181640625
2.44921875
2.3501220703125
1.9432617187499999
1.9102294921874998
1.8046875
1.6532226562499999
1.5645996093749999
1.5162597656249999
3.0446044921874997
3.0470214843749996
3.0470214843749996
2.96484375
2.3178955078125
1.5009521484375
0.038671874999999994
0.0362548828125
0.041088867187499996
0.040283203125
0.06767578125
0.1458251953125
0.207861328125
0.4229736328125
0.9643798828125
0.9087890624999999
1.229443359375
1.41796875
1.5686279296874999
1.6862548828125
1.7080078125
0.041088867187499996
0.0378662109375
0.0539794921875
0.23525390624999998
0.8580322265625
1.348681640625
3.0478271484375
3.04541015625
3.0470214843749996
3.0470214843749996
2.7416748046875
2.578125
2.518505859375
2.3074218749999997
2.2276611328125
2.1857666015625
1.864306640625
1.8216064453124998
1.7410400390624998
1.687060546875
1.5807128906249999
3.0405761718749997
3.04541015625
3.0494384765625
3.0462158203125
2.731201171875
1.8216064453124998
0.0394775390625
0.0443115234375
0.0378662109375
0.04189453125
0.041088867187499996
0.1297119140625
0.26022949218749997
0.48017578125
0.7291259765625
1.116650390625
1.281005859375
1.40830078125
1.5202880859374999
1.611328125
1.6185791015625
0.0394775390625
0.0362548828125
0.1474365234375
0.1506591796875
0.58330078125
1.3220947265624998
3.0470214843749996
3.0462158203125
3.04541015625
3.0470214843749996
2.9261718749999996
2.8109619140624997
2.7392578125
2.608740234375
2.4524414062499997
2.0923095703125
2.0262451171875
1.8651123046875
1.67578125
1.5839355468749998
1.5025634765625
3.0478271484375
3.04541015625
3.04541015625
3.043798828125
2.7303955078124997
2.1583740234374997
0.572021484375
0.037060546874999996
0.040283203125
0.040283203125
0.041088867187499996
0.09426269531249999
0.095068359375
0.37382812499999996
0.6372802734374999
1.0191650390625
1.0812011718749999
1.3237060546875
1.513037109375
1.6532226562499999
1.6935058593749999
0.038671874999999994
0.040283203125
0.08701171875
0.133740234375
0.646142578125
1.1053710937499999
1.9384277343749998
3.0470214843749996
3.0478271484375
3.0486328124999997
2.9414794921875
2.72958984375
2.6385498046875
2.5289794921874997
2.3879882812499997
2.3275634765624997
1.9062011718749998
1.8119384765625
1.722509765625
1.64677734375
1.542041015625
2.6240478515624996
3.0470214843749996
3.04541015625
3.0405761718749997
2.947119140625
2.2792236328124997
1.1416259765624999
0.040283203125
0.0378662109375
0.041088867187499996
0.038671874999999994
0.12568359375
0.198193359375
0.3585205078125
0.605859375
1.0417236328125
1.11826171875
1.3631835937499999
1.525927734375
1.667724609375
1.7821289062499999
0.9112060546874999
0.040283203125
0.0515625
0.1087646484375
0.3037353515625
1.0707275390625
1.8747802734374999
3.0462158203125
3.0462158203125
3.0462158203125
2.9430908203125
2.769873046875
2.5894042968749997
2.4991699218749996
2.3275634765624997
1.9746826171874998
1.89169921875
1.8506103515624999
1.7184814453125
1.6201904296874998
1.5670166015625
1.5412353515625
3.043798828125
3.0470214843749996
3.0462158203125
3.0067382812499996
2.281640625
1.73056640625
0.04189453125
0.040283203125
0.043505859375
0.042700195312499994
0.041088867187499996
0.1474365234375
0.2666748046875
0.49306640625
0.8314453125
0.84111328125
1.31162109375
1.5194824218749998
1.6218017578125
1.7184814453125
1.6822265625
0.04189453125
0.041088867187499996
0.24331054687499998
0.3021240234375
0.7887451171875
1.380908203125
3.04541015625
3.0462158203125
3.04541015625
3.0470214843749996
2.7787353515624997
2.5797363281249996
2.5031982421874996
2.3033935546874997
2.230078125
1.9513183593749999
1.8183837890624999
1.716064453125
1.609716796875
1.53076171875
1.47275390625
3.0470214843749996
3.0446044921874997
3.0462158203125
3.0268798828124996
2.7134765625
1.92392578125
0.041088867187499996
0.0378662109375
0.0394775390625
0.0378662109375
0.037060546874999996
0.18046874999999998
0.2972900390625
0.5969970703124999
0.75732421875
1.0385009765625
1.332568359375
1.4348876953124998
1.5662109375
1.8957275390625
1.6395263671875
0.0394775390625
0.040283203125
0.20625
0.15227050781249998
0.6251953124999999
1.2834228515625
2.7102539062499997
3.0462158203125
3.0470214843749996
3.0446044921874997
2.840771484375
2.5225341796875
2.49755859375
2.3235351562499997
2.309033203125
1.9988525390624998
1.9392333984374999
1.7595703125
1.7096191406249999
1.603271484375
1.5782958984375
3.0470214843749996
3.04541015625
3.0244628906249997
3.0397705078125
2.6949462890625
2.044775390625
1.1690185546875
0.038671874999999994
0.037060546874999996
0.0394775390625
0.0394775390625
0.17885742187499998
0.2811767578125
0.488232421875
0.7613525390625
0.8282226562499999
1.1915771484375
1.513037109375
1.641943359375
1.7023681640625
1.7410400390624998
0.041088867187499996
0.0362548828125
0.1732177734375
0.15468749999999998
0.46083984375
1.1295410156249999
1.948095703125
3.050244140625
3.0462158203125
3.04541015625
2.9076416015624997
2.7086425781249996
2.5483154296875
2.2631103515624997
2.2486083984375
1.869140625
1.828857421875
1.7128417968749998
1.654833984375
1.5541259765625
1.490478515625
1.6282470703124998
3.0478271484375
3.0470214843749996
2.9326171875
2.8423828125
2.1865722656249997
1.3027587890624999
0.038671874999999994
0.041088867187499996
0.040283203125
0.040283203125
0.111181640625
0.2255859375
0.41411132812499996
0.6823974609375
0.8121093749999999
1.335791015625
1.4316650390624999
1.5847412109374999
1.6814208984374999
1.6846435546874998
1.609716796875
0.04189453125
0.1409912109375
0.1973876953125
0.46647949218749996
1.190771484375
1.9062011718749998
3.0470214843749996
3.04541015625
3.0462158203125
2.9253662109375
2.7948486328124997
2.5636230468749996
2.486279296875
2.31064453125
2.1462890624999997
2.1519287109375
1.7313720703125
1.6363037109374998
1.5686279296874999
1.5162597656249999
1.4880615234374999
3.0470214843749996
3.0462158203125
3.04541015625
2.9108642578125
2.33642578125
1.8232177734375
0.041088867187499996
0.0394775390625
0.0443115234375
0.0378662109375
0.0990966796875
0.240087890625
0.34482421874999997
0.6727294921875
0.936181640625
0.9692138671874999
1.4107177734374998
1.53720703125
1.6427490234375
1.7007568359374998
1.65966796875
0.038671874999999994
0.0394775390625
0.28037109374999997
0.378662109375
0.7661865234374999
1.4123291015625
3.04541015625
3.04541015625
3.0470214843749996
2.9011962890625
2.705419921875
2.7021972656249997
2.44599609375
2.260693359375
2.1503173828124997
1.7982421874999999
1.7781005859374999
1.674169921875
1.6209960937499999
1.606494140625
1.5460693359375
3.0421875
3.0446044921874997
2.9978759765625
2.9841796874999997
2.591015625
1.972265625
0.4793701171875
0.041088867187499996
0.040283203125
0.041088867187499996
0.0620361328125
0.2118896484375
0.2666748046875
0.6590332031249999
0.8258056640625
0.9112060546874999
1.3946044921874998
1.5525146484374999
1.65966796875
1.7313720703125
1.7015624999999999
0.041088867187499996
0.040283203125
0.2634521484375
0.29648437499999997
0.5679931640625
1.3559326171875
2.5193115234374996
3.0470214843749996
3.0462158203125
3.0462158203125
2.8109619140624997
2.5402587890625
2.431494140625
2.2341064453125
2.2131591796875
2.1221191406249997
1.7781005859374999
1.6379150390625
1.5565429687499999
1.5299560546875
1.5073974609374998
3.04541015625
3.0470214843749996
3.0010986328125
2.9076416015624997
2.682861328125
2.08828125
1.2544189453124999
0.040283203125
0.041088867187499996
0.041088867187499996
0.042700195312499994
0.153076171875
0.2779541015625
0.46083984375
0.82177734375
0.837890625
1.3849365234375
1.5186767578125
1.5960205078124998
1.6636962890625
1.7297607421874999
0.040283203125
0.027392578124999997
0.22236328125
0.2956787109375
0.6002197265625
1.2640869140625
2.22041015625
3.0462158203125
3.0462158203125
3.0462158203125
2.8359375
2.631298828125
2.4339111328125
2.2953369140624997
2.2026855468749997
2.060888671875
1.7370117187499998
1.6878662109375
1.6266357421875
1.5331787109375
1.482421875
1.4719482421874999
3.0462158203125
3.0349365234374996
2.8705810546875
2.8496337890624996
2.0625
1.2979248046874998
0.041088867187499996
0.038671874999999994
0.0362548828125
0.03544921875
0.1611328125
0.3262939453125
0.45761718749999997
0.7532958984375
0.958740234375
1.2737548828124998
1.5009521484375
1.641943359375
1.7619873046874999
1.791796875
1.7442626953125
0.040283203125
0.0717041015625
0.3504638671875
0.526904296875
1.3229003906249999
1.7926025390625
3.043798828125
3.05185546875
3.0494384765625
2.8593017578124997
2.512060546875
2.3114501953124997
2.23974609375
2.0898925781249997
2.0020751953125
1.8780029296874998
1.6604736328124998
1.53076171875
1.5404296874999999
1.5090087890625
1.4783935546875
3.04541015625
3.0462158203125
2.9342285156249996
2.6490234375
2.4169921875
1.848193359375
0.0394775390625
0.041088867187499996
0.041088867187499996
0.040283203125
0.15871582031249998
0.31743164062499996
0.36174316406249996
0.8064697265624999
1.03447265625
1.313232421875
1.546875
1.6483886718749998
1.69833984375
1.7208984374999998
1.654833984375
0.0362548828125
0.04189453125
0.30937499999999996
0.41733398437499997
0.8846191406249999
1.5992431640625
3.0494384765625
3.0421875
3.04541015625
2.908447265625
2.731201171875
2.5168945312499997
2.3630126953125
2.263916015625
2.112451171875
1.82724609375
1.6620849609375
1.6234130859375
1.546875
1.4848388671875
1.4558349609374999
3.0478271484375
3.04541015625
2.8754150390624997
2.931005859375
2.425048828125
1.8248291015625
0.26425781249999997
0.038671874999999994
0.040283203125
0.0394775390625
0.059619140625
0.2972900390625
0.339990234375
0.6840087890625
0.9168457031249999
1.69833984375
1.4518066406249999
1.5734619140625
1.683837890625
1.7072021484375
1.6830322265625
0.041088867187499996
0.040283203125
0.26103515625
0.43747558593749997
0.9394042968749999
1.496923828125
2.23974609375
3.04541015625
3.050244140625
3.04541015625
2.7980712890625
2.463720703125
2.2937255859375
2.1221191406249997
2.0020751953125
2.20751953125
1.638720703125
1.5799072265624998
1.525927734375
1.490478515625
1.456640625
3.04541015625
3.0462158203125
2.9447021484375
2.8697753906249996
2.5974609374999997
2.028662109375
0.8185546874999999
0.041088867187499996
0.038671874999999994
0.038671874999999994
0.111181640625
0.31259765624999997
0.43344726562499997
0.6695068359374999
0.9321533203125
1.2495849609374998
1.3462646484374998
1.6089111328124999
1.7208984374999998
1.7893798828124998
1.7297607421874999
0.0378662109375
0.037060546874999996
0.22316894531249998
0.5099853515625
0.6243896484375
1.2576416015624998
2.199462890625
3.0462158203125
3.043798828125
3.0421875
2.7787353515624997
2.5394531249999996
2.3146728515625
2.14951171875
2.054443359375
1.9352050781249999
1.5589599609375
1.5686279296874999
1.5428466796875
1.5895751953125
1.4550292968749998
1.409912109375
3.0462158203125
3.0268798828124996
2.8351318359374997
2.470166015625
1.9972412109375
1.4332763671875
0.038671874999999994
0.041088867187499996
0.040283203125
0.040283203125
0.11923828125
0.410888671875
0.6243896484375
0.9249023437499999
1.3881591796875
1.313232421875
1.5887695312499999
1.6435546875
1.7039794921875
1.6854492187499999
1.6330810546874999
0.041088867187499996
0.059619140625
0.33354492187499996
0.549462890625
1.2399169921875
1.716064453125
3.043798828125
3.0421875
3.0446044921874997
2.850439453125
2.53623046875
2.3275634765624997
2.2647216796875
2.0955322265625
1.9658203125
1.7660156249999999
1.6604736328124998
1.5525146484374999
1.5033691406249998
1.49853515625
1.4252197265625
3.0462158203125
3.04541015625
2.85205078125
2.745703125
2.40732421875
1.8135498046874998
0.037060546874999996
0.043505859375
0.0362548828125
0.0362548828125
0.165966796875
0.35126953125
0.420556640625
0.8693115234375
1.0675048828125
1.442138671875
1.51787109375
1.5960205078124998
1.6701416015625
1.6935058593749999
1.6282470703124998
0.038671874999999994
0.0394775390625
0.4189453125
0.46567382812499997
0.9160400390625
1.5557373046874998
3.0470214843749996
3.04541015625
3.04541015625
2.8794433593749997
2.6369384765625
2.4161865234374997
2.29775390625
2.2453857421875
2.0657226562499997
1.7072021484375
1.7055908203124999
1.5887695312499999
1.5605712890624999
1.5283447265624999
1.4848388671875
3.04541015625
3.0446044921874997
2.8431884765624997
2.8705810546875
2.344482421875
1.7362060546875
0.7395996093749999
0.040283203125
0.0394775390625
0.041088867187499996
0.14421386718749998
0.375439453125
0.46245117187499996
0.7355712890624999
1.013525390625
1.2745605468749999
1.464697265625
1.6685302734374998
1.735400390625
1.7893798828124998
1.7853515624999998
0.041088867187499996
0.038671874999999994
0.36093749999999997
0.47856445312499996
0.90234375
1.4469726562499998
2.131787109375
3.0446044921874997
3.0446044921874997
2.9390625
2.6441894531249996
2.3920166015624997
2.2228271484374997
2.0818359374999997
1.9489013671875
1.8465820312499999
1.5992431640625
1.6072998046875
1.53720703125
1.53076171875
1.525927734375
2.358984375
3.050244140625
2.9962646484374997
2.8391601562499997
2.631298828125
1.9529296875
0.9796874999999999
0.0362548828125
0.042700195312499994
0.0394775390625
0.1426025390625
0.35771484374999996
0.47775878906249997
0.8080810546874999
1.0570312499999999
1.3768798828125
1.4606689453125
1.6105224609375
1.6177734375
1.6894775390624999
1.6951171875
0.990966796875
0.043505859375
0.3311279296875
0.38994140624999996
0.6936767578124999
1.445361328125
2.1986572265624997
3.0462158203125
3.0486328124999997
3.0413818359375
2.7448974609374996
2.5587890625
2.2711669921874997
2.1760986328125
2.047998046875
1.764404296875
1.8385253906249999
1.606494140625
1.5492919921875
1.4429443359374998
1.4501953125
1.4445556640625
3.0470214843749996
3.0405761718749997
2.8786376953125
2.6707763671875
2.0165771484375
1.5283447265624999
0.040283203125
0.0394775390625
0.04189453125
0.040283203125
0.2360595703125
0.42861328125
0.5446289062499999
0.8314453125
1.1577392578124999
1.2850341796875
1.5791015625
1.6878662109375
1.7088134765624998
1.7692382812499998
1.6153564453125
0.040283203125
0.0378662109375
0.38107910156249997
0.700927734375
1.1367919921875
1.6072998046875
3.0494384765625
3.0462158203125
3.0462158203125
2.76826171875
2.4983642578125
2.328369140625
2.212353515625
1.8062988281249999
1.90458984375
1.6532226562499999
1.6121337890624998
1.5895751953125
1.558154296875
1.5090087890625
1.3180664062499998
3.0470214843749996
3.0478271484375
2.9455078125
2.7948486328124997
2.3855712890625
1.585546875
0.040283203125
0.042700195312499994
0.0394775390625
0.0394775390625
0.23283691406249998
0.4229736328125
0.5228759765625
0.87333984375
1.0530029296874999
1.24072265625
1.5984375
1.6822265625
1.716064453125
1.780517578125
1.7096191406249999
0.042700195312499994
0.042700195312499994
0.45439453124999996
0.45036621093749996
1.103759765625
1.658056640625
3.04541015625
3.04541015625
3.0462158203125
2.89716796875
2.5974609374999997
2.2880859375
2.180126953125
1.9658203125
1.9198974609375
1.716064453125
1.6717529296875
1.6153564453125
1.5243164062499999
1.4945068359375
1.4703369140625
3.0478271484375
3.043798828125
2.8456054687499996
2.8874999999999997
2.3871826171875
1.7853515624999998
1.0006347656249999
0.03544921875
0.040283203125
0.038671874999999994
0.12165527343749999
0.476953125
0.37785644531249996
0.6912597656249999
0.9772705078124999
1.0650878906249999
1.4574462890625
1.59521484375
1.7370117187499998
1.79501953125
1.79501953125
0.040283203125
0.041088867187499996
0.40283203125
0.475341796875
0.8443359374999999
1.5162597656249999
2.466943359375
3.0494384765625
3.04541015625
3.0421875
2.76181640625
2.479833984375
2.2776123046875
2.03994140625
2.07861328125
1.7579589843749999
1.6314697265625
1.55009765625
1.5243164062499999
1.5001464843749999
1.4791992187499998
1.593603515625
3.0470214843749996
2.81982421875
2.795654296875
2.6441894531249996
1.8409423828125
1.0207763671874999
0.040283203125
0.042700195312499994
0.040283203125
0.153076171875
0.31340332031249996
0.5180419921875
0.688037109375
0.95068359375
1.139208984375
1.5275390624999998
1.5791015625
1.65
1.71123046875
1.719287109375
1.690283203125
0.038671874999999994
0.3746337890625
0.356103515625
0.604248046875
1.3784912109374998
1.98193359375
3.04541015625
3.050244140625
3.0446044921874997
2.7779296875
2.4596923828125
2.2623046875
2.14306640625
2.01416015625
1.9279541015625
1.8369140625
1.5782958984375
1.4977294921875
1.4928955078125
1.4880615234374999
1.5782958984375
3.04541015625
3.0486328124999997
2.9366455078125
2.7005859374999996
2.18818359375
1.522705078125
0.0362548828125
0.0362548828125
0.040283203125
0.040283203125
0.207861328125
0.3907470703125
0.5164306640624999
0.897509765625
1.1013427734374999
1.2221923828124999
1.593603515625
1.6975341796874999
1.7893798828124998
1.8038818359375
1.7152587890625
0.040283203125
0.040283203125
0.43022460937499996
0.6098876953125
1.0288330078124999
1.5605712890624999
3.0462158203125
3.0470214843749996
3.0429931640624996
2.8133789062499996
2.5821533203125
2.3485107421875
2.1696533203125
2.044775390625
1.9303710937499998
1.7555419921875
1.5678222656249998
1.5315673828124998
1.482421875
1.4671142578124998
1.4348876953124998
3.0494384765625
3.04541015625
2.9068359375
2.8456054687499996
2.4596923828125
1.791796875
0.0668701171875
0.0443115234375
0.0362548828125
0.042700195312499994
0.1393798828125
0.34562988281249996
0.43022460937499996
0.8572265625
1.0272216796875
1.42119140625
1.4961181640624999
1.571044921875
1.6830322265625
1.6910888671875
1.64677734375
0.040283203125
0.038671874999999994
0.32871093749999997
0.6147216796875
1.0014404296875
1.5863525390625
2.4290771484375
3.0462158203125
3.04541015625
3.0421875
2.7021972656249997
2.392822265625
2.254248046875
2.0616943359374997
1.9835449218749999
2.0560546875
1.7096191406249999
1.5702392578125
1.5033691406249998
1.4598632812499999
1.4759765624999999
3.0462158203125
3.0470214843749996
2.8794433593749997
2.866552734375
2.47822265625
1.8506103515624999
0.4125
0.038671874999999994
0.040283203125
0.040283203125
0.09829101562499999
0.3311279296875
0.439892578125
0.77666015625
1.00224609375
0.961962890625
1.53076171875
1.6524169921874998
1.77568359375
1.7926025390625
1.770849609375
0.040283203125
0.041088867187499996
0.2553955078125
0.47775878906249997
0.7541015624999999
1.456640625
2.408935546875
3.0446044921874997
3.043798828125
2.98740234375
2.7158935546875
2.4419677734375
2.27841796875
2.09150390625
1.9843505859375
1.8377197265624998
1.574267578125
1.546875
1.525927734375
1.5170654296875
1.480810546875
1.47275390625
3.0470214843749996
2.9962646484374997
2.7811523437499996
2.705419921875
1.8925048828125
1.1577392578124999
0.040283203125
0.0378662109375
0.040283203125
0.058813476562499994
0.2505615234375
0.4568115234375
0.6936767578124999
0.9974121093749999
1.397021484375
1.533984375
1.699951171875
1.770849609375
1.8264404296874999
1.8344970703124999
1.7958251953125
0.041088867187499996
0.0958740234375
0.38107910156249997
0.7951904296875
1.4308593749999998
1.973876953125
3.04541015625
3.0486328124999997
3.0462158203125
2.7755126953125
2.415380859375
2.180126953125
2.075390625
1.9013671875
1.8457763671874998
1.7982421874999999
1.4840332031249999
1.456640625
1.4598632812499999
1.4638916015624999
1.461474609375
3.0470214843749996
3.0486328124999997
2.856884765625
2.6490234375
2.19140625
1.703173828125
0.040283203125
0.0394775390625
0.0394775390625
0.040283203125
0.2618408203125
0.5244873046874999
0.6131103515624999
1.100537109375
1.340625
1.66611328125
1.7096191406249999
1.7716552734375
1.8377197265624998
1.8296630859374998
1.687060546875
0.0394775390625
0.04189453125
0.4648681640625
0.7452392578125
1.19560546875
1.8183837890624999
3.0470214843749996
3.0478271484375
3.0429931640624996
2.673193359375
2.5386474609375
2.189794921875
1.9859619140625
1.828857421875
1.7531249999999998
1.5654052734375
1.313232421875
1.4139404296875
1.432470703125
1.4550292968749998
1.4469726562499998
3.0470214843749996
3.04541015625
2.785986328125
2.7344238281249997
2.1519287109375
1.5895751953125
0.46728515625
0.038671874999999994
0.041088867187499996
0.040283203125
0.18852539062499998
0.539794921875
0.6654785156249999
0.968408203125
1.18916015625
1.5347900390625
1.6282470703124998
1.7426513671875
1.7982421874999999
1.8409423828125
1.796630859375
0.041088867187499996
0.040283203125
0.3955810546875
0.69287109375
1.1698242187499999
1.722509765625
2.4556640625
3.04541015625
3.0462158203125
2.8641357421875
2.505615234375
2.19140625
1.989990234375
1.8103271484374999
1.699951171875
1.738623046875
1.4107177734374998
1.47275390625
1.4671142578124998
1.432470703125
1.4800048828124999
3.0462158203125
3.0470214843749996
2.8754150390624997
2.67158203125
2.33642578125
1.690283203125
0.781494140625
0.0394775390625
0.04189453125
0.0362548828125
0.20947265625
0.49870605468749996
0.6751464843749999
1.0497802734375
1.3075927734375
1.5444580078124999
1.6846435546874998
1.7611816406249998
1.7901855468749999
1.7934082031249998
1.7378173828124999
0.27231445312499997
0.0362548828125
0.394775390625
0.6260009765625
0.9917724609374999
1.7370117187499998
2.462109375
3.0429931640624996
3.04541015625
2.8786376953125
2.5797363281249996
2.263916015625
1.9658203125
1.9029785156249999
1.7853515624999998
1.5444580078124999
1.5154541015624998
1.4058837890625
1.400244140625
1.37607421875
1.3825195312499998
1.4364990234375
3.043798828125
2.9269775390625
2.695751953125
2.4427734375
1.751513671875
1.1093994140624999
