0.037060546874999996
0.8096923828125
1.2020507812499999
1.6540283203125
2.0713623046875
3.0486328124999997
3.0421875
2.8012939453124996
2.399267578125
1.9311767578124999
1.65
1.558154296875
1.5218994140625
1.5484863281249999
1.6322753906249998
1.456640625
1.4373046875
1.4791992187499998
1.5082031249999999
1.5267333984375
3.0446044921874997
3.0405761718749997
2.338037109375
2.1543457031249997
1.8417480468749998
1.2479736328125
0.3440185546875
0.0394775390625
0.0394775390625
0.2900390625
0.6654785156249999
1.0111083984375
1.2141357421874999
1.506591796875
1.5992431640625
1.8264404296874999
1.851416015625
1.7958251953125
1.7700439453124999
1.7394287109375
1.6806152343749998
0.15468749999999998
0.0394775390625
0.7436279296874999
1.0352783203125
1.3825195312499998
2.022216796875
2.4548583984375
3.0429931640624996
3.0413818359375
2.5007812499999997
2.13662109375
1.75634765625
1.6056884765625
1.5718505859374998
1.5726562499999999
1.4276367187499999
1.4840332031249999
1.380908203125
1.426025390625
1.45341796875
1.464697265625
2.454052734375
3.0462158203125
2.5789306640625
2.30419921875
1.9150634765624999
1.3349853515624999
0.881396484375
0.038671874999999994
0.0378662109375
0.1297119140625
0.510791015625
0.978076171875
1.190771484375
1.3551269531249999
1.622607421875
1.7362060546875
1.7724609375
1.8224121093749999
1.7603759765625
1.76279296875
1.7426513671875
0.8185546874999999
0.03544921875
0.5744384765625
1.0449462890624999
1.3067871093749999
1.7958251953125
2.3098388671875
3.0462158203125
3.0462158203125
2.6466064453125
2.1076171875
1.8175781249999998
1.61455078125
1.538818359375
1.5251220703125
1.49853515625
1.458251953125
1.4397216796874999
1.448583984375
1.4888671875
1.5323730468749999
1.5509033203125
3.0446044921874997
2.5894042968749997
2.2913085937499997
2.0496093749999997
1.429248046875
1.0328613281249999
0.038671874999999994
0.041088867187499996
0.0620361328125
0.4954833984375
0.8701171875
1.2076904296875
1.3583496093749998
1.522705078125
1.5960205078124998
1.63388671875
1.84013671875
1.7958251953125
1.6403320312499998
1.7692382812499998
1.687060546875
0.038671874999999994
0.5212646484375
0.9901611328125
1.200439453125
1.6218017578125
2.0665283203125
3.0470214843749996
3.043798828125
2.6901123046874997
2.2776123046875
1.8280517578125
1.619384765625
1.5654052734375
1.554931640625
1.53720703125
1.5138427734375
1.4840332031249999
1.4703369140625
1.4711425781249998
1.4655029296875
1.4783935546875
3.0429931640624996
3.0413818359375
2.3855712890625
2.1003662109375
1.703173828125
1.2568359375
0.15871582031249998
0.0394775390625
0.038671874999999994
0.378662109375
0.7412109375
1.07958984375
1.2479736328125
1.5702392578125
1.635498046875
1.6693359374999999
1.791796875
1.7901855468749999
1.7893798828124998
1.780517578125
1.66611328125
0.0394775390625
0.037060546874999996
0.9410156249999999
1.142431640625
1.5670166015625
1.9698486328125
2.8415771484374996
3.0470214843749996
3.0389648437499996
2.40087890625
2.0133544921874997
1.7660156249999999
1.5984375
1.5146484375
1.6161621093749998
1.5968261718749999
1.5412353515625
1.4139404296875
1.4268310546874998
1.40185546875
1.4268310546874998
2.2228271484374997
3.04541015625
2.4290771484375
2.1720703125
1.7039794921875
1.2286376953125
0.4761474609375
0.042700195312499994
0.0378662109375
0.3472412109375
0.6968994140625
1.0997314453125
1.2511962890625
1.4389160156249998
1.5597656249999998
1.5251220703125
1.848193359375
1.8377197265624998
1.8119384765625
1.7909912109375
1.716064453125
0.0394775390625
0.0346435546875
0.736376953125
1.042529296875
1.4864501953125
1.9875732421874999
2.312255859375
3.043798828125
3.0397705078125
2.5128662109374997
2.002880859375
1.7072021484375
1.5605712890624999
1.5138427734375
1.5541259765625
1.5235107421874998
1.53720703125
1.509814453125
1.4848388671875
1.4872558593749998
1.480810546875
1.622607421875
3.0429931640624996
2.5813476562499997
2.1535400390625
1.993212890625
1.4477783203124999
0.8314453125
0.0378662109375
0.038671874999999994
0.0394775390625
0.6509765624999999
0.9321533203125
1.198828125
1.4332763671875
1.6105224609375
1.6806152343749998
1.8022705078124999
1.8232177734375
1.8022705078124999
1.7893798828124998
1.76279296875
1.5114257812499998
0.042700195312499994
0.71220703125
0.994189453125
1.284228515625
2.0230224609375
2.25263671875
3.0478271484375
3.04541015625
2.55234375
2.1462890624999997
1.716064453125
1.5887695312499999
1.590380859375
1.574267578125
1.5605712890624999
1.5484863281249999
1.4139404296875
1.4445556640625
1.482421875
1.49853515625
1.4928955078125
3.0446044921874997
2.6901123046874997
2.309033203125
1.96904296875
1.5484863281249999
1.2157470703125
0.03544921875
0.0378662109375
0.042700195312499994
0.38349609375
0.8443359374999999
1.152099609375
1.2415283203124998
1.577490234375
1.683837890625
1.85625
1.8103271484374999
1.7652099609374998
1.7507080078125
1.751513671875
1.6459716796875
0.0346435546875
0.31259765624999997
0.9353759765624999
1.2963134765625
1.7015624999999999
2.035107421875
3.0446044921874997
3.0429931640624996
2.8939453124999996
2.2631103515624997
1.928759765625
1.67900390625
1.6411376953124999
1.5637939453124998
1.5347900390625
1.58232421875
1.4389160156249998
1.4308593749999998
1.4348876953124998
1.4437499999999999
1.490478515625
3.043798828125
3.043798828125
2.333203125
2.135009765625
1.7015624999999999
1.1835205078125
0.0475341796875
0.04189453125
0.038671874999999994
0.3198486328125
0.733154296875
1.0731445312499999
1.271337890625
1.5533203125
1.6459716796875
1.7748779296875
1.8635009765625
1.893310546875
1.843359375
1.7579589843749999
1.65966796875
0.038671874999999994
0.0958740234375
0.8467529296874999
1.1738525390624999
1.62744140625
1.9956298828124999
2.7996826171875
3.0478271484375
2.8963623046875
2.4290771484375
2.0343017578125
1.6451660156249999
1.6040771484374998
1.5283447265624999
1.5412353515625
1.574267578125
1.4268310546874998
1.4961181640624999
1.4800048828124999
1.474365234375
1.4687255859375
3.04541015625
3.04541015625
2.4693603515625
2.1954345703125
1.8280517578125
1.3478759765625
0.8354736328125
0.0378662109375
0.038671874999999994
0.19497070312499998
0.6405029296875
1.01513671875
1.1939941406249999
1.397021484375
1.6242187499999998
1.77890625
1.7507080078125
1.78857421875
1.77568359375
1.7587646484375
1.7168701171874998
0.038671874999999994
0.0378662109375
0.69609375
1.0610595703124999
1.4308593749999998
1.9078125
2.4927246093749997
3.0413818359375
3.043798828125
2.6143798828125
2.0890869140625
1.8143554687499999
1.6532226562499999
1.585546875
1.561376953125
1.6040771484374998
1.44052734375
1.4477783203124999
1.4268310546874998
1.4252197265625
1.48564453125
1.4767822265625
3.0446044921874997
2.5144775390625
2.1865722656249997
2.02060546875
1.3365966796875
0.8789794921874999
0.0378662109375
0.04189453125
0.136962890625
0.5446289062499999
0.8596435546875
1.2374999999999998
1.3921875
1.5863525390625
1.6765869140624998
1.7442626953125
1.796630859375
1.7426513671875
1.735400390625
1.7088134765624998
1.6725585937499998
0.0378662109375
0.6066650390625
0.97646484375
1.2173583984375
1.8312744140625
2.0568603515625
3.0405761718749997
3.0478271484375
2.6925292968749996
2.276806640625
1.8167724609375
1.6081054687499998
1.5678222656249998
1.5267333984375
1.5645996093749999
1.4493896484375
1.4880615234374999
1.4501953125
1.461474609375
1.4356933593749999
1.4606689453125
3.043798828125
2.8955566406249997
2.389599609375
2.101171875
1.6346923828125
1.1738525390624999
0.0394775390625
0.037060546874999996
0.0394775390625
0.33354492187499996
0.8386962890624999
1.1698242187499999
1.3108154296874999
1.538818359375
1.477587890625
1.7200927734375
1.843359375
1.8224121093749999
1.7635986328125
1.7047851562499998
1.6435546875
0.038671874999999994
0.09990234375
0.9885498046875
1.3027587890624999
1.6725585937499998
2.02060546875
3.0446044921874997
3.0405761718749997
2.8609130859375
2.2993652343749997
1.9271484374999999
1.7080078125
1.5460693359375
1.4961181640624999
1.4606689453125
1.3720458984375
1.464697265625
1.4679199218749999
1.4832275390624998
1.4945068359375
1.50498046875
3.0429931640624996
3.0381591796875
2.357373046875
2.1632080078125
1.6363037109374998
1.2350830078125
0.6211669921874999
0.037060546874999996
0.0378662109375
0.2876220703125
0.7033447265624999
1.1110107421875
1.219775390625
1.493701171875
1.5944091796875
1.6846435546874998
1.7942138671874999
1.8175781249999998
1.791796875
1.7450683593749998
1.738623046875
0.0378662109375
0.038671874999999994
0.7774658203125
1.0634765625
1.5565429687499999
1.9601806640625
2.4451904296875
3.0494384765625
3.0228515624999996
2.463720703125
1.960986328125
1.73056640625
1.7184814453125
1.5404296874999999
1.5533203125
1.4397216796874999
1.4445556640625
1.3929931640625
1.4308593749999998
1.4816162109375
1.480810546875
2.495947265625
3.043798828125
2.5289794921874997
2.02705078125
1.8473876953125
1.3591552734374999
0.5220703125
0.038671874999999994
0.038671874999999994
0.15871582031249998
0.5824951171875
0.94423828125
1.198828125
1.4195800781249999
1.577490234375
1.6886718749999998
1.8304687499999999
1.80791015625
1.8103271484374999
1.751513671875
1.6951171875
0.8934814453125
0.0394775390625
0.7669921875
1.0828125
1.405078125
1.9972412109375
2.373486328125
3.043798828125
3.0446044921874997
2.5338134765625
2.135009765625
1.8812255859375
1.5944091796875
1.571044921875
1.571044921875
1.5090087890625
1.533984375
1.4526123046875
1.45341796875
1.4687255859375
1.4961181640624999
1.5315673828124998
3.043798828125
2.591015625
2.2880859375
1.925537109375
1.3728515625
0.9812988281249999
0.040283203125
0.038671874999999994
0.053173828124999996
0.4842041015625
0.9724365234375
1.2439453125
1.368017578125
1.5597656249999998
1.6781982421875
1.66611328125
1.844970703125
1.770849609375
1.7499023437499999
1.7289550781249998
1.4751708984374998
0.038671874999999994
0.5132080078125
1.0191650390625
1.3446533203125
1.7619873046874999
2.02060546875
3.0446044921874997
3.0446044921874997
2.7489257812499996
2.1970458984375
1.8385253906249999
1.6209960937499999
1.603271484375
1.538818359375
1.5460693359375
1.4058837890625
1.384130859375
1.44052734375
1.480810546875
1.4816162109375
1.4864501953125
3.043798828125
3.05185546875
2.3525390625
2.1003662109375
1.6781982421875
1.15048828125
0.038671874999999994
0.041088867187499996
0.041088867187499996
0.4149169921875
0.7919677734374999
1.0707275390625
1.27294921875
1.542041015625
1.6209960937499999
1.7668212890625
1.7668212890625
1.79501953125
1.8071044921875
1.7531249999999998
1.658056640625
0.038671874999999994
0.3681884765625
0.95068359375
1.158544921875
1.716064453125
2.031884765625
2.8359375
3.0413818359375
2.78759765625
2.4177978515625
2.0085205078125
1.6653076171874999
1.6266357421875
1.5355957031249998
1.5718505859374998
1.5782958984375
1.3849365234375
1.3954101562499999
1.4445556640625
1.456640625
1.4348876953124998
3.0429931640624996
3.04541015625
2.383154296875
2.11083984375
1.7208984374999998
1.2399169921875
0.5865234375
0.038671874999999994
0.037060546874999996
0.2586181640625
0.6952880859374999
1.09892578125
1.2785888671874999
1.4816162109375
1.6701416015625
1.6024658203125
1.8538330078124998
1.815966796875
1.7813232421874998
1.7579589843749999
1.65
0.0394775390625
0.0378662109375
0.765380859375
1.14404296875
1.4888671875
1.944873046875
2.72958984375
3.043798828125
3.043798828125
2.41376953125
1.989990234375
1.73056640625
1.5758789062499998
1.442138671875
1.542041015625
1.5436523437499998
1.4074951171874999
1.47275390625
1.474365234375
1.5082031249999999
1.506591796875
1.6266357421875
3.04541015625
2.437939453125
2.1615966796875
1.9456787109375
1.2955078125
0.7565185546875
0.033837890625
0.03544921875
0.20705566406249998
0.6010253906249999
0.9410156249999999
1.3027587890624999
1.4348876953124998
1.5960205078124998
1.7378173828124999
1.767626953125
1.8224121093749999
1.7603759765625
1.7370117187499998
1.67900390625
1.5444580078124999
0.0394775390625
0.66064453125
0.9676025390624999
1.4308593749999998
1.9948242187499998
2.23974609375
3.0446044921874997
3.0470214843749996
2.5434814453124996
2.1309814453125
1.7345947265625
1.590380859375
1.5702392578125
1.5009521484375
1.577490234375
1.577490234375
1.4477783203124999
1.506591796875
1.46953125
1.4896728515625
1.4953124999999998
3.04541015625
2.6377441406249997
2.1487060546875
1.941650390625
1.4816162109375
1.18916015625
0.040283203125
0.038671874999999994
0.040283203125
0.5567138671874999
0.8789794921874999
1.1698242187499999
1.3083984375
1.6129394531249999
1.6733642578124999
1.812744140625
1.8135498046874998
1.7821289062499999
1.75634765625
1.7120361328125
1.6814208984374999
0.0362548828125
0.30615234375
0.9595458984374999
1.2568359375
1.690283203125
2.1261474609374997
3.0462158203125
3.0446044921874997
2.6917236328125
2.2147705078124997
1.8788085937499999
1.6524169921874998
1.587158203125
1.554931640625
1.55009765625
1.4598632812499999
1.4364990234375
1.442138671875
1.4912841796874998
1.4872558593749998
1.5009521484375
3.043798828125
2.7867919921874997
2.3315917968749997
2.135009765625
1.651611328125
1.1698242187499999
0.0394775390625
0.0394775390625
0.0378662109375
0.372216796875
0.6123046875
1.232666015625
1.2955078125
1.5557373046874998
1.6878662109375
1.79501953125
1.8119384765625
1.7329833984374998
1.8087158203125
1.7499023437499999
1.6636962890625
0.041088867187499996
0.165966796875
0.881396484375
1.2866455078124999
1.61455078125
1.977099609375
2.7126708984374996
3.0421875
2.8721923828125
2.405712890625
1.869140625
1.625830078125
1.5347900390625
1.5162597656249999
1.506591796875
1.585546875
1.413134765625
1.4711425781249998
1.5251220703125
1.506591796875
1.4767822265625
3.04541015625
3.0429931640624996
2.302587890625
2.144677734375
1.7813232421874998
1.3220947265624998
0.502734375
0.038671874999999994
0.042700195312499994
0.30937499999999996
0.78310546875
1.0787841796875
1.2640869140625
1.5186767578125
1.619384765625
1.7329833984374998
1.7740722656249999
1.791796875
1.7821289062499999
1.7362060546875
1.683837890625
0.0362548828125
0.038671874999999994
0.8427246093749999
1.1255126953124999
1.41796875
1.9730712890625
2.518505859375
3.043798828125
2.9543701171874996
2.3904052734375
2.0101318359375
1.7539306640624999
1.5670166015625
1.546875
1.6250244140624999
1.5355957031249998
1.409912109375
1.42119140625
1.442138671875
1.458251953125
1.3873535156249999
1.4550292968749998
3.0446044921874997
2.5072265624999996
2.196240234375
1.8981445312499998
1.3365966796875
0.8822021484375
0.0580078125
0.0394775390625
0.1998046875
0.5406005859374999
0.9966064453125
1.2181640624999999
1.3720458984375
1.6089111328124999
1.77890625
1.7217041015624999
1.7893798828124998
1.7595703125
1.740234375
1.7531249999999998
0.6896484374999999
0.04189453125
0.6324462890625
0.9772705078124999
1.4228027343749998
1.8884765625
2.0737792968749997
3.043798828125
3.0446044921874997
2.6659423828124997
2.1148681640625
1.82080078125
1.6056884765625
1.5645996093749999
1.5766845703124999
1.5557373046874998
1.4848388671875
1.4389160156249998
1.4364990234375
1.4558349609374999
1.4550292968749998
1.474365234375
3.04541015625
2.8214355468749996
2.2534423828125
1.9956298828124999
1.6048828124999999
0.9917724609374999
0.041088867187499996
0.04189453125
0.08540039062499999
0.5357666015625
0.8999267578125
1.2052734375
1.3502929687499998
1.506591796875
1.6177734375
1.65
1.8828369140624999
1.9070068359374999
1.7724609375
1.7233154296875
1.6177734375
0.042700195312499994
0.6002197265625
1.1561279296875
1.329345703125
1.8304687499999999
2.0343017578125
3.043798828125
3.0421875
2.6458007812499997
2.2751953124999997
1.8949218749999999
1.6008544921874999
1.5565429687499999
1.5283447265624999
1.5041748046874999
1.353515625
1.4445556640625
1.5090087890625
1.5122314453124999
1.4993408203124998
1.5122314453124999
3.043798828125
2.9656494140625
2.2743896484375
2.03994140625
1.6717529296875
1.2028564453125
0.5865234375
0.0362548828125
0.0362548828125
0.33515625
0.84755859375
1.1593505859375
1.297119140625
1.480810546875
1.61455078125
1.6959228515625
1.7942138671874999
1.8087158203125
1.7740722656249999
1.7176757812499999
1.6266357421875
0.0378662109375
0.04189453125
0.7943847656249999
1.1666015625
1.6121337890624998
2.0181884765625
3.0429931640624996
3.04541015625
3.0099609375
2.3340087890625
1.977099609375
1.7200927734375
1.6105224609375
1.5355957031249998
1.6137451171875
1.4840332031249999
1.426025390625
1.3881591796875
1.429248046875
1.4397216796874999
1.4389160156249998
2.5450927734374997
3.04541015625
2.3654296875
2.1680419921875
1.8473876953125
1.206884765625
0.223974609375
0.0378662109375
0.0394775390625
0.2715087890625
0.678369140625
0.9901611328125
1.2528076171875
1.533984375
1.6395263671875
1.6443603515624998
1.8095214843749998
1.77568359375
1.7603759765625
1.7603759765625
1.6733642578124999
0.7959960937499999
0.0378662109375
0.8588378906249999
1.0272216796875
1.4896728515625
1.9392333984374999
2.325146484375
3.0462158203125
3.0462158203125
2.5644287109375
2.1664306640624997
1.754736328125
1.6379150390625
1.5380126953125
1.546875
1.4711425781249998
1.525927734375
1.41796875
1.4373046875
1.432470703125
1.458251953125
1.8054931640624998
3.0462158203125
2.5692626953124997
2.1390380859375
1.9247314453125
1.3478759765625
0.9547119140625
0.038671874999999994
0.037060546874999996
0.091845703125
0.6751464843749999
1.0239990234375
1.303564453125
1.361572265625
1.6048828124999999
1.6588623046875
1.6105224609375
1.8087158203125
1.9432617187499999
1.77568359375
1.7047851562499998
1.4606689453125
0.0346435546875
0.47373046874999997
0.8185546874999999
1.393798828125
1.780517578125
2.26552734375
3.0429931640624996
3.043798828125
2.52978515625
2.10439453125
1.8908935546874999
1.6935058593749999
1.5799072265624998
1.5557373046874998
1.5509033203125
1.538818359375
1.4461669921875
1.4711425781249998
1.4679199218749999
1.5194824218749998
1.5001464843749999
3.04541015625
2.6369384765625
2.350927734375
2.0689453125
1.47275390625
1.14404296875
0.038671874999999994
0.037060546874999996
0.0378662109375
0.40605468749999996
0.7718261718749999
1.1214843749999999
1.2963134765625
1.5001464843749999
1.6040771484374998
1.690283203125
1.7942138671874999
1.799853515625
1.7418457031249999
1.7426513671875
1.71123046875
0.0346435546875
0.298095703125
0.8129150390625
1.148876953125
1.5718505859374998
1.9432617187499999
2.8931396484375
3.0446044921874997
2.889111328125
2.5313964843749996
2.047998046875
1.8054931640624998
1.71123046875
1.6000488281249998
1.5968261718749999
1.5702392578125
1.4397216796874999
1.4526123046875
1.45341796875
1.482421875
1.5251220703125
3.0470214843749996
3.0429931640624996
2.560400390625
2.3001708984375
1.8538330078124998
1.3672119140624999
0.15468749999999998
0.041088867187499996
0.0378662109375
0.19013671875
0.5124023437499999
0.871728515625
0.97646484375
1.3011474609375
1.4655029296875
1.4574462890625
1.8038818359375
1.8369140625
1.796630859375
1.7764892578125
1.6806152343749998
0.04189453125
0.0346435546875
0.7081787109375
0.8991210937499999
1.2656982421874998
1.869140625
2.6780273437499997
3.0421875
3.0421875
2.6933349609375
2.3033935546874997
2.0101318359375
1.7901855468749999
1.6363037109374998
1.6524169921874998
1.7378173828124999
1.456640625
1.4687255859375
1.4953124999999998
1.4816162109375
1.493701171875
1.7128417968749998
3.0429931640624996
2.6232421875
2.3984619140625
2.0214111328124997
1.49853515625
0.813720703125
0.038671874999999994
0.0394775390625
0.038671874999999994
0.3633544921875
0.7420166015624999
0.9466552734375
1.1053710937499999
1.3075927734375
1.5001464843749999
1.7208984374999998
1.8199951171875
1.8216064453124998
1.79501953125
1.754736328125
0.0378662109375
0.038671874999999994
0.4970947265625
0.6574218749999999
1.147265625
1.716064453125
2.225244140625
3.0413818359375
3.0446044921874997
2.79404296875
2.3807373046875
2.09150390625
1.8522216796875
1.783740234375
1.71123046875
1.6218017578125
1.477587890625
1.4759765624999999
1.50498046875
1.5033691406249998
1.4832275390624998
1.4518066406249999
3.043798828125
2.9261718749999996
2.4943359375
2.350927734375
1.8473876953125
1.058642578125
0.037060546874999996
0.0378662109375
0.0346435546875
0.2263916015625
0.49306640625
0.7661865234374999
1.06669921875
1.271337890625
1.4373046875
1.7096191406249999
1.74345703125
1.770849609375
1.69189453125
1.783740234375
1.6685302734374998
0.038671874999999994
0.40283203125
0.6388916015624999
0.8926757812499999
1.6105224609375
2.0890869140625
3.0462158203125
3.04541015625
2.963232421875
2.6514404296875
2.34287109375
1.9907958984374998
1.8788085937499999
1.7740722656249999
1.6951171875
1.571044921875
1.445361328125
1.429248046875
1.4493896484375
1.4518066406249999
1.4373046875
3.043798828125
3.0446044921874997
2.7046142578124996
2.392822265625
1.9303710937499998
1.5033691406249998
0.03544921875
0.0394775390625
0.037060546874999996
0.10554199218749999
0.41411132812499996
0.710595703125
0.7863281249999999
1.2205810546875
1.40830078125
1.6717529296875
1.7345947265625
1.8651123046875
1.8538330078124998
1.9505126953124998
1.74345703125
0.038671874999999994
0.04189453125
0.57041015625
0.781494140625
1.2528076171875
1.8143554687499999
3.0478271484375
3.04541015625
3.0405761718749997
2.642578125
2.3017822265625
2.0012695312499997
1.9231201171874999
1.7458740234374999
1.6822265625
1.748291015625
1.5404296874999999
1.496923828125
1.482421875
1.4880615234374999
1.513037109375
3.04541015625
3.0413818359375
2.6562744140624996
2.5982666015625
2.2083251953125
1.4953124999999998
0.4680908203125
0.038671874999999994
0.0394775390625
0.037060546874999996
0.343212890625
0.64775390625
0.8403076171874999
1.1061767578125
1.2906738281249999
1.5911865234375
1.716064453125
1.828857421875
1.8046875
1.799853515625
1.7104248046875
0.038671874999999994
0.04189453125
0.501123046875
0.7661865234374999
1.2963134765625
1.8369140625
2.7078369140625
3.04541015625
3.043798828125
2.719921875
2.3823486328125
2.012548828125
1.8554443359375
1.7579589843749999
1.6878662109375
1.6636962890625
1.409912109375
1.4308593749999998
1.4300537109375
1.4195800781249999
1.46630859375
3.0147949218749996
3.0462158203125
2.5950439453125
2.5982666015625
2.3291748046875
1.6781982421875
1.026416015625
0.033837890625
0.041088867187499996
0.040283203125
0.2255859375
0.5083740234374999
0.7581298828124999
0.9861328125
1.2866455078124999
1.6024658203125
1.6749755859375
1.796630859375
1.7934082031249998
1.8183837890624999
1.7499023437499999
0.2650634765625
0.03544921875
0.39799804687499996
0.7226806640625
1.0006347656249999
1.6371093749999999
2.4258544921875
3.043798828125
3.043798828125
2.8625244140625
2.5821533203125
2.260693359375
2.0044921875
1.8465820312499999
1.7450683593749998
1.7096191406249999
1.5436523437499998
1.44052734375
1.4219970703125
1.4300537109375
1.4123291015625
1.4751708984374998
3.0429931640624996
2.8375488281249996
2.6063232421875
2.4758056640625
1.7289550781249998
1.1077880859375
0.0362548828125
0.0394775390625
0.033837890625
0.20463867187499998
0.4310302734375
0.7734375
0.9273193359374999
1.3591552734374999
1.4107177734374998
1.4171630859375
1.7571533203124998
1.803076171875
1.82080078125
1.6967285156249998
1.7732666015624998
0.0378662109375
0.17482910156249998
0.58974609375
0.8725341796874999
1.3100097656249998
1.764404296875
3.0446044921874997
3.043798828125
3.0421875
2.70380859375
2.289697265625
1.95615234375
1.8739746093749998
1.7571533203124998
1.7184814453125
1.445361328125
1.5533203125
1.5396240234374998
1.5202880859374999
1.4840332031249999
1.4953124999999998
3.0446044921874997
3.0421875
2.76826171875
2.60068359375
2.1462890624999997
1.5791015625
0.038671874999999994
0.040283203125
0.038671874999999994
0.046728515624999994
0.294873046875
0.476953125
0.6380859375
0.9869384765625
1.26328125
1.40830078125
1.7362060546875
1.8304687499999999
1.8578613281249998
1.8361083984375
1.8095214843749998
0.0394775390625
0.038671874999999994
0.44230957031249996
0.6050537109374999
1.0336669921875
1.703173828125
3.043798828125
3.0413818359375
3.0486328124999997
2.882666015625
2.5757080078124996
2.3340087890625
2.141455078125
1.9182861328124998
1.8796142578125
1.699951171875
1.5831298828125
1.506591796875
1.4187744140624998
1.3704345703124998
1.3607666015625
2.8311035156249997
3.0413818359375
3.0099609375
2.8931396484375
2.3646240234375
1.7764892578125
0.6662841796875
0.0378662109375
0.0394775390625
0.0378662109375
0.0515625
0.29245605468749997
0.38994140624999996
0.6662841796875
0.990966796875
1.119873046875
1.513037109375
1.6234130859375
1.7362060546875
1.8062988281249999
1.8361083984375
0.038671874999999994
0.041088867187499996
0.25217285156249997
0.2553955078125
0.6163330078125
1.26005859375
1.9730712890625
3.04541015625
3.04541015625
3.0429931640624996
2.8995849609374997
2.6699707031249997
2.4983642578125
2.3726806640625
2.1728759765625
1.931982421875
1.8892822265625
1.5662109375
1.5017578125
1.4840332031249999
1.4469726562499998
1.8183837890624999
3.0397705078125
3.0478271484375
3.0429931640624996
3.037353515625
2.4258544921875
1.3728515625
0.0362548828125
0.04189453125
0.037060546874999996
0.038671874999999994
0.037060546874999996
0.057202148437499996
0.2102783203125
0.4640625
0.6662841796875
1.1496826171874999
1.3212890625
1.461474609375
1.585546875
1.7257324218749999
1.5009521484375
0.0394775390625
0.038671874999999994
0.046728515624999994
0.2618408203125
0.7629638671875
1.6798095703125
3.0446044921874997
3.0429931640624996
3.0470214843749996
3.04541015625
2.9430908203125
2.8166015625
2.6095458984374997
2.457275390625
2.333203125
2.16884765625
1.8312744140625
1.754736328125
1.6201904296874998
1.5686279296874999
1.5009521484375
3.0413818359375
3.0429931640624996
3.043798828125
3.0446044921874997
2.5177001953125
2.0262451171875
0.04189453125
0.038671874999999994
0.037060546874999996
0.037060546874999996
0.041088867187499996
0.038671874999999994
0.049145507812499996
0.30856933593749997
0.5631591796875
0.75087890625
1.1142333984375
1.33740234375
1.46630859375
1.5887695312499999
1.6604736328124998
0.0378662109375
0.04189453125
0.0378662109375
0.12568359375
0.45439453124999996
1.0111083984375
3.0421875
3.04541015625
3.0446044921874997
3.0429931640624996
3.0421875
2.9479248046874997
2.94873046875
2.792431640625
2.666748046875
2.4693603515625
2.1068115234375
1.957763671875
1.7926025390625
1.6725585937499998
1.5186767578125
3.0470214843749996
3.0446044921874997
3.043798828125
3.043798828125
2.7827636718749997
2.125341796875
0.34965820312499996
0.0362548828125
0.038671874999999994
0.038671874999999994
0.0346435546875
0.03544921875
0.0378662109375
0.32871093749999997
0.44633789062499996
0.6429199218749999
1.052197265625
1.26005859375
1.429248046875
1.5645996093749999
1.5895751953125
0.03544921875
0.0346435546875
0.0378662109375
0.042700195312499994
0.34562988281249996
1.0304443359375
2.0858642578124997
3.0429931640624996
3.0470214843749996
3.04541015625
3.0397705078125
2.8560791015625
2.8012939453124996
2.5724853515625
2.5475097656249996
2.631298828125
2.147900390625
1.980322265625
1.780517578125
1.6403320312499998
1.5484863281249999
3.04541015625
3.0446044921874997
3.04541015625
3.0413818359375
2.824658203125
2.26875
1.377685546875
0.040283203125
0.038671874999999994
0.0378662109375
0.037060546874999996
0.04189453125
0.049951171875
0.18852539062499998
0.40927734374999997
0.5663818359375
0.9490722656249999
1.2624755859374999
1.4356933593749999
1.5976318359375
1.69189453125
0.0394775390625
0.038671874999999994
0.0378662109375
0.0878173828125
0.3158203125
0.942626953125
2.260693359375
3.0470214843749996
3.0405761718749997
3.04541015625
3.0429931640624996
2.9100585937499996
2.747314453125
2.6103515625
2.4999755859375
2.3638183593749997
1.9658203125
1.9456787109375
1.8087158203125
1.4542236328125
1.5146484375
1.4848388671875
3.0478271484375
3.043798828125
3.0429931640624996
3.04541015625
2.36865234375
1.5758789062499998
0.043505859375
0.038671874999999994
0.04189453125
0.0394775390625
0.0378662109375
0.041088867187499996
0.16838378906249998
0.36174316406249996
0.575244140625
0.9901611328125
1.158544921875
1.3027587890624999
1.4791992187499998
1.5911865234375
1.6209960937499999
0.0346435546875
0.0378662109375
0.038671874999999994
0.12810058593749998
0.9007324218749999
1.4437499999999999
3.0486328124999997
3.043798828125
3.0446044921874997
3.04541015625
2.9986816406249996
2.8149902343749997
2.7287841796874996
2.6699707031249997
2.4999755859375
2.36865234375
2.023828125
1.8892822265625
1.6927001953124998
1.554931640625
1.4832275390624998
3.043798828125
3.04541015625
3.0462158203125
3.0446044921874997
2.6224365234375
2.1648193359375
0.3633544921875
0.0394775390625
0.03544921875
0.038671874999999994
0.0394775390625
0.038671874999999994
0.0362548828125
0.34562988281249996
0.543017578125
0.61552734375
1.0642822265625
1.33740234375
1.5170654296875
1.6435546875
1.67578125
0.0378662109375
0.0378662109375
0.038671874999999994
0.054785156249999994
0.5534912109375
1.0078857421875
3.04541015625
3.043798828125
3.043798828125
3.0429931640624996
3.0421875
2.8818603515624996
2.8037109375
2.608740234375
2.5322021484375
2.65869140625
2.0947265625
1.9408447265625
1.8296630859374998
1.748291015625
1.574267578125
3.04541015625
3.0478271484375
3.0470214843749996
3.043798828125
2.872998046875
2.196240234375
1.018359375
0.0394775390625
0.038671874999999994
0.0394775390625
0.04189453125
0.038671874999999994
0.0378662109375
0.19094238281249998
0.3633544921875
0.69609375
0.9394042968749999
1.2318603515625
1.4139404296875
1.6137451171875
1.658056640625
0.038671874999999994
0.042700195312499994
0.038671874999999994
0.038671874999999994
0.21914062499999998
1.0223876953125
1.9996582031249999
3.04541015625
3.04541015625
3.0478271484375
3.043798828125
2.8810546875
2.753759765625
2.7030029296875
2.5740966796875
2.3557617187499997
2.006103515625
1.964208984375
1.75634765625
1.8328857421875
1.5815185546875
1.5114257812499998
3.0470214843749996
3.0470214843749996
3.04541015625
2.8963623046875
2.3726806640625
1.6540283203125
0.0394775390625
0.04189453125
0.04189453125
0.0394775390625
0.040283203125
0.0394775390625
0.1740234375
0.43022460937499996
0.7879394531249999
0.8983154296875
1.1110107421875
1.3543212890624998
1.5267333984375
1.6371093749999999
0.14824218749999998
0.0394775390625
0.0378662109375
0.0394775390625
0.27392578125
0.881396484375
1.3728515625
3.0470214843749996
3.043798828125
3.0470214843749996
3.04541015625
2.9430908203125
2.81015625
2.7666503906249997
2.5966552734375
2.4967529296874997
2.2469970703124997
1.998046875
1.8538330078124998
1.7337890624999999
1.571044921875
1.4912841796874998
3.0429931640624996
3.04541015625
3.0413818359375
3.0421875
2.6748046875
1.6894775390624999
0.09829101562499999
0.038671874999999994
0.0362548828125
0.033837890625
0.038671874999999994
0.06767578125
0.0990966796875
0.30051269531249997
0.5422119140625
0.6574218749999999
1.2044677734375
1.3301513671874998
1.4671142578124998
1.6282470703124998
1.6773925781249999
0.038671874999999994
0.037060546874999996
0.041088867187499996
0.061230468749999996
0.47050781249999996
1.0836181640625
3.043798828125
3.0413818359375
3.043798828125
3.0446044921874997
2.94873046875
2.7521484375
2.698974609375
2.5612060546874997
2.4524414062499997
2.0439697265625
2.03671875
1.8441650390625
1.7208984374999998
1.5927978515624999
1.533984375
3.0429931640624996
3.0429931640624996
3.0413818359375
3.04541015625
2.771484375
2.247802734375
1.0836181640625
0.0394775390625
0.040283203125
0.0362548828125
0.040283203125
0.0394775390625
0.042700195312499994
0.233642578125
0.517236328125
0.7629638671875
1.0119140625
1.3220947265624998
1.52109375
1.6846435546874998
1.716064453125
0.0362548828125
0.038671874999999994
0.0475341796875
0.1329345703125
0.49467773437499996
1.0368896484374999
3.0204345703124997
3.04541015625
3.0478271484375
3.0429931640624996
2.9970703125
2.848828125
2.7666503906249997
2.6748046875
2.5652343749999997
2.3154785156249997
2.0987548828125
1.9247314453125
1.786962890625
1.7039794921875
1.5960205078124998
2.9761230468749997
3.043798828125
3.0470214843749996
3.0486328124999997
2.8834716796874997
2.1857666015625
1.2866455078124999
0.0298095703125
0.0394775390625
0.038671874999999994
0.04189453125
0.0394775390625
0.0539794921875
0.2795654296875
0.5309326171875
0.8185546874999999
1.1053710937499999
1.2447509765625
1.361572265625
1.5573486328125
1.5944091796875
0.5953857421875
0.0378662109375
0.038671874999999994
0.0362548828125
0.2360595703125
0.9466552734375
1.7297607421874999
3.04541015625
3.043798828125
3.0446044921874997
3.0446044921874997
2.840771484375
2.7239501953125
2.62646484375
2.537841796875
2.33642578125
2.2429687499999997
1.9658203125
1.835302734375
1.7176757812499999
1.5960205078124998
1.941650390625
3.043798828125
3.0421875
3.04541015625
3.01318359375
2.4427734375
1.7748779296875
0.04189453125
0.0378662109375
0.038671874999999994
0.04189453125
0.041088867187499996
0.09345703124999999
0.058813476562499994
0.38913574218749997
0.5599365234375
0.5841064453125
1.2044677734375
1.4010498046875
1.5299560546875
1.6403320312499998
1.3849365234375
0.038671874999999994
0.040283203125
0.037060546874999996
0.20302734374999998
0.639697265625
1.4961181640624999
3.043798828125
3.043798828125
3.04541015625
3.04541015625
2.8995849609374997
2.7755126953125
2.63935546875
2.4677490234375
2.128564453125
2.2171875
1.9223144531249998
1.8546386718749999
1.799853515625
1.65
1.60166015625
3.04541015625
3.043798828125
3.043798828125
3.04541015625
2.489501953125
2.0455810546874997
0.17482910156249998
0.03544921875
0.038671874999999994
0.0378662109375
0.03544921875
0.061230468749999996
0.09748535156249999
0.37382812499999996
0.5373779296875
0.8403076171874999
1.173046875
1.3204833984375
1.5267333984375
1.63388671875
1.6685302734374998
0.037060546874999996
0.038671874999999994
0.1377685546875
0.0966796875
0.5132080078125
1.0852294921874999
2.6055175781249997
3.0421875
3.04541015625
3.04541015625
3.0397705078125
2.83271484375
2.7739013671875
2.6039062499999996
2.518505859375
2.3718749999999997
2.14306640625
1.87236328125
1.77890625
1.6201904296874998
1.5476806640624998
3.04541015625
3.0446044921874997
3.0486328124999997
3.0446044921874997
2.7747070312499997
2.4121582031249997
0.32065429687499997
0.038671874999999994
0.0394775390625
0.0378662109375
0.038671874999999994
0.0394775390625
0.11440429687499999
0.42941894531249997
0.5132080078125
0.5567138671874999
1.106982421875
1.2963134765625
1.4010498046875
1.56298828125
1.6475830078125
0.038671874999999994
0.0394775390625
0.0555908203125
0.10634765624999999
0.420556640625
1.0014404296875
2.0431640625
3.0421875
3.0413818359375
3.0486328124999997
3.0244628906249997
2.866552734375
2.7046142578124996
2.47822265625
2.4613037109375
2.3420654296875
2.0012695312499997
1.8900878906249998
1.7442626953125
1.5968261718749999
1.525927734375
1.5887695312499999
3.04541015625
3.04541015625
3.0429931640624996
2.979345703125
2.2953369140624997
1.4332763671875
0.0394775390625
0.03544921875
0.038671874999999994
0.038671874999999994
0.0394775390625
0.104736328125
0.25217285156249997
0.4970947265625
0.807275390625
1.0167480468749999
1.1964111328125
1.340625
1.5565429687499999
1.6089111328124999
1.6000488281249998
0.0394775390625
0.0394775390625
0.0515625
0.32951660156249996
0.9490722656249999
1.5597656249999998
3.043798828125
3.0446044921874997
3.043798828125
3.043798828125
2.81015625
2.6176025390624997
2.5628173828125
2.4234375
2.4484130859374997
2.1785156249999997
1.8820312499999998
1.7466796875
1.6234130859375
1.5911865234375
1.4872558593749998
3.0478271484375
3.043798828125
3.0446044921874997
3.02607421875
2.5410644531249997
2.0584716796875
0.037060546874999996
0.0394775390625
0.038671874999999994
0.040283203125
0.038671874999999994
0.0797607421875
0.12568359375
0.46728515625
0.6533935546874999
0.966796875
1.235888671875
1.361572265625
1.5251220703125
1.6717529296875
1.67578125
0.0394775390625
0.0378662109375
0.0394775390625
0.17644042968749998
0.5937744140625
1.3672119140624999
3.0446044921874997
3.043798828125
3.0421875
3.0429931640624996
2.9898193359375
2.7916259765625
2.6868896484375
2.6055175781249997
2.4419677734375
2.1825439453124997
1.9682373046875
1.8304687499999999
1.6612792968749999
1.5404296874999999
1.509814453125
3.0446044921874997
3.0446044921874997
3.0446044921874997
3.04541015625
2.6885009765624996
2.167236328125
0.3440185546875
0.0394775390625
0.0394775390625
0.040283203125
0.038671874999999994
0.1087646484375
0.11762695312499999
0.32871093749999997
0.549462890625
1.05380859375
1.1021484375
1.3253173828125
1.5194824218749998
1.6435546875
1.69189453125
0.0394775390625
0.038671874999999994
0.09990234375
0.038671874999999994
0.6002197265625
1.1931884765625
1.9988525390624998
3.0446044921874997
3.0446044921874997
3.0446044921874997
2.963232421875
2.82626953125
2.7013916015625
2.54267578125
2.3597900390624997
2.4129638671875
1.8820312499999998
1.7329833984374998
1.59521484375
1.5323730468749999
1.4348876953124998
3.0446044921874997
3.043798828125
3.04541015625
3.04541015625
2.7972656249999996
2.2590820312499997
1.0675048828125
0.0394775390625
0.0346435546875
0.0378662109375
0.03544921875
0.0797607421875
0.1377685546875
0.3843017578125
0.591357421875
1.0336669921875
1.1150390625
1.4252197265625
1.5517089843749998
1.6636962890625
1.7289550781249998
0.038671874999999994
0.040283203125
0.058813476562499994
0.19094238281249998
0.37302246093749997
1.0167480468749999
1.9432617187499999
3.0462158203125
3.0478271484375
3.0462158203125
2.937451171875
2.8230468749999997
2.7102539062499997
2.4766113281249997
2.34609375
2.2349121093749997
1.8989501953124999
1.803076171875
1.7088134765624998
1.577490234375
1.506591796875
1.4477783203124999
3.0429931640624996
3.04541015625
3.0413818359375
3.001904296875
2.286474609375
1.545263671875
0.1329345703125
0.03544921875
0.0394775390625
0.040283203125
0.0394775390625
0.1377685546875
0.28359375
0.5164306640624999
0.8983154296875
1.0530029296874999
1.3551269531249999
1.5283447265624999
1.6701416015625
1.7523193359375
1.7426513671875
0.038671874999999994
0.038671874999999994
0.1716064453125
0.423779296875
1.0167480468749999
1.4928955078125
3.0486328124999997
3.04541015625
3.04541015625
3.043798828125
2.8359375
2.6723876953124996
2.578125
2.3549560546875
2.17529296875
1.8973388671875
1.8071044921875
1.6403320312499998
1.5299560546875
1.4840332031249999
1.4244140625
3.0470214843749996
3.0446044921874997
3.0365478515624997
2.9712890625
2.5394531249999996
1.9529296875
0.0378662109375
0.040283203125
0.038671874999999994
0.037060546874999996
0.041088867187499996
0.17482910156249998
0.2054443359375
0.546240234375
0.8056640625
1.090869140625
1.3744628906249998
1.5557373046874998
1.7055908203124999
1.7579589843749999
1.7595703125
0.038671874999999994
0.04189453125
0.20705566406249998
0.3182373046875
0.800830078125
1.4276367187499999
3.04541015625
3.04541015625
3.0462158203125
3.0413818359375
2.631298828125
2.5918212890624996
2.4419677734375
2.2880859375
2.1825439453124997
1.7990478515625
1.8119384765625
1.654833984375
1.5645996093749999
1.5331787109375
1.4896728515625
3.0421875
3.0446044921874997
2.9092529296875
3.0333251953125
2.52978515625
1.9456787109375
1.0223876953125
0.038671874999999994
0.038671874999999994
0.0378662109375
0.042700195312499994
0.20625
0.2771484375
0.5035400390625
0.7903564453124999
0.878173828125
1.3607666015625
1.5782958984375
1.738623046875
1.819189453125
1.8175781249999998
0.041088867187499996
0.04189453125
0.2135009765625
0.3714111328125
0.7806884765625
1.3285400390625
2.126953125
3.0478271484375
3.0446044921874997
3.0462158203125
2.82626953125
2.6079345703124996
2.4322998046874997
2.1245361328125
2.1148681640625
1.8425537109374999
1.7265380859375
1.577490234375
1.5001464843749999
1.4461669921875
1.4066894531249998
2.14951171875
3.043798828125
2.874609375
2.85205078125
2.7642333984375
2.0874755859375
1.08603515625
0.0394775390625
0.03544921875
0.0378662109375
0.04189453125
0.1426025390625
0.3037353515625
0.597802734375
0.7645751953125
1.018359375
1.474365234375
1.53076171875
1.6636962890625
1.69189453125
1.8167724609375
1.36962890625
0.038671874999999994
0.21591796875
0.348046875
0.6131103515624999
1.4139404296875
2.0391357421875
3.0478271484375
3.0429931640624996
3.043798828125
2.9390625
2.689306640625
2.3968505859375
2.2727783203125
2.1406494140625
1.9843505859375
2.0093261718749997
1.5799072265624998
1.4832275390624998
1.40185546875
1.329345703125
1.3285400390625
3.0421875
3.04541015625
2.989013671875
2.784375
2.152734375
1.6218017578125
0.037060546874999996
0.0394775390625
0.038671874999999994
0.0394775390625
0.23122558593749998
0.36174316406249996
0.4713134765625
0.765380859375
1.06025390625
1.2286376953125
1.5436523437499998
1.6854492187499999
1.82080078125
1.864306640625
1.8183837890624999
0.0378662109375
0.03544921875
0.39396972656249996
0.5615478515625
1.1738525390624999
1.542041015625
3.04541015625
3.0405761718749997
3.04541015625
2.856884765625
2.76181640625
2.373486328125
2.2276611328125
2.0109375
1.9537353515625
1.7466796875
1.45341796875
1.50498046875
1.4606689453125
1.4461669921875
1.4252197265625
3.04541015625
3.0462158203125
2.9350341796875
2.818212890625
2.3823486328125
1.714453125
0.116015625
0.038671874999999994
0.038671874999999994
0.0378662109375
0.14421386718749998
0.32065429687499997
0.4809814453125
0.8644775390624999
1.0570312499999999
1.4268310546874998
1.5404296874999999
1.7015624999999999
1.815966796875
1.8409423828125
1.8344970703124999
0.038671874999999994
0.038671874999999994
0.298095703125
0.41008300781249996
0.9877441406249999
1.5001464843749999
2.6176025390624997
3.0446044921874997
3.043798828125
3.0429931640624996
2.784375
2.4516357421875
2.2727783203125
2.03994140625
2.0568603515625
2.11728515625
1.6298583984375
1.538818359375
1.416357421875
1.3744628906249998
1.34384765625
3.0413818359375
3.0462158203125
2.8552734374999997
2.8754150390624997
2.4596923828125
1.8635009765625
1.100537109375
0.038671874999999994
0.0378662109375
0.0394775390625
0.11843261718749999
0.2537841796875
0.394775390625
0.6405029296875
1.007080078125
1.1915771484375
1.5573486328125
1.638720703125
1.72734375
1.87236328125
1.9658203125
0.038671874999999994
0.0394775390625
0.275537109375
0.45358886718749997
0.8113037109375
1.4389160156249998
2.3259521484375
3.043798828125
3.04541015625
3.043798828125
2.8012939453124996
2.578125
2.3178955078125
2.080224609375
2.0488037109375
1.9110351562499999
1.5654052734375
1.5267333984375
1.4735595703125
1.4461669921875
1.3929931640625
1.3551269531249999
3.0462158203125
2.9704833984374996
2.7585937499999997
2.6860839843749997
1.948095703125
1.1408203125
0.0378662109375
0.038671874999999994
0.0394775390625
0.037060546874999996
0.21914062499999998
0.4439208984375
0.605859375
0.9031494140624999
1.123095703125
1.30517578125
1.6242187499999998
1.7442626953125
1.864306640625
1.8667236328124999
1.8336914062499998
0.038671874999999994
0.111181640625
0.36899414062499997
0.58330078125
1.3172607421875
1.7740722656249999
3.0446044921874997
3.0421875
3.0446044921874997
2.8689697265625
2.534619140625
2.3066162109375
2.1213134765625
1.9456787109375
1.8135498046874998
1.5484863281249999
1.5460693359375
1.4711425781249998
1.4574462890625
1.4542236328125
1.4373046875
3.0446044921874997
3.043798828125
3.011572265625
2.7416748046875
2.2550537109374997
1.7249267578124998
0.03544921875
0.04189453125
0.038671874999999994
0.0394775390625
0.1941650390625
0.407666015625
0.49790039062499997
0.8886474609374999
1.158544921875
1.4872558593749998
1.6822265625
1.770849609375
1.8578613281249998
1.87236328125
1.7821289062499999
0.038671874999999994
0.038671874999999994
0.4318359375
0.578466796875
1.007080078125
1.7047851562499998
3.0421875
3.04541015625
3.0462158203125
2.9124755859375
2.6691650390625
2.405712890625
2.2171875
2.0633056640625
1.8925048828125
1.6346923828125
1.6089111328124999
1.4888671875
1.4469726562499998
1.43408203125
1.3849365234375
3.0486328124999997
3.04541015625
2.7948486328124997
2.7988769531249997
2.3033935546874997
1.73056640625
0.27392578125
0.03544921875
0.038671874999999994
0.038671874999999994
0.06606445312499999
0.32871093749999997
0.39638671875
0.7629638671875
1.0223876953125
1.3865478515624998
1.4920898437499999
1.65
1.7990478515625
1.8876708984375
1.877197265625
0.038671874999999994
0.041088867187499996
0.269091796875
0.4640625
0.992578125
1.5605712890624999
2.1052001953125
3.04541015625
3.043798828125
3.043798828125
2.689306640625
2.4097412109375
2.2002685546875
2.022216796875
1.9263427734374998
1.7329833984374998
1.5654052734375
1.4920898437499999
1.4671142578124998
1.429248046875
1.377685546875
2.6103515625
3.04541015625
3.0139892578125
2.8093505859374996
2.5877929687499996
1.9062011718749998
0.8531982421875
0.0378662109375
0.04189453125
0.038671874999999994
0.149853515625
0.3279052734375
0.5671875
0.8354736328125
1.0771728515624999
1.3019531249999998
1.5758789062499998
1.69833984375
1.770849609375
1.8328857421875
1.8087158203125
0.8830078124999999
0.0394775390625
0.36899414062499997
0.5132080078125
0.837890625
1.6169677734374999
2.2453857421875
3.0486328124999997
3.0470214843749996
3.043798828125
2.7730957031249996
2.4556640625
2.1664306640624997
2.04638671875
1.8876708984375
1.6975341796874999
1.6330810546874999
1.5009521484375
1.6363037109374998
1.400244140625
1.3825195312499998
1.3752685546874999
3.0462158203125
3.0494384765625
2.6103515625
2.5579833984375
1.893310546875
1.3744628906249998
0.0378662109375
0.038671874999999994
0.038671874999999994
0.0394775390625
0.34160156249999996
0.5067626953125
0.6807861328125
0.9788818359375
1.2640869140625
1.2930908203125
1.6572509765624999
1.7539306640624999
1.8417480468749998
1.8369140625
1.799853515625
0.0394775390625
0.0362548828125
0.43425292968749996
0.7532958984375
1.2592529296875
1.770849609375
3.0462158203125
3.0446044921874997
3.0429931640624996
2.9221435546874996
2.5168945312499997
2.238134765625
2.135009765625
1.9352050781249999
1.8618896484374998
1.6185791015625
1.4751708984374998
1.43408203125
1.397021484375
1.319677734375
1.34384765625
3.043798828125
3.0470214843749996
2.85849609375
2.6852783203125
2.2405517578125
1.542041015625
0.038671874999999994
0.037060546874999996
0.0394775390625
0.0378662109375
0.1651611328125
0.41813964843749996
0.6163330078125
0.936181640625
1.2060791015624999
1.3212890625
1.6991455078125
1.7982421874999999
1.8425537109374999
1.8715576171875
1.78857421875
0.037060546874999996
0.037060546874999996
0.47373046874999997
0.5849121093749999
1.0046630859374999
1.6910888671875
2.979345703125
3.0478271484375
3.0421875
2.9156982421874997
2.618408203125
2.1889892578125
1.9754882812499999
1.8296630859374998
1.8522216796875
1.7813232421874998
1.5347900390625
1.4920898437499999
1.4550292968749998
1.409912109375
1.4010498046875
3.0429931640624996
3.043798828125
2.7722900390625
2.6949462890625
2.23330078125
1.6572509765624999
0.849169921875
0.037060546874999996
0.0362548828125
0.0378662109375
0.17080078124999998
0.459228515625
0.6332519531249999
0.878173828125
1.2181640624999999
1.2431396484375
1.6733642578124999
1.8232177734375
1.920703125
1.93681640625
1.8828369140624999
0.038671874999999994
0.038671874999999994
0.4084716796875
0.5953857421875
0.9402099609375
1.571044921875
2.827880859375
3.0470214843749996
3.0462158203125
2.9865966796874996
2.6031005859375
2.3291748046875
2.0431640625
1.84013671875
1.786962890625
1.6524169921874998
1.380908203125
1.4429443359374998
1.3921875
1.3639892578125
1.3994384765624999
1.456640625
3.0446044921874997
2.802099609375
2.5894042968749997
2.505615234375
1.7450683593749998
1.02802734375
0.038671874999999994
0.0394775390625
0.0362548828125
0.2384765625
0.36979980468749996
0.6324462890625
0.9176513671875
1.206884765625
1.3994384765624999
1.8570556640625
1.7555419921875
1.869140625
1.9021728515624998
1.864306640625
1.8022705078124999
0.037060546874999996
0.3552978515625
0.5164306640624999
0.7798828124999999
1.5533203125
2.126953125
3.0446044921874997
3.0446044921874997
3.0478271484375
2.7239501953125
2.3066162109375
2.0625
1.9513183593749999
1.796630859375
1.7168701171874998
1.6588623046875
1.3962158203125
1.36962890625
1.3599609375
1.3873535156249999
1.4219970703125
3.04541015625
3.0421875
2.744091796875
2.4749999999999996
1.948095703125
1.542041015625
0.0378662109375
0.03544921875
0.037060546874999996
0.046728515624999994
0.33837890625
0.5736328125
0.7146240234375
1.11181640625
1.34384765625
1.65
1.8344970703124999
1.864306640625
1.8812255859375
1.8908935546874999
1.7909912109375
0.0378662109375
0.0346435546875
0.5824951171875
0.9192626953124999
1.348681640625
1.931982421875
3.0470214843749996
3.0470214843749996
3.0462158203125
2.7086425781249996
2.3718749999999997
2.0818359374999997
1.9311767578124999
1.7926025390625
1.662890625
1.3688232421875
1.40830078125
1.40830078125
1.458251953125
1.20849609375
1.3551269531249999
3.0446044921874997
3.0470214843749996
2.69091796875
2.6401611328124996
2.035107421875
1.4735595703125
0.348046875
0.037060546874999996
0.038671874999999994
0.033837890625
0.3101806640625
0.688037109375
0.839501953125
1.168212890625
1.368017578125
1.6717529296875
1.69189453125
1.8473876953125
1.8167724609375
1.8199951171875
1.7692382812499998
0.03544921875
0.038671874999999994
0.475341796875
0.7097900390624999
1.3285400390625
1.8441650390625
2.5144775390625
3.043798828125
3.0462158203125
2.8536621093749996
2.466943359375
2.165625
1.9553466796874999
1.7797119140625
1.65
1.6371093749999999
1.3285400390625
1.3599609375
1.3317626953125
1.3382080078124998
1.3623779296874998
3.0421875
3.0429931640624996
2.745703125
2.6119628906249996
2.29453125
1.6048828124999999
0.5373779296875
0.0378662109375
0.0394775390625
0.038671874999999994
0.4318359375
0.5212646484375
0.7460449218749999
1.084423828125
1.3269287109374999
1.6943115234375
1.5815185546875
1.8135498046874998
1.8465820312499999
1.8240234375
1.7845458984375
0.20625
0.038671874999999994
0.42861328125
0.7557128906249999
1.1279296875
1.77890625
2.447607421875
3.0405761718749997
3.0429931640624996
2.8141845703125
2.5160888671875
2.215576171875
1.8820312499999998
1.7378173828124999
1.670947265625
1.4606689453125
1.4671142578124998
1.397021484375
1.4195800781249999
1.4501953125
1.456640625
1.4510009765624998
3.043798828125
2.76826171875
2.5894042968749997
2.2792236328124997
1.6314697265625
0.98291015625
0.040283203125
0.037060546874999996
0.0362548828125
0.22316894531249998
0.5470458984375
0.8016357421875
0.9676025390624999
1.2076904296875
1.5041748046874999
1.5001464843749999
1.8175781249999998
1.8578613281249998
1.87236328125
1.832080078125
1.0932861328124999
0.0378662109375
0.2940673828125
0.5865234375
0.9861328125
1.558154296875
1.9714599609374999
3.04541015625
3.0446044921874997
2.9817626953125
2.4500244140625
2.1293701171875
1.867529296875
1.764404296875
1.7120361328125
1.6056884765625
1.351904296875
1.4139404296875
1.4558349609374999
1.4711425781249998
1.5944091796875
1.47275390625
3.0446044921874997
2.9825683593749996
2.689306640625
2.431494140625
1.9505126953124998
1.2697265624999998
0.0394775390625
0.038671874999999994
0.04189453125
0.23122558593749998
0.4922607421875
0.6912597656249999
0.9869384765625
1.27294921875
1.493701171875
1.6209960937499999
1.8393310546875
1.851416015625
1.88525390625
1.861083984375
1.7829345703125
0.038671874999999994
0.1200439453125
0.6630615234374999
0.8386962890624999
1.4912841796874998
1.91748046875
3.043798828125
3.04541015625
3.0462158203125
2.6401611328124996
2.3291748046875
1.9940185546875
1.8892822265625
1.7257324218749999
1.641943359375
1.5283447265624999
1.4308593749999998
1.3857421875
1.3833251953124999
1.384130859375
1.3728515625
3.04541015625
3.04541015625
2.592626953125
2.4322998046874997
2.0093261718749997
1.4630859374999998
0.46083984375
0.0346435546875
0.038671874999999994
0.040283203125
0.39719238281249997
0.69287109375
0.8934814453125
1.1964111328125
1.4413330078125
1.51787109375
1.8304687499999999
1.8707519531249999
1.8046875
1.7571533203124998
1.716064453125
0.038671874999999994
0.0362548828125
0.6114990234375
0.8370849609375
1.2568359375
1.79501953125
2.6603027343749996
3.04541015625
3.0429931640624996
2.7996826171875
2.3468994140625
2.0576660156249997
1.82080078125
1.6282470703124998
1.64677734375
1.529150390625
1.4155517578124999
1.429248046875
1.4147460937499998
1.4332763671875
1.4501953125
1.861083984375
3.0421875
2.6498291015624997
2.4484130859374997
2.2292724609375
1.4284423828125
0.72509765625
0.0394775390625
0.037060546874999996
0.04189453125
0.436669921875
0.671923828125
0.9394042968749999
1.1666015625
1.3752685546874999
1.5041748046874999
1.7893798828124998
1.869140625
1.8699462890624998
1.8489990234375
1.8054931640624998
1.5597656249999998
0.038671874999999994
0.5486572265624999
0.7677978515624999
1.1496826171874999
1.8224121093749999
2.296142578125
3.0446044921874997
3.0446044921874997
2.7988769531249997
2.408935546875
2.0109375
1.7732666015624998
1.6612792968749999
1.5404296874999999
1.5436523437499998
1.571044921875
1.448583984375
1.4445556640625
1.4461669921875
1.458251953125
1.4800048828124999
3.0421875
2.8802490234375
2.5716796874999996
2.1728759765625
1.5919921874999998
1.2890625
0.03544921875
0.038671874999999994
0.0394775390625
0.26828613281249997
0.6711181640624999
0.9966064453125
1.0642822265625
1.4397216796874999
1.603271484375
1.7136474609374999
1.861083984375
1.8240234375
1.851416015625
1.7982421874999999
1.683837890625
0.041088867187499996
0.10231933593749999
0.7323486328125
1.0642822265625
1.5573486328125
2.1760986328125
3.0446044921874997
3.04541015625
3.027685546875
2.447607421875
2.1180908203124997
1.8578613281249998
1.7200927734375
1.6153564453125
1.5911865234375
1.5082031249999999
1.3792968749999999
1.3784912109374998
1.3921875
1.40830078125
1.429248046875
3.0429931640624996
2.9745117187499996
2.49755859375
2.3235351562499997
1.7926025390625
1.3285400390625
0.0346435546875
0.03544921875
0.038671874999999994
0.1699951171875
0.4278076171875
0.871728515625
1.0409179687499999
1.4123291015625
1.5436523437499998
1.8602783203125
1.7772949218749998
1.832080078125
1.8409423828125
1.8062988281249999
1.73056640625
0.0378662109375
0.0378662109375
0.66064453125
0.9240966796875
1.509814453125
1.9352050781249999
2.56845703125
3.0470214843749996
3.0421875
2.69736328125
2.19140625
1.8828369140624999
1.7249267578124998
1.5621826171875
1.56298828125
1.5364013671874999
1.368017578125
1.4066894531249998
1.4598632812499999
1.41796875
1.442138671875
3.0446044921874997
3.0494384765625
2.6280761718749996
2.3791259765625
1.92392578125
1.44052734375
0.452783203125
0.033032226562499996
0.037060546874999996
0.0475341796875
0.559130859375
0.849169921875
1.0916748046875
1.3470703124999999
1.5090087890625
1.67900390625
1.7893798828124998
1.8626953124999999
1.861083984375
1.8183837890624999
1.8022705078124999
0.037060546874999996
0.0394775390625
0.5905517578125
0.9087890624999999
1.24716796875
1.9231201171874999
2.487890625
3.0446044921874997
3.0486328124999997
2.63935546875
2.2792236328124997
1.9746826171874998
1.7023681640625
1.6072998046875
1.5799072265624998
1.4920898437499999
1.37607421875
1.4058837890625
1.4236083984374999
1.4767822265625
1.4638916015624999
1.5057861328125
3.0462158203125
2.6296874999999997
2.3799316406249997
1.9891845703125
1.426025390625
1.055419921875
0.038671874999999994
0.0378662109375
0.04189453125
0.39396972656249996
0.82177734375
0.865283203125
1.252001953125
1.4759765624999999
1.7426513671875
1.7217041015624999
1.832080078125
1.783740234375
1.7080078125
1.7611816406249998
0.75732421875
0.0378662109375
0.533349609375
0.849169921875
1.2479736328125
1.79501953125
2.1946289062499997
3.04541015625
3.04541015625
2.8302978515625
2.334814453125
1.9875732421874999
1.7337890624999999
1.6540283203125
1.55009765625
1.5404296874999999
1.4107177734374998
1.3962158203125
1.4066894531249998
1.4195800781249999
1.4381103515625
1.4236083984374999
3.043798828125
2.989013671875
2.399267578125
2.173681640625
1.7362060546875
1.04736328125
0.0378662109375
0.0394775390625
0.0346435546875
0.3343505859375
0.6348632812499999
0.9482666015625
1.255224609375
1.4920898437499999
1.6314697265625
1.7208984374999998
1.8369140625
1.835302734375
1.819189453125
1.7490966796874998
1.6806152343749998
0.0394775390625
0.394775390625
0.8346679687499999
1.074755859375
1.67578125
1.989990234375
3.0470214843749996
3.0462158203125
2.900390625
2.5555664062499996
2.0625
1.6798095703125
1.61455078125
1.5170654296875
1.55009765625
1.542041015625
1.4461669921875
1.4477783203124999
1.4888671875
1.4872558593749998
1.464697265625
3.04541015625
3.0421875
2.5031982421874996
2.2913085937499997
1.796630859375
1.276171875
0.5446289062499999
0.038671874999999994
0.038671874999999994
0.19013671875
0.6380859375
0.9837158203124999
1.15693359375
1.3962158203125
1.5960205078124998
1.6564453124999998
1.8054931640624998
1.8256347656249998
1.796630859375
1.7845458984375
1.72734375
0.0394775390625
0.037060546874999996
0.6630615234374999
1.0409179687499999
1.5412353515625
1.9682373046875
3.0470214843749996
3.0462158203125
3.0405761718749997
2.457275390625
2.0504150390625
1.8111328125
1.6556396484375
1.5082031249999999
1.5235107421874998
1.4026611328124998
1.37607421875
1.41796875
1.426025390625
1.4590576171874998
1.4477783203124999
2.3525390625
3.04541015625
2.495947265625
2.309033203125
2.0310791015625
1.3148437499999999
0.6413085937499999
0.038671874999999994
0.0378662109375
0.20302734374999998
0.4962890625
0.8241943359374999
1.1319580078125
1.4091064453125
1.533984375
1.5025634765625
1.85625
1.8578613281249998
1.8296630859374998
1.8183837890624999
1.740234375
1.0981201171875
0.037060546874999996
0.6840087890625
0.9345703125
1.5194824218749998
1.9432617187499999
2.450830078125
3.04541015625
3.0446044921874997
2.6965576171874996
2.3178955078125
1.8626953124999999
1.6435546875
1.5847412109374999
1.574267578125
1.482421875
1.55009765625
1.3688232421875
1.4139404296875
1.4429443359374998
1.4550292968749998
1.60166015625
3.0470214843749996
2.6941406249999997
2.270361328125
2.0729736328125
1.4671142578124998
1.069921875
0.0378662109375
0.038671874999999994
0.038671874999999994
0.48259277343749996
0.8161376953124999
1.0884521484375
1.22138671875
1.5565429687499999
1.62744140625
1.6572509765624999
1.828857421875
1.8143554687499999
1.8046875
1.78857421875
1.6314697265625
0.041088867187499996
0.3746337890625
0.9095947265625
1.2656982421874998
1.658056640625
2.2590820312499997
3.0446044921874997
3.043798828125
2.8206298828125
2.28486328125
1.944873046875
1.6822265625
1.5484863281249999
1.4864501953125
1.4864501953125
1.522705078125
1.4348876953124998
1.4381103515625
1.4655029296875
1.4526123046875
1.4574462890625
3.043798828125
2.8625244140625
2.4846679687499997
2.193017578125
1.5557373046874998
1.14404296875
0.038671874999999994
0.0394775390625
0.04189453125
0.39638671875
0.7541015624999999
1.1150390625
1.2238037109375
1.493701171875
1.5927978515624999
1.7901855468749999
1.8336914062499998
1.8683349609375
1.8054931640624998
1.7732666015624998
1.6669189453125
0.0394775390625
0.18288574218749998
0.85400390625
1.077978515625
1.66611328125
1.9867675781249998
2.9269775390625
3.0429931640624996
2.924560546875
2.4766113281249997
1.98515625
1.7249267578124998
1.6153564453125
1.480810546875
1.5364013671874999
1.58232421875
1.3728515625
1.4203857421875
1.4437499999999999
1.4574462890625
1.4622802734375
3.043798828125
3.04541015625
2.4677490234375
2.1744873046874997
1.7821289062499999
1.2818115234374998
0.0555908203125
0.038671874999999994
0.038671874999999994
0.18852539062499998
0.64453125
0.952294921875
1.1641845703125
1.53076171875
1.5976318359375
1.611328125
1.79501953125
1.7853515624999998
1.8095214843749998
1.7684326171875
1.65966796875
0.03544921875
0.0346435546875
0.784716796875
1.0513916015625
1.3768798828125
2.0423583984375
2.5563720703125
3.0429931640624996
3.04541015625
2.5644287109375
2.152734375
1.6927001953124998
1.6250244140624999
1.5073974609374998
1.5404296874999999
1.5984375
1.3583496093749998
1.4058837890625
1.46953125
1.474365234375
1.4783935546875
1.4896728515625
3.043798828125
2.489501953125
2.1954345703125
1.843359375
1.3527099609375
0.78310546875
0.0378662109375
0.0378662109375
0.1716064453125
0.51884765625
0.990966796875
1.216552734375
1.3752685546874999
1.5364013671874999
1.8054931640624998
1.8046875
1.8602783203125
1.8046875
1.7660156249999999
1.699951171875
0.0652587890625
0.0362548828125
0.6429199218749999
0.881396484375
1.405078125
1.9150634765624999
2.20751953125
3.0462158203125
3.043798828125
2.6788330078125
2.13662109375
1.843359375
1.6572509765624999
1.56943359375
1.5235107421874998
1.5194824218749998
1.4542236328125
1.4356933593749999
1.4542236328125
1.461474609375
1.4953124999999998
1.4872558593749998
3.0429931640624996
2.9769287109375
2.3009765625
2.047998046875
1.5565429687499999
0.9063720703125
0.037060546874999996
0.0394775390625
0.038671874999999994
0.47050781249999996
0.8040527343749999
1.1110107421875
1.3285400390625
1.5122314453124999
1.538818359375
1.651611328125
1.867529296875
1.8554443359375
1.8344970703124999
1.7724609375
1.6967285156249998
0.040283203125
0.565576171875
0.94423828125
1.1617675781249999
1.767626953125
2.1309814453125
3.04541015625
3.04541015625
2.72958984375
2.309033203125
1.9029785156249999
1.6242187499999998
1.5654052734375
1.574267578125
1.558154296875
1.4219970703125
1.4042724609375
1.4026611328124998
1.456640625
1.4848388671875
1.474365234375
3.0470214843749996
2.94873046875
2.3807373046875
2.0971435546875
1.6185791015625
1.224609375
0.124072265625
0.0378662109375
0.03544921875
0.2876220703125
0.752490234375
1.0852294921874999
1.219775390625
1.496923828125
1.6862548828125
1.8828369140624999
1.8071044921875
1.7652099609374998
1.7555419921875
1.7329833984374998
1.6781982421875
0.0394775390625
0.0378662109375
0.7210693359375
1.12470703125
1.60166015625
2.1382324218749997
3.0446044921874997
3.0429931640624996
3.0429931640624996
2.512060546875
2.0004638671875
1.8328857421875
1.6314697265625
1.5726562499999999
1.5621826171875
1.6056884765625
1.4501953125
1.4058837890625
1.4219970703125
1.4501953125
1.5025634765625
2.979345703125
3.0421875
2.3710693359375
2.209130859375
1.8393310546875
1.2221923828124999
0.48259277343749996
0.038671874999999994
0.0378662109375
0.27634277343749997
0.6356689453125
0.9893554687499999
1.2777832031249998
1.5009521484375
1.6483886718749998
1.7829345703125
1.85947265625
1.8425537109374999
1.8087158203125
1.7281494140625
1.6806152343749998
0.32871093749999997
0.0378662109375
0.7395996093749999
1.1110107421875
1.413134765625
1.9795166015624999
2.383154296875
3.0478271484375
3.04541015625
2.55234375
2.1180908203124997
1.7208984374999998
1.5678222656249998
1.5114257812499998
1.49853515625
1.345458984375
1.4493896484375
1.4276367187499999
1.4840332031249999
1.4671142578124998
1.4953124999999998
2.1438720703125
3.0470214843749996
2.578125
2.3009765625
1.9247314453125
1.3792968749999999
0.9917724609374999
0.040283203125
0.0346435546875
0.0362548828125
0.38671875
0.8564208984374999
1.1754638671875
1.3631835937499999
1.6306640625
1.76279296875
1.6910888671875
1.8385253906249999
1.8248291015625
1.783740234375
1.7499023437499999
1.2769775390625
0.038671874999999994
0.5389892578125
0.9982177734375
1.3317626953125
1.80791015625
2.405712890625
3.043798828125
3.0429931640624996
2.7247558593749996
2.1889892578125
1.85625
1.6266357421875
1.577490234375
1.5484863281249999
1.5686279296874999
1.5879638671874998
1.3559326171875
1.4147460937499998
1.4308593749999998
1.4316650390624999
1.4558349609374999
3.0486328124999997
2.6482177734374996
2.373486328125
2.1438720703125
1.4840332031249999
1.087646484375
0.0378662109375
0.033837890625
0.040283203125
0.44150390624999997
0.791162109375
1.1738525390624999
1.276171875
1.49853515625
1.622607421875
1.780517578125
1.8498046874999998
1.80791015625
1.722509765625
1.6975341796874999
1.6306640625
0.038671874999999994
0.3988037109375
0.9144287109375
1.134375
1.722509765625
2.035107421875
3.0462158203125
3.0421875
2.7996826171875
2.3936279296875
1.88525390625
1.6588623046875
1.5750732421875
1.4888671875
1.5355957031249998
1.490478515625
1.4469726562499998
1.4058837890625
1.48564453125
1.4671142578124998
1.4671142578124998
3.0446044921874997
3.0421875
2.4685546874999997
2.0133544921874997
1.7217041015624999
1.284228515625
0.038671874999999994
0.041088867187499996
0.0394775390625
0.22075195312499998
0.7339599609374999
1.074755859375
1.2399169921875
1.5758789062499998
1.6765869140624998
1.5839355468749998
1.8312744140625
1.8377197265624998
1.8377197265624998
1.7764892578125
1.651611328125
0.038671874999999994
0.038671874999999994
0.8838134765625
1.16015625
1.4888671875
2.0214111328124997
3.04541015625
3.04541015625
3.0421875
2.421826171875
1.989990234375
1.6733642578124999
1.5831298828125
1.43408203125
1.5275390624999998
1.5839355468749998
1.4373046875
1.4606689453125
1.4945068359375
1.4767822265625
1.5073974609374998
1.8884765625
3.0470214843749996
2.4427734375
2.17529296875
1.77568359375
1.2656982421874998
0.7879394531249999
0.037060546874999996
0.03544921875
0.23686523437499998
0.5937744140625
1.0006347656249999
1.18916015625
1.4590576171874998
1.6443603515624998
1.78857421875
1.8498046874999998
1.7934082031249998
1.7660156249999999
1.7692382812499998
1.7265380859375
0.038671874999999994
0.0378662109375
0.688037109375
0.9740478515625
1.4300537109375
1.9569580078125
2.350927734375
3.04541015625
3.04541015625
2.6192138671875
2.0842529296875
1.7845458984375
1.6322753906249998
1.577490234375
1.5484863281249999
1.5146484375
1.5573486328125
1.4074951171874999
1.4493896484375
1.4655029296875
1.45341796875
1.5162597656249999
3.0470214843749996
2.6804443359374996
2.1519287109375
1.998046875
1.4703369140625
0.781494140625
0.038671874999999994
0.038671874999999994
0.1611328125
0.5736328125
0.9345703125
1.2109130859375
1.4042724609375
1.5831298828125
1.6733642578124999
1.8256347656249998
1.8336914062499998
1.7853515624999998
1.76279296875
1.714453125
1.62744140625
0.04189453125
0.62197265625
0.9603515625
1.229443359375
1.8868652343749999
2.1873779296875
3.043798828125
3.0486328124999997
2.6538574218749997
2.273583984375
1.9432617187499999
1.6129394531249999
1.5033691406249998
1.5057861328125
1.5073974609374998
1.405078125
1.4228027343749998
1.432470703125
1.5492919921875
1.5090087890625
1.490478515625
3.043798828125
2.7811523437499996
2.3759033203124997
2.1333984375
1.5509033203125
1.1537109374999999
0.0378662109375
0.0378662109375
0.038671874999999994
0.339990234375
0.8886474609374999
1.2221923828124999
1.316455078125
1.571044921875
1.6951171875
1.8071044921875
1.8183837890624999
1.8111328125
1.7660156249999999
1.7587646484375
1.6532226562499999
0.038671874999999994
0.1635498046875
0.8451416015625
1.1980224609374999
1.6306640625
1.9730712890625
3.0429931640624996
3.043798828125
2.882666015625
2.25263671875
1.931982421875
1.6927001953124998
1.5807128906249999
1.5106201171875
1.5251220703125
1.6620849609375
1.3905761718749998
1.4373046875
1.4356933593749999
1.4268310546874998
1.4880615234374999
3.0446044921874997
3.0486328124999997
2.383154296875
2.196240234375
1.7893798828124998
1.2431396484375
0.25620117187499997
0.0378662109375
0.0378662109375
0.2989013671875
0.6662841796875
1.0143310546875
1.1939941406249999
1.5331787109375
1.6725585937499998
1.82724609375
1.8336914062499998
1.8280517578125
1.7764892578125
1.7080078125
1.6201904296874998
0.038671874999999994
0.038671874999999994
0.7452392578125
1.0771728515624999
1.5976318359375
2.018994140625
2.5458984375
3.0446044921874997
3.001904296875
2.4613037109375
2.1148681640625
1.7217041015624999
1.5517089843749998
1.474365234375
1.5380126953125
1.5509033203125
1.4171630859375
1.4461669921875
1.4606689453125
1.4655029296875
1.4655029296875
2.8544677734375
3.0446044921874997
2.4774169921875
2.1970458984375
1.88525390625
1.3333740234375
0.8572265625
0.03544921875
0.038671874999999994
0.15146484375
0.5260986328125
1.0159423828125
1.297119140625
1.4316650390624999
1.6266357421875
1.843359375
1.7934082031249998
1.7974365234374998
1.799853515625
1.7579589843749999
1.7007568359374998
0.407666015625
