3.0389648437499996
3.0381591796875
3.0397705078125
3.037353515625
3.0397705078125
3.0389648437499996
3.0381591796875
3.0357421875
3.0397705078125
3.0389648437499996
3.0381591796875
3.0405761718749997
3.0389648437499996
3.0381591796875
3.037353515625
3.0389648437499996
3.0357421875
3.0413818359375
0.33273925781249997
0.0346435546875
0.033032226562499996
0.033032226562499996
0.033837890625
0.0322265625
0.03544921875
0.033837890625
0.033032226562499996
0.0443115234375
0.033032226562499996
0.033032226562499996
0.02900390625
0.0314208984375
0.0298095703125
0.0322265625
0.033032226562499996
0.0346435546875
0.033032226562499996
0.0322265625
0.0314208984375
0.033032226562499996
2.196240234375
3.0365478515624997
3.0381591796875
3.0405761718749997
3.037353515625
3.0381591796875
3.0429931640624996
3.0421875
3.0429931640624996
3.0357421875
3.0381591796875
3.0381591796875
3.0405761718749997
3.0381591796875
3.0365478515624997
3.0381591796875
3.0421875
3.0429931640624996
3.034130859375
2.7271728515625
1.5839355468749998
0.033837890625
0.030615234374999998
0.033032226562499996
0.0346435546875
0.0298095703125
0.027392578124999997
0.0346435546875
0.03544921875
0.0322265625
0.03544921875
0.033032226562499996
0.0322265625
0.0298095703125
0.033837890625
0.0322265625
0.0322265625
0.0322265625
0.0322265625
0.033837890625
0.033837890625
0.033032226562499996
1.7716552734375
2.9527587890625
3.0389648437499996
3.0413818359375
3.037353515625
3.0389648437499996
3.0389648437499996
3.0405761718749997
3.0381591796875
3.0429931640624996
3.0389648437499996
3.0397705078125
3.0389648437499996
3.0381591796875
3.037353515625
3.037353515625
3.037353515625
3.0421875
3.0413818359375
3.0389648437499996
1.6935058593749999
0.124072265625
0.033032226562499996
0.030615234374999998
0.0322265625
0.0322265625
0.0322265625
0.033032226562499996
0.03544921875
0.02900390625
0.03544921875
0.033032226562499996
0.0346435546875
0.0362548828125
0.033837890625
0.033837890625
0.0298095703125
0.033837890625
0.0314208984375
0.033032226562499996
0.033032226562499996
0.033837890625
0.23525390624999998
2.75537109375
3.037353515625
3.037353515625
3.0405761718749997
3.0405761718749997
3.037353515625
3.0389648437499996
3.0405761718749997
3.0389648437499996
3.0389648437499996
3.037353515625
3.050244140625
3.0381591796875
3.0397705078125
3.0357421875
3.0389648437499996
3.0421875
3.0381591796875
3.0405761718749997
3.037353515625
0.5373779296875
0.033032226562499996
0.033837890625
0.0314208984375
0.033837890625
0.0362548828125
0.033837890625
0.033032226562499996
0.0322265625
0.033032226562499996
0.0322265625
0.033837890625
0.0322265625
0.0322265625
0.02900390625
0.03544921875
0.0322265625
0.033032226562499996
0.0322265625
0.030615234374999998
0.0298095703125
0.0346435546875
2.109228515625
3.0389648437499996
3.034130859375
3.034130859375
3.0349365234374996
3.0381591796875
3.0389648437499996
3.034130859375
3.037353515625
3.037353515625
3.0357421875
3.037353515625
3.037353515625
3.0421875
3.0397705078125
3.0389648437499996
3.0381591796875
3.0389648437499996
3.0381591796875
3.0389648437499996
1.590380859375
0.033032226562499996
0.030615234374999998
0.033032226562499996
0.033032226562499996
0.033032226562499996
0.0362548828125
0.03544921875
0.03544921875
0.033032226562499996
0.0281982421875
0.0281982421875
0.0322265625
0.0322265625
0.033032226562499996
0.0314208984375
0.0362548828125
0.033032226562499996
0.03544921875
0.03544921875
0.033837890625
0.03544921875
1.3768798828125
3.02607421875
3.0365478515624997
3.0413818359375
3.037353515625
3.0413818359375
3.0421875
3.0421875
3.0357421875
3.0397705078125
3.0389648437499996
3.037353515625
3.037353515625
3.0381591796875
3.034130859375
3.0389648437499996
3.0397705078125
3.037353515625
3.0389648437499996
3.0397705078125
1.7579589843749999
0.4439208984375
0.0346435546875
0.0314208984375
0.0362548828125
0.033032226562499996
0.0298095703125
0.03544921875
0.03544921875
0.033032226562499996
0.0322265625
0.033837890625
0.0346435546875
0.10151367187499999
0.10634765624999999
0.033032226562499996
0.033837890625
0.02900390625
0.0322265625
0.033837890625
0.037060546874999996
0.03544921875
0.033837890625
2.7303955078124997
3.0381591796875
3.0389648437499996
3.037353515625
3.0389648437499996
3.037353515625
3.0365478515624997
3.0397705078125
3.037353515625
3.0389648437499996
3.0381591796875
3.0389648437499996
3.037353515625
3.037353515625
3.037353515625
3.0357421875
3.0389648437499996
3.0413818359375
3.0405761718749997
3.0397705078125
0.7299316406249999
0.033032226562499996
0.0322265625
0.033032226562499996
0.033837890625
0.030615234374999998
0.0322265625
0.0322265625
0.030615234374999998
0.0322265625
0.033837890625
0.033032226562499996
0.033837890625
0.053173828124999996
0.0322265625
0.0322265625
0.033032226562499996
0.030615234374999998
0.0346435546875
0.033032226562499996
0.033032226562499996
0.033032226562499996
1.9086181640625
3.0397705078125
3.0389648437499996
3.0381591796875
3.0357421875
3.037353515625
3.0397705078125
3.0389648437499996
3.0421875
3.0397705078125
3.0413818359375
3.037353515625
3.0421875
3.0405761718749997
3.0365478515624997
3.0357421875
3.0405761718749997
3.0389648437499996
3.0381591796875
3.0389648437499996
1.577490234375
0.03544921875
0.033032226562499996
0.033837890625
0.033837890625
0.033837890625
0.033837890625
0.033032226562499996
0.033032226562499996
0.033837890625
0.033837890625
0.033837890625
0.033032226562499996
0.06767578125
0.0322265625
0.033032226562499996
0.033032226562499996
0.033837890625
0.033837890625
0.033032226562499996
0.0322265625
0.033837890625
1.8328857421875
3.0405761718749997
3.0381591796875
3.0389648437499996
3.0389648437499996
3.0381591796875
3.0365478515624997
3.037353515625
3.0397705078125
3.0389648437499996
3.0381591796875
3.037353515625
3.0381591796875
3.0421875
3.0389648437499996
3.0389648437499996
3.0381591796875
3.0421875
3.0405761718749997
3.0389648437499996
2.56845703125
0.0362548828125
0.033032226562499996
0.033837890625
0.033032226562499996
0.0314208984375
0.0322265625
0.03544921875
0.0322265625
0.033837890625
0.033032226562499996
0.033032226562499996
0.033837890625
0.0684814453125
0.0322265625
0.0346435546875
0.037060546874999996
0.033032226562499996
0.033837890625
0.030615234374999998
0.033032226562499996
0.0322265625
0.049951171875
2.599072265625
3.0357421875
3.037353515625
3.0357421875
3.0397705078125
3.0421875
3.0389648437499996
3.0429931640624996
3.034130859375
3.037353515625
3.0389648437499996
3.0397705078125
3.0357421875
3.0365478515624997
3.0389648437499996
3.0389648437499996
3.0413818359375
3.0357421875
3.0389648437499996
3.0381591796875
0.85400390625
0.033032226562499996
0.033032226562499996
0.03544921875
0.033032226562499996
0.033837890625
0.0314208984375
0.0362548828125
0.0346435546875
0.0322265625
0.033032226562499996
0.033032226562499996
0.0346435546875
0.058813476562499994
0.0322265625
0.033032226562499996
0.033032226562499996
0.033032226562499996
0.0298095703125
0.0362548828125
0.030615234374999998
0.033032226562499996
2.077001953125
3.0357421875
3.0397705078125
3.0349365234374996
3.0349365234374996
3.0413818359375
3.037353515625
3.0389648437499996
3.037353515625
3.0397705078125
3.0357421875
3.034130859375
3.0389648437499996
3.0413818359375
3.0381591796875
3.0405761718749997
3.0357421875
3.0381591796875
3.0413818359375
3.037353515625
1.8546386718749999
0.0362548828125
0.033837890625
0.037060546874999996
0.033032226562499996
0.0346435546875
0.0346435546875
0.0322265625
0.033032226562499996
0.0322265625
0.0910400390625
0.11843261718749999
0.198193359375
0.2956787109375
0.33515625
0.0314208984375
0.033032226562499996
0.033032226562499996
0.0298095703125
0.033032226562499996
0.0362548828125
0.033032226562499996
2.3130615234375
3.0405761718749997
3.0381591796875
3.037353515625
3.0389648437499996
3.0421875
3.0389648437499996
3.0397705078125
3.0397705078125
3.0349365234374996
3.0397705078125
3.0381591796875
3.0389648437499996
3.0413818359375
3.037353515625
3.0397705078125
3.0365478515624997
3.0365478515624997
3.037353515625
3.0357421875
3.0397705078125
0.0346435546875
0.03544921875
0.02900390625
0.033032226562499996
0.0322265625
0.033032226562499996
0.0346435546875
0.0314208984375
0.033837890625
0.033032226562499996
0.038671874999999994
0.1732177734375
0.2384765625
0.28681640625
0.0298095703125
0.033032226562499996
0.033032226562499996
0.033032226562499996
0.033032226562499996
0.033032226562499996
0.0346435546875
2.43955078125
3.0397705078125
3.0365478515624997
3.0357421875
3.0397705078125
3.0381591796875
3.0365478515624997
3.0397705078125
3.0421875
3.0397705078125
3.0381591796875
3.0421875
3.0389648437499996
3.0421875
3.0397705078125
3.0381591796875
3.0421875
3.0381591796875
3.0389648437499996
3.0357421875
2.9390625
1.1939941406249999
0.0298095703125
0.033032226562499996
0.033837890625
0.033837890625
0.0346435546875
0.0362548828125
0.0298095703125
0.0362548828125
0.033032226562499996
0.033837890625
0.030615234374999998
0.1377685546875
0.16274414062499998
0.033032226562499996
0.030615234374999998
0.0346435546875
0.0322265625
0.033837890625
0.0362548828125
0.0346435546875
0.033837890625
3.0381591796875
3.037353515625
3.0405761718749997
3.0381591796875
3.0389648437499996
3.0405761718749997
3.0397705078125
3.037353515625
3.0389648437499996
3.0397705078125
3.037353515625
3.0357421875
3.0357421875
3.0413818359375
3.0405761718749997
3.0397705078125
3.0389648437499996
3.0357421875
3.0357421875
3.0381591796875
1.2834228515625
0.033032226562499996
0.033032226562499996
0.033032226562499996
0.033032226562499996
0.033837890625
0.033032226562499996
0.0322265625
0.030615234374999998
0.0322265625
0.033837890625
0.046728515624999994
0.0990966796875
0.193359375
0.2956787109375
0.033032226562499996
0.0298095703125
0.0314208984375
0.033837890625
0.0346435546875
0.030615234374999998
0.033032226562499996
2.238134765625
3.0389648437499996
3.0389648437499996
3.037353515625
3.0397705078125
3.0381591796875
3.037353515625
3.0357421875
3.0421875
3.0397705078125
3.0397705078125
3.0381591796875
3.0389648437499996
3.0397705078125
3.037353515625
3.0389648437499996
3.0389648437499996
3.0365478515624997
3.0413818359375
3.037353515625
3.0397705078125
0.2183349609375
0.033032226562499996
0.0314208984375
0.0322265625
0.0346435546875
0.03544921875
0.0298095703125
0.033032226562499996
0.033032226562499996
0.0298095703125
0.0322265625
0.0346435546875
0.107958984375
0.14421386718749998
0.033837890625
0.0314208984375
0.030615234374999998
0.0362548828125
0.033032226562499996
0.0322265625
0.033032226562499996
2.6039062499999996
3.0421875
3.0389648437499996
3.0381591796875
3.0389648437499996
3.0389648437499996
3.0381591796875
3.0397705078125
3.037353515625
3.037353515625
3.037353515625
3.0421875
3.0381591796875
3.037353515625
3.0389648437499996
3.0397705078125
3.0397705078125
3.0405761718749997
3.0389648437499996
3.0357421875
3.037353515625
1.1819091796874999
0.0314208984375
0.0362548828125
0.033837890625
0.033837890625
0.03544921875
0.0314208984375
0.033837890625
0.033837890625
0.033032226562499996
0.033032226562499996
0.0346435546875
0.033032226562499996
0.230419921875
0.033032226562499996
0.0314208984375
0.0298095703125
0.033032226562499996
0.033032226562499996
0.033032226562499996
0.0314208984375
0.030615234374999998
2.8359375
3.0397705078125
3.0389648437499996
3.0389648437499996
3.0397705078125
3.0413818359375
3.037353515625
3.0365478515624997
3.0389648437499996
3.0405761718749997
3.0365478515624997
3.04541015625
3.0405761718749997
3.0397705078125
3.0381591796875
3.0389648437499996
3.037353515625
3.0381591796875
3.0381591796875
3.0397705078125
1.1625732421875
0.0314208984375
0.033837890625
0.0322265625
0.033032226562499996
0.033837890625
0.033837890625
0.0298095703125
0.0322265625
0.033837890625
0.033837890625
0.0346435546875
0.050756835937499994
0.149853515625
0.1168212890625
0.03544921875
0.0322265625
0.033032226562499996
0.033032226562499996
0.03544921875
0.033032226562499996
0.037060546874999996
2.1825439453124997
3.0381591796875
3.0381591796875
3.0389648437499996
3.0397705078125
3.0446044921874997
3.0381591796875
3.0381591796875
3.037353515625
3.0381591796875
3.0397705078125
3.0381591796875
3.0397705078125
3.0405761718749997
3.0349365234374996
3.0389648437499996
3.0389648437499996
3.0397705078125
3.0381591796875
3.0365478515624997
3.0389648437499996
0.22075195312499998
0.0362548828125
0.033032226562499996
0.0378662109375
0.0314208984375
0.0346435546875
0.033837890625
0.033032226562499996
0.0314208984375
0.033032226562499996
0.0322265625
0.033837890625
0.0322265625
0.042700195312499994
0.033837890625
0.02900390625
0.0362548828125
0.033837890625
0.0322265625
0.0298095703125
0.033032226562499996
0.033032226562499996
3.0389648437499996
3.0389648437499996
3.0405761718749997
3.0389648437499996
3.0389648437499996
3.0357421875
3.0421875
3.0389648437499996
3.0365478515624997
3.0389648437499996
3.0381591796875
3.0421875
3.0397705078125
3.0397705078125
3.0349365234374996
3.0381591796875
3.0397705078125
3.0389648437499996
3.0397705078125
3.0333251953125
1.2834228515625
0.030615234374999998
0.0298095703125
0.030615234374999998
0.033032226562499996
0.0314208984375
0.023364257812499997
0.033032226562499996
0.0322265625
0.0322265625
0.0298095703125
0.033837890625
0.03544921875
0.1297119140625
0.07412109374999999
0.033032226562499996
0.033032226562499996
0.033837890625
0.0322265625
0.0346435546875
0.033032226562499996
0.033837890625
2.5813476562499997
3.0421875
3.0389648437499996
3.0389648437499996
3.0381591796875
3.0389648437499996
3.0381591796875
3.0381591796875
3.0389648437499996
3.0357421875
3.037353515625
3.0421875
3.0389648437499996
3.0349365234374996
3.0389648437499996
3.0389648437499996
3.0413818359375
3.0381591796875
3.0389648437499996
3.0397705078125
1.3664062499999998
0.0362548828125
0.02900390625
0.033032226562499996
0.0394775390625
0.033032226562499996
0.030615234374999998
0.0322265625
0.0322265625
0.0322265625
0.0322265625
0.037060546874999996
0.045117187499999996
0.1248779296875
0.0926513671875
0.033837890625
0.0314208984375
0.033837890625
0.033837890625
0.033837890625
0.0362548828125
0.0346435546875
2.1615966796875
3.0421875
3.0389648437499996
3.0381591796875
3.0389648437499996
3.0357421875
3.0357421875
3.037353515625
3.037353515625
3.0397705078125
3.0381591796875
3.0397705078125
3.0389648437499996
3.0405761718749997
3.0381591796875
3.0309082031249996
3.0381591796875
3.037353515625
3.037353515625
3.0381591796875
3.0381591796875
1.2455566406249998
0.0322265625
0.0322265625
0.033032226562499996
0.033837890625
0.033032226562499996
0.033032226562499996
0.033032226562499996
0.030615234374999998
0.033032226562499996
0.0322265625
0.0362548828125
0.041088867187499996
0.091845703125
0.033032226562499996
0.033032226562499996
0.033837890625
0.033032226562499996
0.03544921875
0.033032226562499996
0.0298095703125
0.033032226562499996
3.0381591796875
3.0381591796875
3.037353515625
3.0389648437499996
3.0405761718749997
3.0421875
3.0397705078125
3.037353515625
3.0389648437499996
3.0397705078125
3.0389648437499996
3.037353515625
3.0397705078125
3.0405761718749997
3.037353515625
3.0357421875
3.037353515625
3.0381591796875
3.0397705078125
3.0381591796875
1.4679199218749999
0.027392578124999997
0.0314208984375
0.03544921875
0.0362548828125
0.0322265625
0.0314208984375
0.0314208984375
0.033837890625
0.0281982421875
0.033032226562499996
0.08056640625
0.09990234375
0.143408203125
0.1087646484375
0.033837890625
0.0346435546875
0.0322265625
0.033837890625
0.033837890625
0.0314208984375
0.033837890625
2.8778320312499996
3.0357421875
3.037353515625
3.0381591796875
3.0381591796875
3.0381591796875
3.0389648437499996
3.0405761718749997
3.0381591796875
3.0421875
3.0389648437499996
3.0421875
3.034130859375
3.0397705078125
3.037353515625
3.0365478515624997
3.0357421875
3.0389648437499996
3.037353515625
3.0397705078125
1.706396484375
0.17482910156249998
0.03544921875
0.0314208984375
0.033032226562499996
0.033837890625
0.0322265625
0.0322265625
0.02900390625
0.033837890625
0.033032226562499996
0.033032226562499996
0.0322265625
0.0708984375
0.033837890625
0.0322265625
0.0322265625
0.033032226562499996
0.02900390625
0.033837890625
0.033032226562499996
0.0322265625
1.91748046875
3.0397705078125
3.0389648437499996
3.0421875
3.0389648437499996
3.0357421875
3.0397705078125
3.0413818359375
3.0397705078125
3.0389648437499996
3.0389648437499996
3.037353515625
3.0381591796875
3.0381591796875
3.0421875
3.0357421875
3.0349365234374996
3.0397705078125
3.0389648437499996
3.037353515625
3.0421875
0.452783203125
0.0362548828125
0.033837890625
0.033032226562499996
0.03544921875
0.033032226562499996
0.037060546874999996
0.0322265625
0.033032226562499996
0.0314208984375
0.033032226562499996
0.0298095703125
0.0314208984375
0.033837890625
0.0322265625
0.030615234374999998
0.033032226562499996
0.02900390625
0.0298095703125
0.033837890625
0.0298095703125
0.033032226562499996
0.0346435546875
1.6685302734374998
2.3936279296875
3.0333251953125
3.0397705078125
3.0397705078125
3.037353515625
3.0429931640624996
3.0349365234374996
3.0389648437499996
3.0397705078125
3.0405761718749997
3.037353515625
3.0389648437499996
3.0389648437499996
3.0389648437499996
3.037353515625
3.0389648437499996
3.0413818359375
3.0389648437499996
1.5122314453124999
0.033032226562499996
0.0322265625
0.033032226562499996
0.033032226562499996
0.033837890625
0.0346435546875
0.03544921875
0.0362548828125
0.033032226562499996
0.0322265625
0.033032226562499996
0.0322265625
0.033032226562499996
0.0314208984375
0.033837890625
0.0298095703125
0.033837890625
0.0322265625
0.033032226562499996
0.033032226562499996
0.0322265625
0.0322265625
1.2431396484375
2.386376953125
2.7569824218749996
3.0389648437499996
3.037353515625
3.0405761718749997
3.0397705078125
3.0349365234374996
3.0397705078125
3.037353515625
3.0389648437499996
3.037353515625
3.0397705078125
3.037353515625
3.0365478515624997
3.0357421875
3.0389648437499996
3.0381591796875
3.0397705078125
2.8874999999999997
0.6251953124999999
0.0314208984375
0.030615234374999998
0.0322265625
0.033032226562499996
0.0281982421875
0.0314208984375
0.0298095703125
0.0314208984375
0.033032226562499996
0.0346435546875
0.0346435546875
0.033837890625
0.0298095703125
0.033837890625
0.0322265625
0.0346435546875
0.033032226562499996
0.033032226562499996
0.0362548828125
0.033032226562499996
0.033837890625
0.0362548828125
1.944873046875
2.624853515625
3.0349365234374996
3.0389648437499996
3.037353515625
3.0389648437499996
3.0349365234374996
3.0381591796875
3.0389648437499996
3.037353515625
3.0389648437499996
3.0284912109374997
3.037353515625
3.0381591796875
3.0429931640624996
3.0381591796875
3.0421875
3.037353515625
3.0389648437499996
1.7934082031249998
0.0322265625
0.0322265625
0.0298095703125
0.033032226562499996
0.033032226562499996
0.0322265625
0.0346435546875
0.033032226562499996
0.018530273437499998
0.033837890625
0.03544921875
0.033032226562499996
0.033837890625
0.0322265625
0.0346435546875
0.033032226562499996
0.033032226562499996
0.0314208984375
0.0322265625
0.030615234374999998
0.033032226562499996
0.0322265625
1.546875
2.3114501953124997
3.0059326171875
3.0389648437499996
3.0389648437499996
3.0357421875
3.0389648437499996
3.0429931640624996
3.0381591796875
3.0421875
3.0381591796875
3.0389648437499996
3.037353515625
3.037353515625
3.0405761718749997
3.0381591796875
3.0357421875
3.0389648437499996
3.0357421875
1.329345703125
0.0322265625
0.0322265625
0.0281982421875
0.0298095703125
0.033837890625
0.02900390625
0.037060546874999996
0.033837890625
0.033032226562499996
0.0322265625
0.0314208984375
0.033837890625
0.033837890625
0.033837890625
0.033032226562499996
0.02900390625
0.0314208984375
0.0322265625
0.0322265625
0.033032226562499996
0.033032226562499996
0.033032226562499996
1.2028564453125
2.07861328125
2.666748046875
3.0405761718749997
3.0349365234374996
3.0381591796875
3.0357421875
3.0405761718749997
3.0381591796875
3.0389648437499996
3.0397705078125
3.0389648437499996
3.0397705078125
3.0389648437499996
3.037353515625
3.0389648437499996
3.0389648437499996
3.0381591796875
3.0421875
3.0381591796875
1.5637939453124998
0.0322265625
0.03544921875
0.033032226562499996
0.033032226562499996
0.033837890625
0.0314208984375
0.030615234374999998
0.0322265625
0.0346435546875
0.0346435546875
0.0322265625
0.0322265625
0.0322265625
0.033032226562499996
0.030615234374999998
0.0281982421875
0.033032226562499996
0.033837890625
0.033032226562499996
0.033032226562499996
0.037060546874999996
0.033032226562499996
1.6588623046875
2.44921875
3.0397705078125
3.0389648437499996
3.0357421875
3.0389648437499996
3.0429931640624996
3.0381591796875
3.0413818359375
3.0389648437499996
3.0405761718749997
3.0389648437499996
3.0381591796875
3.0357421875
3.0381591796875
3.0397705078125
3.0381591796875
3.0421875
3.0381591796875
3.01962890625
0.5357666015625
0.037060546874999996
0.0322265625
0.02900390625
0.0362548828125
0.0281982421875
0.033032226562499996
0.033837890625
0.0314208984375
0.0314208984375
0.02900390625
0.033032226562499996
0.033032226562499996
0.0346435546875
0.0322265625
0.02900390625
0.02900390625
0.030615234374999998
0.033032226562499996
0.0346435546875
0.033032226562499996
0.033032226562499996
1.255224609375
2.228466796875
2.9503417968749996
3.0389648437499996
3.0381591796875
3.0381591796875
3.0389648437499996
3.037353515625
3.0397705078125
3.0405761718749997
3.0381591796875
3.0389648437499996
3.0397705078125
3.037353515625
3.0389648437499996
3.0405761718749997
3.0389648437499996
3.0357421875
3.0397705078125
3.0381591796875
1.7345947265625
0.033032226562499996
0.030615234374999998
0.033032226562499996
0.0322265625
0.0322265625
0.0314208984375
0.0322265625
0.0322265625
0.0298095703125
0.033032226562499996
0.0378662109375
0.0322265625
0.02900390625
0.02900390625
0.0281982421875
0.033032226562499996
0.0322265625
0.033032226562499996
0.0322265625
0.033032226562499996
0.033032226562499996
0.968408203125
1.8248291015625
2.7086425781249996
3.0381591796875
3.0413818359375
3.0381591796875
3.0381591796875
3.0389648437499996
3.0405761718749997
3.0421875
3.034130859375
3.0389648437499996
3.037353515625
3.0389648437499996
3.0381591796875
3.037353515625
3.0397705078125
3.0389648437499996
3.0389648437499996
3.0389648437499996
3.0389648437499996
0.565576171875
0.03544921875
0.02900390625
0.02900390625
0.0346435546875
0.038671874999999994
0.0362548828125
0.0362548828125
0.033032226562499996
0.033837890625
0.02900390625
0.0298095703125
0.033032226562499996
0.033032226562499996
0.0322265625
0.033032226562499996
0.030615234374999998
0.033032226562499996
0.0281982421875
0.033837890625
0.0322265625
0.0346435546875
1.0755615234375
2.0431640625
2.7884033203125
3.0389648437499996
3.0397705078125
3.0397705078125
3.0421875
3.0349365234374996
3.037353515625
3.0389648437499996
3.0381591796875
3.037353515625
3.0381591796875
3.034130859375
3.0397705078125
3.0405761718749997
3.0389648437499996
3.037353515625
3.037353515625
3.0389648437499996
1.5283447265624999
0.033032226562499996
0.033032226562499996
0.033837890625
0.033837890625
0.0314208984375
0.033032226562499996
0.0314208984375
0.02900390625
0.033837890625
0.033837890625
0.02900390625
0.0314208984375
0.0346435546875
0.0298095703125
0.033032226562499996
0.033032226562499996
0.0346435546875
0.0314208984375
0.037060546874999996
0.033032226562499996
0.0322265625
1.1279296875
1.864306640625
2.7666503906249997
3.0389648437499996
3.0389648437499996
3.0357421875
3.0389648437499996
3.0357421875
3.0357421875
3.0421875
3.0405761718749997
3.0381591796875
3.0413818359375
3.0389648437499996
3.0381591796875
3.0389648437499996
3.0389648437499996
3.0389648437499996
3.0389648437499996
3.0405761718749997
1.62744140625
0.0926513671875
0.0322265625
0.033837890625
0.0281982421875
0.0346435546875
0.0322265625
0.033837890625
0.0322265625
0.033032226562499996
0.033837890625
0.033032226562499996
0.033032226562499996
0.0298095703125
0.033837890625
0.033032226562499996
0.0322265625
0.0322265625
0.0322265625
0.033032226562499996
0.0322265625
0.0322265625
0.033032226562499996
1.4888671875
2.5080322265625
3.034130859375
3.0389648437499996
3.0381591796875
3.0357421875
3.0405761718749997
3.037353515625
3.0357421875
3.0389648437499996
3.0397705078125
3.0421875
3.037353515625
3.0389648437499996
3.0365478515624997
3.034130859375
3.0429931640624996
3.0429931640624996
3.0389648437499996
3.0381591796875
1.32451171875
0.0314208984375
0.0314208984375
0.037060546874999996
0.033032226562499996
0.033837890625
0.033032226562499996
0.0322265625
0.033032226562499996
0.030615234374999998
0.0322265625
0.033837890625
0.0322265625
0.0322265625
0.033032226562499996
0.0281982421875
0.033032226562499996
0.0281982421875
0.033032226562499996
0.02900390625
0.0322265625
0.0314208984375
0.48178710937499997
1.9827392578124998
2.6433837890625
3.0156005859375
3.037353515625
3.0405761718749997
3.0421875
3.0389648437499996
3.0381591796875
3.0397705078125
3.037353515625
3.0389648437499996
3.0389648437499996
3.0389648437499996
3.0365478515624997
3.0389648437499996
3.0389648437499996
3.0405761718749997
3.0405761718749997
3.0389648437499996
2.2510253906249997
0.0362548828125
0.033837890625
0.030615234374999998
0.0362548828125
0.0322265625
0.030615234374999998
0.0322265625
0.0322265625
0.033032226562499996
0.033032226562499996
0.0322265625
0.033032226562499996
0.0322265625
0.0362548828125
0.0322265625
0.033837890625
0.0322265625
0.033032226562499996
0.0322265625
0.027392578124999997
0.030615234374999998
0.033837890625
1.7418457031249999
2.6643310546874996
3.0389648437499996
3.0389648437499996
3.0333251953125
3.0349365234374996
3.034130859375
3.0421875
3.0397705078125
3.0397705078125
3.0397705078125
3.0389648437499996
3.0413818359375
3.0389648437499996
3.0397705078125
3.0397705078125
3.0389648437499996
3.0389648437499996
3.0413818359375
3.037353515625
0.928125
0.037060546874999996
0.037060546874999996
0.0362548828125
0.037060546874999996
0.030615234374999998
0.027392578124999997
0.033837890625
0.0314208984375
0.030615234374999998
0.033032226562499996
0.033032226562499996
0.0314208984375
0.033032226562499996
0.03544921875
0.033032226562499996
0.0322265625
0.033837890625
0.0314208984375
0.033032226562499996
0.0322265625
0.033032226562499996
1.203662109375
2.2405517578125
2.698974609375
3.0389648437499996
3.037353515625
3.0397705078125
3.0357421875
3.0405761718749997
3.0397705078125
3.0397705078125
3.0381591796875
3.0389648437499996
3.034130859375
3.0381591796875
3.0365478515624997
3.0349365234374996
3.0389648437499996
3.0389648437499996
3.0365478515624997
3.0405761718749997
2.0794189453125
0.0322265625
0.033032226562499996
0.02900390625
0.02900390625
0.033032226562499996
0.0322265625
0.0322265625
0.033837890625
0.033032226562499996
0.030615234374999998
0.033032226562499996
0.0314208984375
0.0322265625
0.0314208984375
0.033032226562499996
0.0314208984375
0.0281982421875
0.030615234374999998
0.0362548828125
0.0314208984375
0.0322265625
0.03544921875
1.480810546875
2.421826171875
2.8874999999999997
3.0405761718749997
3.0421875
3.0397705078125
3.0413818359375
3.0389648437499996
3.0397705078125
3.0357421875
3.0381591796875
3.0381591796875
3.0365478515624997
3.043798828125
3.0413818359375
3.0381591796875
3.0365478515624997
3.0421875
3.0381591796875
3.0397705078125
0.7081787109375
0.033837890625
0.0322265625
0.033032226562499996
0.0362548828125
0.033032226562499996
0.0322265625
0.033032226562499996
0.0314208984375
0.02900390625
0.0322265625
0.033032226562499996
0.0314208984375
0.03544921875
0.0281982421875
0.033032226562499996
0.033032226562499996
0.02900390625
0.0322265625
0.033032226562499996
0.0346435546875
0.0362548828125
1.1295410156249999
2.2751953124999997
2.70703125
3.037353515625
3.0397705078125
3.037353515625
3.0429931640624996
3.0413818359375
3.0381591796875
3.0357421875
3.0381591796875
3.037353515625
3.0139892578125
3.037353515625
3.0389648437499996
3.034130859375
3.0357421875
3.0421875
3.0381591796875
3.0349365234374996
1.87236328125
0.02900390625
0.033032226562499996
0.033032226562499996
0.02900390625
0.030615234374999998
0.0378662109375
0.0314208984375
0.033032226562499996
0.033837890625
0.0322265625
0.0322265625
0.0322265625
0.0322265625
0.02900390625
0.0362548828125
0.0281982421875
0.02900390625
0.033032226562499996
0.033032226562499996
0.037060546874999996
0.033837890625
0.033032226562499996
1.5025634765625
2.1849609375
2.7110595703125
3.0357421875
3.0397705078125
3.0381591796875
3.0389648437499996
3.0381591796875
3.0389648437499996
3.0413818359375
3.0405761718749997
3.0357421875
3.0357421875
3.037353515625
3.0389648437499996
3.037353515625
3.0429931640624996
3.0389648437499996
3.0365478515624997
3.0220458984375
0.104736328125
0.033032226562499996
0.033837890625
0.033032226562499996
0.030615234374999998
0.033032226562499996
0.0346435546875
0.02900390625
0.0314208984375
0.033032226562499996
0.03544921875
0.033032226562499996
0.0322265625
0.0322265625
0.0346435546875
0.0322265625
0.033032226562499996
0.030615234374999998
0.030615234374999998
0.0322265625
0.033032226562499996
0.03544921875
1.0900634765625
2.0745849609375
2.5402587890625
2.8955566406249997
3.0389648437499996
3.0405761718749997
3.0397705078125
3.0381591796875
3.0397705078125
3.0357421875
3.0389648437499996
3.0357421875
3.0397705078125
3.037353515625
3.0357421875
3.0389648437499996
3.037353515625
3.0389648437499996
3.0389648437499996
3.0389648437499996
0.6082763671875
0.033032226562499996
0.0314208984375
0.0378662109375
0.0281982421875
0.033837890625
0.033032226562499996
0.0314208984375
0.0314208984375
0.0314208984375
0.030615234374999998
0.03544921875
0.0322265625
0.0322265625
0.0362548828125
0.0322265625
0.033032226562499996
0.033032226562499996
0.033032226562499996
0.033837890625
0.0322265625
0.02900390625
1.2093017578125
2.230078125
2.8037109375
3.0083496093749997
3.0357421875
3.0389648437499996
3.0397705078125
3.0357421875
3.0365478515624997
3.0365478515624997
3.0389648437499996
3.0381591796875
3.0365478515624997
3.0405761718749997
3.0381591796875
3.0397705078125
3.037353515625
3.0389648437499996
3.0389648437499996
3.0397705078125
2.07216796875
0.0322265625
0.0322265625
0.0298095703125
0.037060546874999996
0.0362548828125
0.033032226562499996
0.0346435546875
0.0346435546875
0.033032226562499996
0.037060546874999996
0.0298095703125
0.03544921875
0.0322265625
0.033032226562499996
0.033032226562499996
0.0346435546875
0.033032226562499996
0.03544921875
0.030615234374999998
0.030615234374999998
0.033032226562499996
0.0346435546875
2.2502197265625
2.8053222656249996
3.0381591796875
3.0381591796875
3.0413818359375
3.0349365234374996
3.0429931640624996
3.0381591796875
3.0389648437499996
3.037353515625
3.0421875
3.0381591796875
3.0204345703124997
3.034130859375
3.0389648437499996
3.0381591796875
3.043798828125
3.0421875
3.0389648437499996
3.0389648437499996
0.5043457031249999
0.0314208984375
0.0322265625
0.03544921875
0.0322265625
0.0314208984375
0.033032226562499996
0.033032226562499996
0.033032226562499996
0.0298095703125
0.0314208984375
0.0298095703125
0.033032226562499996
0.033032226562499996
0.0362548828125
0.0281982421875
0.030615234374999998
0.0322265625
0.0322265625
0.033837890625
0.033032226562499996
0.027392578124999997
2.3074218749999997
3.003515625
3.0413818359375
3.0365478515624997
3.037353515625
3.0397705078125
3.037353515625
3.0365478515624997
3.0389648437499996
3.0405761718749997
3.0405761718749997
3.0389648437499996
3.0349365234374996
3.0389648437499996
3.0421875
3.0357421875
3.0389648437499996
3.0389648437499996
3.0389648437499996
3.0389648437499996
1.7571533203124998
0.033032226562499996
0.033837890625
0.0346435546875
0.0322265625
0.0314208984375
0.03544921875
0.03544921875
0.033032226562499996
0.033837890625
0.03544921875
0.0322265625
0.033032226562499996
0.0314208984375
0.033032226562499996
0.0322265625
0.033032226562499996
0.033032226562499996
0.033032226562499996
0.033032226562499996
0.033032226562499996
0.0322265625
1.43408203125
2.640966796875
3.0381591796875
3.0381591796875
3.0389648437499996
3.0381591796875
3.0405761718749997
3.037353515625
3.0389648437499996
3.0365478515624997
3.0389648437499996
3.0413818359375
3.034130859375
2.9930419921875
3.0397705078125
3.0389648437499996
3.0421875
3.0397705078125
3.0365478515624997
3.0421875
2.2429687499999997
0.48259277343749996
0.0346435546875
0.0346435546875
0.0362548828125
0.0281982421875
0.0322265625
0.0346435546875
0.033032226562499996
0.0314208984375
0.0314208984375
0.0322265625
0.038671874999999994
0.0314208984375
0.0322265625
0.033032226562499996
0.0322265625
0.033837890625
0.030615234374999998
0.0322265625
0.0281982421875
0.0322265625
0.0322265625
2.3098388671875
2.9068359375
3.0389648437499996
3.037353515625
3.0389648437499996
3.037353515625
3.0349365234374996
3.0397705078125
3.0389648437499996
3.0429931640624996
3.0381591796875
3.0397705078125
2.96162109375
3.0381591796875
3.0405761718749997
3.0405761718749997
3.0381591796875
3.0429931640624996
3.0349365234374996
3.0381591796875
1.4026611328124998
0.0314208984375
0.0322265625
0.030615234374999998
0.0362548828125
0.033032226562499996
0.0298095703125
0.0322265625
0.0322265625
0.0322265625
0.030615234374999998
0.0346435546875
0.0346435546875
0.033032226562499996
0.033032226562499996
0.03544921875
0.0298095703125
0.0346435546875
0.0314208984375
0.0322265625
0.0298095703125
0.0281982421875
1.8506103515624999
2.8979736328124996
3.0397705078125
3.0365478515624997
3.037353515625
3.0397705078125
3.0389648437499996
3.0389648437499996
3.037353515625
3.0381591796875
3.0397705078125
3.034130859375
3.0204345703124997
2.9197265624999997
3.0421875
3.0389648437499996
3.0389648437499996
3.037353515625
3.0429931640624996
3.0357421875
1.3857421875
0.03544921875
0.0298095703125
0.0322265625
0.0322265625
0.033032226562499996
0.0314208984375
0.03544921875
0.033032226562499996
0.027392578124999997
0.0298095703125
0.033032226562499996
0.033032226562499996
0.0322265625
0.033032226562499996
0.037060546874999996
0.0362548828125
0.0322265625
0.0362548828125
0.0362548828125
0.033032226562499996
0.0322265625
1.0175537109375
2.3646240234375
3.0389648437499996
3.0357421875
3.0397705078125
3.0397705078125
3.0381591796875
3.037353515625
3.0397705078125
3.0389648437499996
3.0357421875
3.0397705078125
3.0413818359375
3.0107666015624996
3.0389648437499996
3.0397705078125
3.0357421875
3.0413818359375
3.034130859375
3.0389648437499996
3.043798828125
1.26005859375
0.033032226562499996
0.0281982421875
0.0362548828125
0.03544921875
0.033032226562499996
0.033032226562499996
0.03544921875
0.0322265625
0.0314208984375
0.033032226562499996
0.0322265625
0.0362548828125
0.0298095703125
0.0322265625
0.0322265625
0.0314208984375
0.033032226562499996
0.033032226562499996
0.030615234374999998
0.033837890625
0.03544921875
1.6765869140624998
2.7207275390624996
3.0413818359375
3.0389648437499996
3.0429931640624996
3.0325195312499997
3.0389648437499996
3.0389648437499996
3.0365478515624997
3.0389648437499996
3.0365478515624997
3.037353515625
2.9882080078124997
2.956787109375
3.0389648437499996
3.0405761718749997
3.0381591796875
3.0389648437499996
3.0389648437499996
3.037353515625
1.545263671875
0.0322265625
0.0322265625
0.030615234374999998
0.02900390625
0.030615234374999998
0.03544921875
0.0281982421875
0.0281982421875
0.0314208984375
0.0314208984375
0.033032226562499996
0.033032226562499996
0.0314208984375
0.033032226562499996
0.0362548828125
0.0322265625
0.033032226562499996
0.033837890625
0.0314208984375
0.0281982421875
0.03544921875
0.91201171875
2.3388427734375
3.0381591796875
3.0365478515624997
3.0357421875
3.0389648437499996
3.034130859375
3.0397705078125
3.0365478515624997
3.0381591796875
3.0397705078125
3.037353515625
2.98095703125
2.9447021484375
3.0389648437499996
3.0421875
3.0397705078125
3.0381591796875
3.0365478515624997
3.0421875
3.0381591796875
1.1770751953125
0.033032226562499996
0.0281982421875
0.033032226562499996
0.033032226562499996
0.0322265625
0.033837890625
0.033032226562499996
0.0322265625
0.030615234374999998
0.0362548828125
0.030615234374999998
0.0322265625
0.0314208984375
0.0322265625
0.033837890625
0.030615234374999998
0.0322265625
0.033032226562499996
0.033032226562499996
0.033032226562499996
0.033032226562499996
2.022216796875
3.037353515625
3.0389648437499996
3.0397705078125
3.0389648437499996
3.0397705078125
3.0421875
3.0357421875
3.0357421875
3.037353515625
3.0397705078125
3.0357421875
3.005126953125
2.91328125
3.0389648437499996
3.0421875
3.0397705078125
3.0429931640624996
3.0381591796875
3.0381591796875
2.0181884765625
0.0322265625
0.033837890625
0.0281982421875
0.033032226562499996
0.033032226562499996
0.0322265625
0.0314208984375
0.0322265625
0.033837890625
0.0322265625
0.0322265625
0.02900390625
0.030615234374999998
0.02900390625
0.0322265625
0.033032226562499996
0.0298095703125
0.0314208984375
0.027392578124999997
0.0314208984375
0.033837890625
0.6904541015625
2.618408203125
3.0389648437499996
3.0349365234374996
3.0397705078125
3.0397705078125
3.0397705078125
3.0405761718749997
3.0397705078125
3.0389648437499996
3.037353515625
3.0381591796875
3.011572265625
2.9438964843749997
3.0397705078125
3.0381591796875
3.0349365234374996
3.0405761718749997
3.0389648437499996
3.0397705078125
3.0381591796875
0.03544921875
0.0281982421875
0.0362548828125
0.0362548828125
0.033032226562499996
0.0314208984375
0.0314208984375
0.033032226562499996
0.033837890625
0.03544921875
0.033837890625
0.03544921875
0.0322265625
0.033032226562499996
0.0298095703125
0.033837890625
0.0322265625
0.0322265625
0.033837890625
0.0322265625
0.0322265625
0.033032226562499996
2.5273681640624996
3.0357421875
3.0397705078125
3.0405761718749997
3.0421875
3.0389648437499996
3.0381591796875
3.0429931640624996
3.0389648437499996
3.0413818359375
3.0333251953125
3.0381591796875
3.0083496093749997
3.037353515625
3.0397705078125
3.0413818359375
3.0389648437499996
3.0389648437499996
3.0389648437499996
3.0357421875
1.377685546875
0.02900390625
0.0346435546875
0.033032226562499996
0.030615234374999998
0.033032226562499996
0.0322265625
0.03544921875
0.0322265625
0.0322265625
0.0314208984375
0.033837890625
0.0298095703125
0.02900390625
0.046728515624999994
0.037060546874999996
0.0314208984375
0.0322265625
0.0298095703125
0.033837890625
0.0322265625
0.0322265625
1.7539306640624999
2.7303955078124997
3.0389648437499996
3.0381591796875
3.0389648437499996
3.0349365234374996
3.0389648437499996
3.0381591796875
3.0413818359375
3.0389648437499996
3.0333251953125
3.0381591796875
3.0317138671875
2.9076416015624997
3.0421875
3.037353515625
3.0381591796875
3.0389648437499996
3.0389648437499996
3.0421875
1.8739746093749998
0.12165527343749999
0.0322265625
0.033032226562499996
0.033032226562499996
0.033837890625
0.033032226562499996
0.0314208984375
0.033032226562499996
0.0298095703125
0.033032226562499996
0.0362548828125
0.0298095703125
0.0322265625
0.033032226562499996
0.0346435546875
0.033837890625
0.0362548828125
0.0281982421875
0.033032226562499996
0.018530273437499998
0.0322265625
0.0314208984375
2.2751953124999997
3.0204345703124997
3.0421875
3.0389648437499996
3.0389648437499996
3.037353515625
3.037353515625
3.0397705078125
3.0421875
3.0357421875
3.0421875
3.0381591796875
3.0349365234374996
3.0357421875
3.0421875
3.0446044921874997
3.037353515625
3.0389648437499996
3.0389648437499996
3.0389648437499996
1.0239990234375
0.0322265625
0.033032226562499996
0.0322265625
0.037060546874999996
0.0281982421875
0.0346435546875
0.033032226562499996
0.033032226562499996
0.0346435546875
0.0322265625
0.0322265625
0.02900390625
0.03544921875
0.030615234374999998
0.0322265625
0.0314208984375
0.030615234374999998
0.033837890625
0.0322265625
0.0322265625
0.026586914062499998
1.6653076171874999
2.6844726562499996
3.0421875
3.037353515625
3.0397705078125
3.0389648437499996
3.0381591796875
3.0389648437499996
3.0397705078125
3.0389648437499996
3.0421875
3.0381591796875
3.037353515625
2.96484375
3.0421875
3.0381591796875
3.0397705078125
3.0389648437499996
3.0389648437499996
3.0381591796875
1.3768798828125
0.03544921875
0.0322265625
0.0314208984375
0.0298095703125
0.037060546874999996
0.033032226562499996
0.0314208984375
0.0298095703125
0.033032226562499996
0.033032226562499996
0.030615234374999998
0.0322265625
0.033837890625
0.0322265625
0.033837890625
0.0314208984375
0.0346435546875
0.0322265625
0.0322265625
0.0322265625
0.037060546874999996
0.992578125
2.37509765625
3.034130859375
3.0389648437499996
3.037353515625
3.0365478515624997
3.0349365234374996
3.0389648437499996
3.0429931640624996
3.0381591796875
3.0381591796875
3.0413818359375
3.0365478515624997
2.9076416015624997
3.0357421875
3.043798828125
3.0349365234374996
3.0389648437499996
3.0381591796875
3.0357421875
3.0365478515624997
0.8822021484375
0.033032226562499996
0.033032226562499996
0.0322265625
0.033032226562499996
0.033032226562499996
0.0281982421875
0.037060546874999996
0.033837890625
0.0322265625
0.033837890625
0.030615234374999998
0.0298095703125
0.0314208984375
0.0322265625
0.0314208984375
0.03544921875
0.0346435546875
0.02900390625
0.0281982421875
0.0362548828125
0.0298095703125
2.0947265625
2.8955566406249997
3.0333251953125
3.0397705078125
3.0405761718749997
3.0413818359375
3.0365478515624997
3.0421875
3.0389648437499996
3.037353515625
3.037353515625
3.0365478515624997
2.9817626953125
2.8673583984374997
3.0389648437499996
3.0421875
3.0349365234374996
3.034130859375
3.037353515625
3.0389648437499996
0.8499755859375
0.02900390625
0.0322265625
0.02900390625
0.033032226562499996
0.0322265625
0.0346435546875
0.0298095703125
0.033837890625
0.0281982421875
0.0298095703125
0.0322265625
0.0281982421875
0.033032226562499996
0.0314208984375
0.0314208984375
0.0346435546875
0.0346435546875
0.0322265625
0.03544921875
0.033032226562499996
0.030615234374999998
1.6363037109374998
2.631298828125
3.0405761718749997
3.037353515625
3.0389648437499996
3.0389648437499996
3.0397705078125
3.037353515625
3.034130859375
3.037353515625
3.0381591796875
3.037353515625
2.9753173828125
2.908447265625
3.037353515625
3.0365478515624997
3.037353515625
3.034130859375
3.0389648437499996
3.0389648437499996
3.0389648437499996
0.8572265625
0.0322265625
0.0322265625
0.0322265625
0.033032226562499996
0.033837890625
0.0322265625
0.0322265625
0.03544921875
0.030615234374999998
0.0322265625
0.0281982421875
0.0314208984375
0.0322265625
0.0322265625
0.0314208984375
0.030615234374999998
0.0314208984375
0.03544921875
0.0281982421875
0.030615234374999998
0.02900390625
2.1309814453125
3.0389648437499996
3.0381591796875
3.0357421875
3.0365478515624997
3.0381591796875
3.037353515625
3.0381591796875
3.0397705078125
3.0405761718749997
3.0397705078125
3.0405761718749997
3.027685546875
2.9100585937499996
3.0381591796875
3.0381591796875
3.0389648437499996
3.0357421875
3.037353515625
3.0389648437499996
2.183349609375
0.0281982421875
0.0281982421875
0.033032226562499996
0.0362548828125
0.0322265625
0.0322265625
0.02900390625
0.033032226562499996
0.0314208984375
0.033032226562499996
0.033032226562499996
0.02900390625
0.0314208984375
0.0314208984375
0.0314208984375
0.0322265625
0.0322265625
0.0322265625
0.0314208984375
0.033032226562499996
0.030615234374999998
1.4518066406249999
2.4846679687499997
3.0349365234374996
3.0405761718749997
3.0389648437499996
3.0389648437499996
3.0381591796875
3.0397705078125
3.0421875
3.0381591796875
3.037353515625
3.037353515625
3.034130859375
2.9592041015625
3.0381591796875
3.0365478515624997
3.0389648437499996
3.0389648437499996
3.0389648437499996
3.0349365234374996
3.0405761718749997
0.5349609375
0.0346435546875
0.027392578124999997
0.033032226562499996
0.033032226562499996
0.0314208984375
0.033032226562499996
0.0322265625
0.027392578124999997
0.0298095703125
0.0322265625
0.0314208984375
0.030615234374999998
0.033837890625
0.0322265625
0.0298095703125
0.0322265625
0.0322265625
0.0314208984375
0.030615234374999998
0.0314208984375
0.0281982421875
2.0584716796875
3.0405761718749997
3.0389648437499996
3.0397705078125
3.0381591796875
3.043798828125
3.0357421875
3.0405761718749997
3.0421875
3.037353515625
3.0389648437499996
3.0220458984375
3.0268798828124996
2.963232421875
3.0349365234374996
3.0421875
3.0381591796875
3.037353515625
3.0389648437499996
3.0381591796875
2.183349609375
0.0346435546875
0.0281982421875
0.0322265625
0.0314208984375
0.0322265625
0.0322265625
0.0322265625
0.033032226562499996
0.0322265625
0.02900390625
0.0322265625
0.0346435546875
0.030615234374999998
0.033032226562499996
0.033032226562499996
0.033032226562499996
0.0346435546875
0.026586914062499998
0.030615234374999998
0.033032226562499996
0.0322265625
1.5919921874999998
2.8190185546874997
3.0413818359375
3.0397705078125
3.034130859375
3.0381591796875
3.0397705078125
3.0349365234374996
3.0381591796875
3.0357421875
3.0381591796875
3.0381591796875
3.003515625
2.9414794921875
3.0405761718749997
3.0381591796875
3.0381591796875
3.037353515625
3.034130859375
3.037353515625
2.8931396484375
0.0346435546875
0.0322265625
0.02900390625
0.033837890625
0.033837890625
0.0362548828125
0.0322265625
0.02900390625
0.033032226562499996
0.033032226562499996
0.0362548828125
0.033032226562499996
0.033032226562499996
0.02900390625
0.03544921875
0.033032226562499996
0.033837890625
0.033032226562499996
0.033032226562499996
0.0281982421875
0.033032226562499996
0.0322265625
2.3912109375
3.0397705078125
3.0357421875
3.0381591796875
3.0389648437499996
3.0397705078125
3.0405761718749997
3.0389648437499996
3.037353515625
3.0405761718749997
3.0389648437499996
3.0413818359375
2.9559814453124997
2.9745117187499996
3.0365478515624997
3.0389648437499996
3.0381591796875
3.0389648437499996
3.0381591796875
3.0357421875
0.8846191406249999
0.0298095703125
0.033837890625
0.033032226562499996
0.0362548828125
0.033032226562499996
0.0346435546875
0.0322265625
0.0322265625
0.0322265625
0.030615234374999998
0.033032226562499996
0.037060546874999996
0.037060546874999996
0.0322265625
0.0314208984375
0.033837890625
0.033032226562499996
0.0314208984375
0.033032226562499996
0.0298095703125
0.033837890625
1.8336914062499998
2.76181640625
3.0397705078125
3.037353515625
3.0381591796875
3.0389648437499996
3.037353515625
3.0429931640624996
3.0494384765625
3.0381591796875
3.0389648437499996
2.9769287109375
2.9350341796875
2.9970703125
3.0381591796875
3.0397705078125
3.034130859375
3.0381591796875
3.0405761718749997
3.0397705078125
2.2824462890625
0.0322265625
0.033837890625
0.033032226562499996
0.033032226562499996
0.0346435546875
0.0322265625
0.033032226562499996
0.02900390625
0.0322265625
0.0314208984375
0.0298095703125
0.030615234374999998
0.0322265625
0.0298095703125
0.0298095703125
0.033032226562499996
0.0322265625
0.0322265625
0.0346435546875
0.0322265625
0.0322265625
1.3148437499999999
2.39765625
3.0389648437499996
3.0421875
3.0381591796875
3.0381591796875
3.0381591796875
3.0389648437499996
3.0381591796875
3.0421875
3.0397705078125
3.0389648437499996
2.9970703125
2.9833740234375
3.0421875
3.0413818359375
3.0381591796875
3.0405761718749997
3.0405761718749997
3.0357421875
3.0365478515624997
0.929736328125
0.033837890625
0.033032226562499996
0.0322265625
0.033032226562499996
0.0362548828125
0.033837890625
0.03544921875
0.030615234374999998
0.033837890625
0.0322265625
0.033032226562499996
0.033032226562499996
0.0362548828125
0.0298095703125
0.0314208984375
0.0322265625
0.0346435546875
0.030615234374999998
0.0322265625
0.03544921875
0.0322265625
1.9070068359374999
3.0139892578125
3.0357421875
3.0389648437499996
3.037353515625
3.0389648437499996
3.0357421875
3.034130859375
3.0381591796875
3.0365478515624997
3.037353515625
3.0357421875
3.0389648437499996
2.92294921875
3.0381591796875
3.0397705078125
3.0381591796875
3.034130859375
3.0389648437499996
3.0389648437499996
1.8344970703124999
0.0322265625
0.0314208984375
0.037060546874999996
0.033032226562499996
0.033837890625
0.033837890625
0.0346435546875
0.033032226562499996
0.0362548828125
0.033032226562499996
0.02900390625
0.033032226562499996
0.033032226562499996
0.0322265625
0.0346435546875
0.033032226562499996
0.033837890625
0.033032226562499996
0.033032226562499996
0.037060546874999996
0.0314208984375
1.6137451171875
2.679638671875
3.037353515625
3.0397705078125
3.0389648437499996
3.037353515625
3.0389648437499996
3.0397705078125
3.034130859375
3.0381591796875
3.0381591796875
3.0397705078125
3.0349365234374996
2.9326171875
3.0357421875
3.037353515625
3.037353515625
3.0381591796875
3.0333251953125
3.0389648437499996
2.115673828125
0.09990234375
0.02900390625
0.0314208984375
0.0298095703125
0.0314208984375
0.0322265625
0.033032226562499996
0.033032226562499996
0.0346435546875
0.0322265625
0.033837890625
0.0322265625
0.030615234374999998
0.0322265625
0.0322265625
0.0298095703125
0.033032226562499996
0.0298095703125
0.033837890625
0.033032226562499996
0.033032226562499996
0.6509765624999999
2.3742919921875
3.0405761718749997
3.037353515625
3.0405761718749997
3.0429931640624996
3.0381591796875
3.0365478515624997
3.0405761718749997
3.0381591796875
3.0405761718749997
3.0357421875
3.0397705078125
2.963232421875
3.0381591796875
3.037353515625
3.0381591796875
3.0357421875
3.0413818359375
3.0381591796875
3.0381591796875
1.1617675781249999
0.033837890625
0.033837890625
0.033032226562499996
0.02900390625
0.033032226562499996
0.0322265625
0.030615234374999998
0.0322265625
0.0314208984375
0.02900390625
0.033837890625
0.09990234375
0.1168212890625
0.0322265625
0.0322265625
0.0322265625
0.033032226562499996
0.033837890625
0.03544921875
0.030615234374999998
0.0314208984375
3.0381591796875
3.0397705078125
3.0413818359375
3.0365478515624997
3.0413818359375
3.0357421875
3.043798828125
3.0381591796875
3.0365478515624997
3.037353515625
3.034130859375
3.0381591796875
3.0429931640624996
3.0389648437499996
3.0397705078125
3.037353515625
3.0389648437499996
3.0429931640624996
3.037353515625
3.0397705078125
3.0389648437499996
0.1716064453125
0.033032226562499996
0.030615234374999998
0.0314208984375
0.030615234374999998
0.033032226562499996
0.02900390625
0.033032226562499996
0.0322265625
0.0314208984375
0.033032226562499996
0.0314208984375
0.033032226562499996
0.0322265625
0.030615234374999998
0.0322265625
0.0314208984375
0.033032226562499996
0.0346435546875
0.030615234374999998
0.03544921875
1.2608642578125
2.6200195312499996
3.0381591796875
3.0389648437499996
3.0389648437499996
3.0397705078125
3.0405761718749997
3.0397705078125
3.0389648437499996
3.0421875
3.0405761718749997
3.0397705078125
3.0381591796875
3.0389648437499996
3.0389648437499996
3.0357421875
3.0389648437499996
3.0405761718749997
3.037353515625
3.0381591796875
3.0397705078125
0.7758544921874999
0.0322265625
0.02900390625
0.033032226562499996
0.033032226562499996
0.0281982421875
0.0314208984375
0.033032226562499996
0.0322265625
0.0298095703125
0.02900390625
0.030615234374999998
0.033032226562499996
0.02900390625
0.033837890625
0.030615234374999998
0.033032226562499996
0.045117187499999996
0.033032226562499996
0.0322265625
0.0322265625
0.02900390625
1.786962890625
2.8464111328125
3.0381591796875
3.0397705078125
3.0429931640624996
3.0381591796875
3.0421875
3.0389648437499996
3.0429931640624996
3.0365478515624997
3.0381591796875
3.0381591796875
3.0268798828124996
3.0381591796875
3.0389648437499996
3.0357421875
3.0349365234374996
3.0389648437499996
3.0389648437499996
3.0389648437499996
1.5331787109375
0.0322265625
0.0322265625
0.0346435546875
0.033837890625
0.033032226562499996
0.030615234374999998
0.033032226562499996
0.0322265625
0.033837890625
0.033032226562499996
0.0322265625
0.033032226562499996
0.0281982421875
0.03544921875
0.0322265625
0.0281982421875
0.04189453125
0.033837890625
0.0298095703125
0.033032226562499996
0.0298095703125
0.0008056640625
1.8506103515624999
2.487890625
2.91328125
3.0365478515624997
3.0397705078125
3.037353515625
3.037353515625
3.0381591796875
3.0397705078125
3.0389648437499996
3.0357421875
3.0413818359375
2.9882080078124997
3.0389648437499996
3.0357421875
3.0397705078125
3.037353515625
3.0389648437499996
3.0381591796875
1.848193359375
0.02900390625
0.0314208984375
0.0322265625
0.0322265625
0.033032226562499996
0.033032226562499996
0.0346435546875
0.033032226562499996
0.033032226562499996
0.03544921875
0.033032226562499996
0.033032226562499996
0.030615234374999998
0.033032226562499996
0.0322265625
0.0322265625
0.033032226562499996
0.0298095703125
0.02900390625
0.033032226562499996
0.03544921875
0.0322265625
1.3446533203125
2.1712646484375
2.8431884765624997
3.0381591796875
3.0389648437499996
3.037353515625
3.0389648437499996
3.034130859375
3.0389648437499996
3.0389648437499996
3.0397705078125
3.0333251953125
3.0365478515624997
3.0389648437499996
3.0381591796875
3.0381591796875
3.0349365234374996
3.037353515625
3.0381591796875
2.325146484375
0.4519775390625
0.030615234374999998
0.0322265625
0.0281982421875
0.033032226562499996
0.045117187499999996
0.037060546874999996
0.033032226562499996
0.033032226562499996
0.030615234374999998
0.033032226562499996
0.033032226562499996
0.0322265625
0.0314208984375
0.033032226562499996
0.0298095703125
0.0298095703125
0.0322265625
0.033032226562499996
0.0298095703125
0.033032226562499996
0.033837890625
1.1794921875
2.34931640625
2.784375
3.037353515625
3.037353515625
3.037353515625
3.0405761718749997
3.0381591796875
3.0365478515624997
3.0389648437499996
3.0389648437499996
3.0397705078125
3.0365478515624997
3.0357421875
3.0429931640624996
3.0397705078125
3.0357421875
3.0357421875
3.0397705078125
3.0421875
1.480810546875
0.0322265625
0.0346435546875
0.0322265625
0.033837890625
0.0314208984375
0.0322265625
0.0322265625
0.0362548828125
0.03544921875
0.033032226562499996
0.033032226562499996
0.0322265625
0.0362548828125
0.033032226562499996
0.0298095703125
0.02900390625
0.033032226562499996
0.0322265625
0.033032226562499996
0.030615234374999998
0.033837890625
0.033032226562499996
1.7877685546875
2.486279296875
2.9092529296875
3.0405761718749997
3.0389648437499996
3.0389648437499996
3.034130859375
3.0357421875
3.0381591796875
3.0381591796875
3.0397705078125
3.0365478515624997
2.9261718749999996
3.0397705078125
3.0389648437499996
3.0381591796875
3.0397705078125
3.0389648437499996
3.0365478515624997
1.767626953125
0.0322265625
0.0298095703125
0.0322265625
0.033032226562499996
0.033837890625
0.03544921875
0.0362548828125
0.0322265625
0.033032226562499996
0.033032226562499996
0.0322265625
0.0314208984375
0.033032226562499996
0.033032226562499996
0.033032226562499996
0.033032226562499996
0.033837890625
0.033032226562499996
0.02900390625
0.0362548828125
0.033032226562499996
0.033837890625
1.7015624999999999
2.54267578125
3.0389648437499996
3.037353515625
3.0413818359375
3.0397705078125
3.037353515625
3.0397705078125
3.0381591796875
3.0389648437499996
3.0397705078125
3.050244140625
3.0349365234374996
3.037353515625
3.0381591796875
3.0381591796875
3.0421875
3.0413818359375
3.037353515625
2.624853515625
0.6574218749999999
0.033837890625
0.0298095703125
0.0298095703125
0.0322265625
0.0362548828125
0.0346435546875
0.0298095703125
0.033837890625
0.033837890625
0.033837890625
0.033032226562499996
0.017724609375
0.033032226562499996
0.033837890625
0.0322265625
0.0362548828125
0.0362548828125
0.03544921875
0.03544921875
0.0298095703125
0.0298095703125
2.0898925781249997
3.0421875
3.0389648437499996
3.037353515625
3.0381591796875
3.034130859375
3.0389648437499996
3.0381591796875
3.0405761718749997
3.0381591796875
3.0421875
3.0421875
3.0397705078125
3.0397705078125
3.0365478515624997
3.0389648437499996
3.0357421875
3.0389648437499996
3.037353515625
3.0405761718749997
1.8820312499999998
0.0322265625
0.03544921875
0.033032226562499996
0.0298095703125
0.03544921875
0.030615234374999998
0.0322265625
0.0322265625
0.0322265625
0.033032226562499996
0.0346435546875
0.037060546874999996
0.0298095703125
0.0322265625
0.033032226562499996
0.0322265625
0.033032226562499996
0.033032226562499996
0.0322265625
0.0346435546875
0.0362548828125
1.5573486328125
2.931005859375
3.0357421875
3.0381591796875
3.0365478515624997
3.037353515625
3.0365478515624997
3.034130859375
3.0389648437499996
3.0357421875
3.0381591796875
3.0349365234374996
3.0405761718749997
3.0389648437499996
3.037353515625
3.037353515625
3.0413818359375
3.034130859375
3.0389648437499996
3.0405761718749997
3.0421875
0.43747558593749997
0.033032226562499996
0.03544921875
0.033032226562499996
0.0298095703125
0.033032226562499996
0.0322265625
0.033032226562499996
0.033032226562499996
0.0314208984375
0.02900390625
0.033032226562499996
0.0314208984375
0.02900390625
0.0322265625
0.046728515624999994
0.033032226562499996
0.033837890625
0.0322265625
0.0314208984375
0.033837890625
0.20302734374999998
2.23974609375
3.0421875
3.0381591796875
3.0405761718749997
3.037353515625
3.0365478515624997
3.0421875
3.0389648437499996
3.0381591796875
3.0381591796875
3.0405761718749997
3.0389648437499996
3.037353515625
3.0413818359375
3.0397705078125
3.0381591796875
3.0381591796875
3.0365478515624997
3.0389648437499996
3.0389648437499996
1.2423339843749999
0.0314208984375
0.0322265625
0.03544921875
0.0346435546875
0.0322265625
0.033032226562499996
0.033837890625
0.033837890625
0.0362548828125
0.0322265625
0.0322265625
0.0322265625
0.0298095703125
0.033032226562499996
0.0322265625
0.033032226562499996
0.033837890625
0.0314208984375
0.033032226562499996
0.0314208984375
0.033837890625
1.7289550781249998
3.0164062499999997
3.0389648437499996
3.0381591796875
3.0405761718749997
3.0397705078125
3.0389648437499996
3.037353515625
3.0389648437499996
3.0389648437499996
3.0381591796875
3.0365478515624997
3.0389648437499996
3.0389648437499996
3.0381591796875
3.037353515625
3.0357421875
3.037353515625
3.0365478515624997
3.0389648437499996
2.0012695312499997
0.033032226562499996
0.0314208984375
0.0322265625
0.03544921875
0.0314208984375
0.0346435546875
0.033032226562499996
0.0322265625
0.03544921875
0.0314208984375
0.0322265625
0.0322265625
0.0362548828125
0.0322265625
0.0322265625
0.033032226562499996
0.033032226562499996
0.0298095703125
0.033032226562499996
0.033032226562499996
0.0362548828125
1.264892578125
2.3879882812499997
3.0381591796875
3.0389648437499996
3.0389648437499996
3.0413818359375
3.0349365234374996
3.0365478515624997
3.0381591796875
3.0389648437499996
3.0413818359375
3.0357421875
3.037353515625
3.0397705078125
3.0397705078125
3.0381591796875
3.0397705078125
3.0357421875
3.037353515625
3.037353515625
3.0389648437499996
0.41411132812499996
0.0298095703125
0.033032226562499996
0.0322265625
0.033032226562499996
0.02900390625
0.033837890625
0.033032226562499996
0.033032226562499996
0.0314208984375
0.033032226562499996
0.033032226562499996
0.0298095703125
0.0322265625
0.033837890625
0.0322265625
0.033032226562499996
0.033032226562499996
0.0314208984375
0.0322265625
0.033837890625
0.030615234374999998
2.1003662109375
3.0357421875
3.0413818359375
3.037353515625
3.0413818359375
3.0405761718749997
3.0389648437499996
3.0381591796875
3.037353515625
3.0421875
3.0389648437499996
3.0381591796875
3.0397705078125
3.0381591796875
3.0389648437499996
3.0365478515624997
3.0389648437499996
3.0413818359375
3.0365478515624997
3.037353515625
1.313232421875
0.0322265625
0.0322265625
0.033032226562499996
0.033032226562499996
0.0322265625
0.0322265625
0.033032226562499996
0.0362548828125
0.033032226562499996
0.0322265625
0.033032226562499996
0.0322265625
0.0362548828125
0.0298095703125
0.033032226562499996
0.033837890625
0.033032226562499996
0.0362548828125
0.0281982421875
0.0362548828125
0.03544921875
1.3301513671874998
2.7996826171875
3.0421875
3.0365478515624997
3.0357421875
3.0429931640624996
3.0381591796875
3.0405761718749997
3.0389648437499996
3.0357421875
3.0405761718749997
3.0389648437499996
3.0389648437499996
3.0381591796875
3.0381591796875
3.0397705078125
3.0389648437499996
3.0389648437499996
3.0389648437499996
3.0389648437499996
2.2437744140625
0.2779541015625
0.033032226562499996
0.0314208984375
0.033032226562499996
0.033032226562499996
0.0322265625
0.033032226562499996
0.0322265625
0.0322265625
0.033837890625
0.0314208984375
0.03544921875
0.0346435546875
0.033032226562499996
0.033032226562499996
0.033032226562499996
0.0314208984375
0.033837890625
0.033032226562499996
0.0298095703125
0.0314208984375
0.0362548828125
2.0310791015625
2.8738037109374996
3.0381591796875
3.0381591796875
3.0389648437499996
3.037353515625
3.0413818359375
3.037353515625
3.0365478515624997
3.0389648437499996
3.0397705078125
3.037353515625
3.0381591796875
3.037353515625
3.0381591796875
3.0349365234374996
3.0381591796875
3.0405761718749997
3.0381591796875
3.0357421875
0.4962890625
0.033032226562499996
0.033032226562499996
0.0346435546875
0.0322265625
0.03544921875
0.0322265625
0.030615234374999998
0.0322265625
0.033032226562499996
0.0322265625
0.0362548828125
0.033032226562499996
0.0322265625
0.0298095703125
0.033837890625
0.033032226562499996
0.033032226562499996
0.033032226562499996
0.033837890625
0.033032226562499996
0.033837890625
1.87236328125
2.70703125
3.0413818359375
3.0381591796875
3.037353515625
3.0389648437499996
3.0381591796875
3.0381591796875
3.0389648437499996
3.0349365234374996
3.0357421875
3.0381591796875
3.0389648437499996
3.0381591796875
3.0397705078125
3.0381591796875
3.0389648437499996
3.037353515625
3.037353515625
3.037353515625
1.4735595703125
0.033032226562499996
0.0322265625
0.033837890625
0.0322265625
0.033837890625
0.0322265625
0.033032226562499996
0.033837890625
0.0322265625
0.02900390625
0.0281982421875
0.0281982421875
0.0322265625
0.0322265625
0.02900390625
0.02900390625
0.0322265625
0.033032226562499996
0.0322265625
0.0322265625
0.0346435546875
1.22138671875
2.0262451171875
2.8955566406249997
3.0389648437499996
3.0413818359375
3.0389648437499996
3.0357421875
3.037353515625
3.0421875
3.0381591796875
3.037353515625
3.0389648437499996
3.037353515625
2.9704833984374996
3.037353515625
3.0381591796875
3.037353515625
3.0381591796875
3.037353515625
3.0389648437499996
1.877197265625
0.10554199218749999
0.0322265625
0.0322265625
0.0322265625
0.0314208984375
0.0322265625
0.033032226562499996
0.037060546874999996
0.0322265625
0.0322265625
0.02900390625
0.033032226562499996
0.030615234374999998
0.0314208984375
0.0322265625
0.0322265625
0.033032226562499996
0.0322265625
0.033032226562499996
0.0322265625
0.0322265625
0.0346435546875
1.5533203125
2.321923828125
2.8391601562499997
3.0381591796875
3.0429931640624996
3.0405761718749997
3.0405761718749997
3.0357421875
3.0397705078125
3.0397705078125
3.0389648437499996
3.0389648437499996
3.0381591796875
3.0389648437499996
3.037353515625
3.037353515625
3.0349365234374996
3.0421875
3.0397705078125
3.037353515625
0.4326416015625
0.0322265625
0.0346435546875
0.0322265625
0.0322265625
0.0322265625
0.033032226562499996
0.030615234374999998
0.033032226562499996
0.033032226562499996
0.03544921875
0.0362548828125
0.0322265625
0.033032226562499996
0.0314208984375
0.0298095703125
0.03544921875
0.0362548828125
0.0322265625
0.033032226562499996
0.033032226562499996
0.030615234374999998
1.426025390625
2.3662353515625
2.9914306640625
3.037353515625
3.0357421875
3.0405761718749997
3.037353515625
3.0389648437499996
3.0397705078125
3.0413818359375
3.037353515625
3.0381591796875
3.0365478515624997
3.0349365234374996
3.0357421875
3.0365478515624997
3.0413818359375
3.0397705078125
3.0381591796875
3.0381591796875
1.4800048828124999
0.0362548828125
0.0362548828125
0.0281982421875
0.0298095703125
0.0322265625
0.033032226562499996
0.0322265625
0.030615234374999998
0.0362548828125
0.033837890625
0.0322265625
0.0322265625
0.030615234374999998
0.033032226562499996
0.0322265625
0.0346435546875
0.033032226562499996
0.033032226562499996
0.033837890625
0.0314208984375
0.033032226562499996
0.062841796875
2.012548828125
2.6546630859375
3.0381591796875
3.0389648437499996
3.0381591796875
3.0405761718749997
3.0413818359375
3.0397705078125
3.0405761718749997
3.0413818359375
3.0389648437499996
3.0381591796875
3.0043212890624997
3.0397705078125
3.0397705078125
3.0397705078125
3.0413818359375
3.037353515625
3.0381591796875
2.157568359375
0.0322265625
0.030615234374999998
0.0362548828125
0.02900390625
0.0362548828125
0.033837890625
0.030615234374999998
0.03544921875
0.0314208984375
0.0362548828125
0.02900390625
0.02900390625
0.030615234374999998
0.033837890625
0.0322265625
0.033032226562499996
0.0322265625
0.0362548828125
0.033032226562499996
0.0322265625
0.0314208984375
0.033032226562499996
1.5194824218749998
2.286474609375
2.9898193359375
3.037353515625
3.0389648437499996
3.0357421875
3.037353515625
3.0389648437499996
3.037353515625
3.0349365234374996
3.037353515625
3.0389648437499996
3.0365478515624997
3.0349365234374996
3.037353515625
3.0381591796875
3.0389648437499996
3.037353515625
3.037353515625
3.0357421875
0.3988037109375
0.0322265625
0.033837890625
0.0322265625
0.0322265625
0.0459228515625
0.033032226562499996
0.0322265625
0.033837890625
0.02900390625
0.0314208984375
0.033032226562499996
0.033032226562499996
0.033032226562499996
0.0362548828125
0.033032226562499996
0.033837890625
0.02900390625
0.033032226562499996
0.030615234374999998
0.033032226562499996
0.033032226562499996
1.1174560546874999
2.0955322265625
2.82626953125
3.0421875
3.0381591796875
3.0413818359375
3.0405761718749997
3.0421875
3.0389648437499996
3.0357421875
3.0413818359375
3.0381591796875
3.0365478515624997
3.0397705078125
3.0365478515624997
3.0333251953125
3.0349365234374996
3.0381591796875
3.037353515625
3.037353515625
1.5114257812499998
0.0322265625
0.0298095703125
0.0322265625
0.033032226562499996
0.033032226562499996
0.0298095703125
0.02900390625
0.033032226562499996
0.0298095703125
0.033032226562499996
0.033032226562499996
0.0314208984375
0.033032226562499996
0.033032226562499996
0.02900390625
0.02900390625
0.033032226562499996
0.037060546874999996
0.0322265625
0.0298095703125
0.033032226562499996
0.0322265625
1.7700439453124999
2.4814453125
2.9382568359374996
3.0397705078125
3.0381591796875
3.0357421875
3.0397705078125
3.0421875
3.0397705078125
3.0389648437499996
3.0389648437499996
3.037353515625
3.0333251953125
3.0381591796875
3.0389648437499996
3.0405761718749997
3.0389648437499996
3.037353515625
3.0349365234374996
2.1060058593749997
0.35368652343749996
0.033032226562499996
0.033837890625
0.0362548828125
0.033032226562499996
0.0298095703125
0.0322265625
0.033032226562499996
0.0346435546875
0.0346435546875
0.037060546874999996
0.0362548828125
0.0346435546875
0.02900390625
0.0322265625
0.03544921875
0.0314208984375
0.0346435546875
0.02900390625
0.0346435546875
0.0322265625
0.033032226562499996
1.9464843749999998
2.792431640625
3.0397705078125
3.0365478515624997
3.0389648437499996
3.0381591796875
3.0413818359375
3.037353515625
3.0413818359375
3.037353515625
3.0413818359375
3.0381591796875
3.0002929687499997
3.0381591796875
3.0397705078125
3.0397705078125
3.0381591796875
3.0405761718749997
3.0389648437499996
3.034130859375
0.5470458984375
0.0322265625
0.0298095703125
0.027392578124999997
0.033032226562499996
0.033837890625
0.033032226562499996
0.033032226562499996
0.033032226562499996
0.0378662109375
0.0322265625
0.033032226562499996
0.0322265625
0.033837890625
0.0362548828125
0.0314208984375
0.0475341796875
0.0322265625
0.0322265625
0.0314208984375
0.0322265625
0.033032226562499996
2.023828125
2.8802490234375
3.037353515625
3.0381591796875
3.0365478515624997
3.0381591796875
3.0381591796875
3.0381591796875
3.0381591796875
3.037353515625
3.037353515625
3.0389648437499996
2.9608154296875
3.037353515625
3.0397705078125
3.037353515625
3.0389648437499996
3.0381591796875
3.0389648437499996
3.037353515625
1.7716552734375
0.0322265625
0.0322265625
0.0322265625
0.0322265625
0.033837890625
0.0322265625
0.033032226562499996
0.02900390625
0.033032226562499996
0.0322265625
0.0322265625
0.045117187499999996
0.033032226562499996
0.033032226562499996
0.0362548828125
0.033837890625
0.033837890625
0.0346435546875
0.037060546874999996
0.033032226562499996
0.0322265625
1.46630859375
2.6901123046874997
3.034130859375
3.0389648437499996
3.0389648437499996
3.037353515625
3.0381591796875
3.0365478515624997
3.0397705078125
3.0365478515624997
3.0365478515624997
3.0421875
3.01318359375
3.0099609375
3.0405761718749997
3.0389648437499996
3.0365478515624997
3.0389648437499996
3.0389648437499996
3.0381591796875
1.85625
0.030615234374999998
0.033032226562499996
0.0314208984375
0.033837890625
0.0322265625
0.0314208984375
0.033837890625
0.02900390625
0.0298095703125
0.0322265625
0.0322265625
0.0314208984375
