0.0298095703125
0.0322265625
0.033032226562499996
2.151123046875
2.9503417968749996
3.0389648437499996
3.0389648437499996
3.037353515625
3.0381591796875
3.0429931640624996
3.034130859375
3.0381591796875
3.037353515625
3.0381591796875
3.0325195312499997
2.9189208984375
2.8415771484374996
3.0405761718749997
3.0381591796875
3.0389648437499996
3.0381591796875
3.0381591796875
3.0389648437499996
2.1978515625
0.033032226562499996
0.02900390625
0.030615234374999998
0.0322265625
0.0314208984375
0.033032226562499996
0.0362548828125
0.03544921875
0.0298095703125
0.033032226562499996
0.0298095703125
0.0322265625
0.033032226562499996
0.0322265625
0.033032226562499996
0.03544921875
0.033032226562499996
0.0314208984375
0.030615234374999998
0.0322265625
0.033032226562499996
1.442138671875
2.6756103515625
3.0357421875
3.0389648437499996
3.0381591796875
3.037353515625
3.0389648437499996
3.0405761718749997
3.0381591796875
3.034130859375
3.037353515625
3.0397705078125
2.8133789062499996
2.8947509765625
3.0405761718749997
3.0413818359375
3.0381591796875
3.037353515625
3.037353515625
3.0397705078125
3.0381591796875
1.0675048828125
0.0322265625
0.033837890625
0.033837890625
0.030615234374999998
0.03544921875
0.0322265625
0.0322265625
0.033837890625
0.033032226562499996
0.0314208984375
0.033032226562499996
0.02900390625
0.033837890625
0.03544921875
0.0322265625
0.030615234374999998
0.02900390625
0.0322265625
0.0314208984375
0.030615234374999998
0.033032226562499996
2.292919921875
2.989013671875
3.0405761718749997
3.037353515625
3.0381591796875
3.037353515625
3.0381591796875
3.037353515625
3.0365478515624997
3.0365478515624997
2.9640380859374997
2.9100585937499996
2.8625244140625
2.882666015625
3.0381591796875
3.0389648437499996
3.0365478515624997
3.0365478515624997
3.0389648437499996
3.0365478515624997
2.2051025390625
0.0322265625
0.0322265625
0.033032226562499996
0.033837890625
0.033032226562499996
0.033032226562499996
0.033032226562499996
0.0281982421875
0.0322265625
0.033032226562499996
0.0322265625
0.033032226562499996
0.030615234374999998
0.0322265625
0.0298095703125
0.033032226562499996
0.033032226562499996
0.0322265625
0.033032226562499996
0.0346435546875
0.033837890625
1.7845458984375
2.7005859374999996
3.0462158203125
3.0405761718749997
3.0405761718749997
3.037353515625
3.04541015625
3.037353515625
3.0381591796875
3.0389648437499996
3.037353515625
2.9817626953125
2.98095703125
2.8593017578124997
3.0389648437499996
3.037353515625
3.0405761718749997
3.0365478515624997
3.0381591796875
3.0381591796875
1.8103271484374999
0.033032226562499996
0.033837890625
0.0362548828125
0.033032226562499996
0.03544921875
0.033032226562499996
0.033032226562499996
0.0322265625
0.033032226562499996
0.0346435546875
0.0322265625
0.03544921875
0.03544921875
0.0322265625
0.0314208984375
0.033837890625
0.037060546874999996
0.0322265625
0.033032226562499996
0.0322265625
0.033032226562499996
1.4598632812499999
2.5628173828125
3.037353515625
3.037353515625
3.0357421875
3.0421875
3.037353515625
3.0389648437499996
3.037353515625
3.037353515625
3.0389648437499996
3.0349365234374996
2.9914306640625
2.9205322265625
3.0381591796875
3.0357421875
3.0389648437499996
3.0381591796875
3.0389648437499996
3.0389648437499996
3.0365478515624997
1.1416259765624999
0.0322265625
0.0362548828125
0.033032226562499996
0.0322265625
0.033837890625
0.0314208984375
0.0322265625
0.033032226562499996
0.0322265625
0.0322265625
0.0322265625
0.033032226562499996
0.033032226562499996
0.033837890625
0.033032226562499996
0.033837890625
0.033032226562499996
0.02900390625
0.0346435546875
0.0322265625
0.0314208984375
1.7249267578124998
2.8778320312499996
3.0421875
3.0357421875
3.0381591796875
3.0405761718749997
3.037353515625
3.0381591796875
3.0421875
3.0381591796875
3.0357421875
3.0333251953125
3.005126953125
2.8802490234375
3.0381591796875
3.0381591796875
3.0381591796875
3.0381591796875
3.037353515625
3.037353515625
2.1938232421875
0.0314208984375
0.037060546874999996
0.02900390625
0.0346435546875
0.033032226562499996
0.0322265625
0.033032226562499996
0.033032226562499996
0.0314208984375
0.0322265625
0.0322265625
0.0314208984375
0.0322265625
0.0322265625
0.0362548828125
0.0298095703125
0.0298095703125
0.0322265625
0.0314208984375
0.033032226562499996
0.0314208984375
1.5645996093749999
2.7432861328125
3.037353515625
3.0413818359375
3.0381591796875
3.0381591796875
3.0389648437499996
3.050244140625
3.037353515625
3.0389648437499996
3.037353515625
3.0381591796875
2.9366455078125
2.8794433593749997
3.0389648437499996
3.0381591796875
3.0397705078125
3.037353515625
3.0381591796875
3.0389648437499996
1.2511962890625
0.0322265625
0.0362548828125
0.0322265625
0.0346435546875
0.03544921875
0.033032226562499996
0.0322265625
0.033837890625
0.0298095703125
0.033032226562499996
0.03544921875
0.033032226562499996
0.033032226562499996
0.0314208984375
0.0322265625
0.0322265625
0.033837890625
0.0314208984375
0.0314208984375
0.0322265625
0.0322265625
1.2189697265625
2.4032958984375
3.0413818359375
3.0429931640624996
3.0389648437499996
3.0397705078125
3.037353515625
3.0365478515624997
3.0389648437499996
3.0397705078125
3.034130859375
3.0397705078125
3.0010986328125
2.92294921875
3.0381591796875
3.0389648437499996
3.034130859375
3.0381591796875
3.0389648437499996
3.0389648437499996
3.0397705078125
1.1819091796874999
0.0322265625
0.02900390625
0.033032226562499996
0.0322265625
0.0346435546875
0.030615234374999998
0.0346435546875
0.02900390625
0.033837890625
0.0322265625
0.0314208984375
0.030615234374999998
0.033032226562499996
0.0322265625
0.0314208984375
0.033032226562499996
0.02900390625
0.0322265625
0.033032226562499996
0.033837890625
0.033032226562499996
2.054443359375
2.8174072265624996
3.037353515625
3.0421875
3.0381591796875
3.0381591796875
3.0357421875
3.0421875
3.0381591796875
3.037353515625
3.0381591796875
3.0389648437499996
2.9914306640625
3.037353515625
3.037353515625
3.02607421875
3.037353515625
3.0381591796875
3.0381591796875
3.0405761718749997
1.5162597656249999
0.02900390625
0.0322265625
0.033032226562499996
0.033032226562499996
0.0281982421875
0.0322265625
0.033032226562499996
0.0346435546875
0.0322265625
0.033032226562499996
0.0322265625
0.030615234374999998
0.0314208984375
0.0322265625
0.03544921875
0.0346435546875
0.030615234374999998
0.033032226562499996
0.0346435546875
0.0322265625
0.033837890625
1.4928955078125
2.7666503906249997
3.0389648437499996
3.0381591796875
3.0357421875
3.037353515625
3.0389648437499996
3.0381591796875
3.0357421875
3.0381591796875
3.0421875
3.0397705078125
3.0010986328125
2.9382568359374996
3.037353515625
3.037353515625
3.0389648437499996
3.0381591796875
3.0389648437499996
3.037353515625
1.843359375
0.22478027343749998
0.0322265625
0.033032226562499996
0.033837890625
0.033837890625
0.03544921875
0.0322265625
0.0346435546875
0.030615234374999998
0.030615234374999998
0.033837890625
0.0322265625
0.030615234374999998
0.0322265625
0.0322265625
0.033032226562499996
0.0322265625
0.033032226562499996
0.030615234374999998
0.0322265625
0.0322265625
0.030615234374999998
2.1076171875
3.0405761718749997
3.0357421875
3.0381591796875
3.037353515625
3.0381591796875
3.037353515625
3.0381591796875
3.0397705078125
3.0365478515624997
3.0413818359375
2.9801513671874997
2.9269775390625
3.037353515625
3.0381591796875
3.0357421875
3.0381591796875
3.0365478515624997
3.0389648437499996
3.0405761718749997
1.413134765625
0.0322265625
0.033837890625
0.033837890625
0.033837890625
0.0322265625
0.033837890625
0.02900390625
0.0322265625
0.0362548828125
0.033837890625
0.033032226562499996
0.033837890625
0.0314208984375
0.033032226562499996
0.0346435546875
0.033837890625
0.033032226562499996
0.0322265625
0.0322265625
0.0322265625
0.02900390625
2.2631103515624997
3.0397705078125
3.0357421875
3.0397705078125
3.0389648437499996
3.037353515625
3.037353515625
3.043798828125
3.0381591796875
3.0421875
3.0389648437499996
3.0381591796875
3.0172119140625
2.9712890625
3.0389648437499996
3.0397705078125
3.0389648437499996
3.037353515625
3.0365478515624997
3.037353515625
1.8232177734375
0.0298095703125
0.030615234374999998
0.030615234374999998
0.03544921875
0.0322265625
0.0322265625
0.038671874999999994
0.033032226562499996
0.0322265625
0.030615234374999998
0.0346435546875
0.0322265625
0.033032226562499996
0.0362548828125
0.0322265625
0.0322265625
0.033837890625
0.0322265625
0.0346435546875
0.0362548828125
0.0346435546875
1.5662109375
2.8166015625
3.0405761718749997
3.0381591796875
3.0405761718749997
3.037353515625
3.0397705078125
3.037353515625
3.0365478515624997
3.0405761718749997
3.0357421875
3.0349365234374996
2.96484375
2.9382568359374996
3.0381591796875
3.0421875
3.0349365234374996
3.0349365234374996
3.0357421875
3.0381591796875
2.5853759765624997
0.50595703125
0.0322265625
0.0378662109375
0.030615234374999998
0.033032226562499996
0.033032226562499996
0.0322265625
0.03544921875
0.0314208984375
0.0322265625
0.0362548828125
0.030615234374999998
0.0322265625
0.0322265625
0.02900390625
0.033032226562499996
0.0322265625
0.033032226562499996
0.033032226562499996
0.0346435546875
0.0346435546875
0.033032226562499996
2.1487060546875
3.037353515625
3.0365478515624997
3.0421875
3.0397705078125
3.037353515625
3.0357421875
3.0405761718749997
3.0389648437499996
3.037353515625
3.0349365234374996
2.9785400390624996
2.9221435546874996
3.0389648437499996
3.037353515625
3.0349365234374996
3.0397705078125
3.0421875
3.0397705078125
3.0381591796875
1.6282470703124998
0.03544921875
0.02900390625
0.0314208984375
0.0314208984375
0.033032226562499996
0.033032226562499996
0.0322265625
0.030615234374999998
0.033032226562499996
0.030615234374999998
0.0322265625
0.033837890625
0.0362548828125
0.0298095703125
0.0322265625
0.0314208984375
0.033032226562499996
0.037060546874999996
0.0346435546875
0.03544921875
0.0362548828125
2.0230224609375
2.8770263671875
3.037353515625
3.0349365234374996
3.0397705078125
3.0381591796875
3.0365478515624997
3.0381591796875
3.0389648437499996
3.0421875
3.0357421875
3.0397705078125
3.011572265625
2.9020019531249996
3.0365478515624997
3.0397705078125
3.0405761718749997
3.0381591796875
3.0397705078125
3.0421875
1.8344970703124999
0.0346435546875
0.033032226562499996
0.033837890625
0.033032226562499996
0.0298095703125
0.030615234374999998
0.0322265625
0.033032226562499996
0.0322265625
0.03544921875
0.0322265625
0.0322265625
0.0322265625
0.0322265625
0.033032226562499996
0.033032226562499996
0.0281982421875
0.03544921875
0.033032226562499996
0.02900390625
0.033837890625
1.5492919921875
2.6111572265625
3.0389648437499996
3.0381591796875
3.0381591796875
3.0365478515624997
3.0389648437499996
3.0413818359375
3.037353515625
3.0381591796875
3.043798828125
3.0389648437499996
2.95517578125
2.9092529296875
3.037353515625
3.0421875
3.0389648437499996
3.0413818359375
3.0397705078125
3.0397705078125
3.037353515625
0.6985107421875
0.033837890625
0.0322265625
0.0322265625
0.033032226562499996
0.033032226562499996
0.033837890625
0.033837890625
0.033032226562499996
0.033032226562499996
0.033032226562499996
0.0346435546875
0.0322265625
0.0314208984375
0.0322265625
0.0322265625
0.0322265625
0.0322265625
0.033032226562499996
0.0298095703125
0.033032226562499996
0.033837890625
1.91748046875
2.9906249999999996
3.0365478515624997
3.0397705078125
3.0413818359375
3.0381591796875
3.0357421875
3.037353515625
3.0389648437499996
3.0381591796875
3.0349365234374996
2.9849853515625
2.96162109375
3.029296875
3.0381591796875
3.0397705078125
3.037353515625
3.0357421875
3.037353515625
3.0389648437499996
1.8248291015625
0.033032226562499996
0.0322265625
0.0362548828125
0.033837890625
0.0322265625
0.0322265625
0.02900390625
0.033837890625
0.0322265625
0.02900390625
0.0322265625
0.033032226562499996
0.033032226562499996
0.0443115234375
0.033032226562499996
0.033837890625
0.0322265625
0.0322265625
0.0322265625
0.0322265625
0.033032226562499996
2.165625
3.0365478515624997
3.0413818359375
3.0349365234374996
3.0389648437499996
3.0405761718749997
3.0397705078125
3.0405761718749997
3.034130859375
3.0389648437499996
3.0405761718749997
3.0228515624999996
3.0357421875
2.9342285156249996
3.037353515625
3.037353515625
3.0389648437499996
3.0365478515624997
3.0389648437499996
3.0405761718749997
1.5412353515625
0.0362548828125
0.0314208984375
0.033032226562499996
0.0322265625
0.0322265625
0.033032226562499996
0.0346435546875
0.02900390625
0.0346435546875
0.0314208984375
0.0314208984375
0.0298095703125
0.0322265625
0.0322265625
0.0362548828125
0.0298095703125
0.033032226562499996
0.033032226562499996
0.033837890625
0.033837890625
0.033837890625
1.4373046875
2.6361328124999996
3.0357421875
3.0405761718749997
3.037353515625
3.0397705078125
3.0389648437499996
3.0405761718749997
3.0389648437499996
3.0357421875
3.037353515625
3.0381591796875
3.0139892578125
2.8689697265625
3.0389648437499996
3.0397705078125
3.0349365234374996
3.0365478515624997
3.037353515625
3.034130859375
3.0389648437499996
0.8266113281249999
0.0362548828125
0.0314208984375
0.033032226562499996
0.033032226562499996
0.0298095703125
0.03544921875
0.0322265625
0.033032226562499996
0.0281982421875
0.0322265625
0.0322265625
0.0322265625
0.0346435546875
0.0314208984375
0.033032226562499996
0.033837890625
0.0322265625
0.0322265625
0.033837890625
0.033837890625
0.0322265625
1.7974365234374998
2.9350341796875
3.037353515625
3.0413818359375
3.0405761718749997
3.0365478515624997
3.0381591796875
3.0429931640624996
3.037353515625
3.037353515625
3.0325195312499997
3.0164062499999997
2.9986816406249996
2.9261718749999996
3.0365478515624997
3.0405761718749997
3.0389648437499996
3.0381591796875
3.0349365234374996
3.037353515625
2.1406494140625
0.0322265625
0.0322265625
0.0362548828125
0.0322265625
0.0346435546875
0.030615234374999998
0.0298095703125
0.033032226562499996
0.0281982421875
0.0314208984375
0.02900390625
0.033032226562499996
0.033032226562499996
0.0322265625
0.033032226562499996
0.033032226562499996
0.033837890625
0.03544921875
0.03544921875
0.0322265625
0.0322265625
2.0173828124999997
2.9712890625
3.037353515625
3.0381591796875
3.0381591796875
3.0389648437499996
3.0421875
3.0365478515624997
3.037353515625
3.0389648437499996
3.037353515625
3.0389648437499996
2.8560791015625
2.8794433593749997
3.0389648437499996
3.0389648437499996
3.037353515625
3.0357421875
3.0381591796875
3.0389648437499996
1.3962158203125
0.03544921875
0.033032226562499996
0.0322265625
0.0322265625
0.033837890625
0.0322265625
0.0314208984375
0.0322265625
0.033032226562499996
0.033032226562499996
0.030615234374999998
0.03544921875
0.03544921875
0.030615234374999998
0.033032226562499996
0.0322265625
0.03544921875
0.0322265625
0.030615234374999998
0.0346435546875
0.033032226562499996
1.4840332031249999
2.3984619140625
3.0389648437499996
3.0389648437499996
3.0397705078125
3.037353515625
3.0405761718749997
3.0381591796875
3.0397705078125
3.0397705078125
3.0381591796875
3.034130859375
2.956787109375
2.924560546875
3.0365478515624997
3.0397705078125
3.037353515625
3.0389648437499996
3.0429931640624996
3.037353515625
3.0389648437499996
0.9031494140624999
0.0322265625
0.033837890625
0.033032226562499996
0.033837890625
0.0314208984375
0.0314208984375
0.0322265625
0.02900390625
0.033032226562499996
0.0322265625
0.033837890625
0.033032226562499996
0.033837890625
0.033837890625
0.0322265625
0.0322265625
0.0298095703125
0.033032226562499996
0.030615234374999998
0.033032226562499996
0.030615234374999998
1.9843505859375
3.0381591796875
3.0389648437499996
3.0381591796875
3.037353515625
3.0413818359375
3.0397705078125
3.037353515625
3.0357421875
3.037353515625
3.0349365234374996
3.0389648437499996
3.0091552734375
2.947119140625
3.037353515625
3.0389648437499996
3.0421875
3.037353515625
3.0421875
3.0365478515624997
1.9102294921874998
0.0346435546875
0.0322265625
0.02900390625
0.0346435546875
0.033032226562499996
0.0314208984375
0.0314208984375
0.037060546874999996
0.033032226562499996
0.0322265625
0.033032226562499996
0.0322265625
0.0298095703125
0.0346435546875
0.033032226562499996
0.0322265625
0.0322265625
0.033032226562499996
0.030615234374999998
0.033837890625
0.0362548828125
1.6451660156249999
2.7336181640625
3.0405761718749997
3.0413818359375
3.0389648437499996
3.0389648437499996
3.0381591796875
3.0381591796875
3.037353515625
3.0357421875
3.0389648437499996
3.0397705078125
3.037353515625
2.85849609375
3.0365478515624997
3.037353515625
3.0421875
3.0413818359375
3.0389648437499996
3.0421875
1.132763671875
0.033032226562499996
0.033837890625
0.0322265625
0.0322265625
0.0346435546875
0.0322265625
0.033032226562499996
0.033032226562499996
0.033032226562499996
0.033032226562499996
0.02900390625
0.037060546874999996
0.033032226562499996
0.0322265625
0.033032226562499996
0.033032226562499996
0.0362548828125
0.033032226562499996
0.0314208984375
0.0298095703125
0.033032226562499996
1.8312744140625
2.7948486328124997
3.0381591796875
3.037353515625
3.0397705078125
3.0405761718749997
3.0381591796875
3.037353515625
3.0389648437499996
3.037353515625
3.0405761718749997
3.0381591796875
3.037353515625
3.0357421875
3.0397705078125
3.0381591796875
3.0381591796875
3.0389648437499996
3.0397705078125
3.0389648437499996
3.0381591796875
1.506591796875
0.033032226562499996
0.033032226562499996
0.033837890625
0.02900390625
0.0362548828125
0.033032226562499996
0.0298095703125
0.0322265625
0.033032226562499996
0.033837890625
0.0298095703125
0.0322265625
0.0281982421875
0.02900390625
0.030615234374999998
0.033032226562499996
0.0322265625
0.0298095703125
0.033837890625
0.033837890625
0.033032226562499996
1.123095703125
2.10439453125
2.5233398437499996
2.9970703125
3.034130859375
3.0389648437499996
3.0405761718749997
3.0397705078125
3.0405761718749997
3.0397705078125
3.0365478515624997
3.037353515625
2.89072265625
2.914892578125
3.0381591796875
3.037353515625
3.0397705078125
3.0405761718749997
3.0405761718749997
3.0421875
1.66611328125
0.03544921875
0.0322265625
0.033837890625
0.0322265625
0.0314208984375
0.03544921875
0.02900390625
0.03544921875
0.0322265625
0.0314208984375
0.033032226562499996
0.033837890625
0.033032226562499996
0.033837890625
0.0314208984375
0.0322265625
0.038671874999999994
0.037060546874999996
0.033837890625
0.03544921875
0.0314208984375
1.3349853515624999
2.5080322265625
3.0389648437499996
3.0397705078125
3.0381591796875
3.0389648437499996
3.0365478515624997
3.0389648437499996
3.0381591796875
3.0357421875
3.0381591796875
3.0389648437499996
3.0389648437499996
2.9455078125
3.0357421875
3.0389648437499996
3.037353515625
3.0421875
3.0357421875
3.0389648437499996
1.585546875
0.1458251953125
0.033032226562499996
0.0322265625
0.03544921875
0.0346435546875
0.0322265625
0.0322265625
0.0322265625
0.0322265625
0.033032226562499996
0.0346435546875
0.033032226562499996
0.03544921875
0.033032226562499996
0.0322265625
0.0314208984375
0.030615234374999998
0.0314208984375
0.033837890625
0.0346435546875
0.0322265625
0.030615234374999998
2.151123046875
3.0365478515624997
3.0389648437499996
3.0389648437499996
3.0397705078125
3.0397705078125
3.0357421875
3.0381591796875
3.0389648437499996
3.037353515625
3.0389648437499996
3.0405761718749997
2.9761230468749997
3.0389648437499996
3.0397705078125
3.0405761718749997
3.0381591796875
3.0389648437499996
3.0405761718749997
3.0389648437499996
1.3067871093749999
0.0346435546875
0.03544921875
0.033032226562499996
0.033837890625
0.030615234374999998
0.0322265625
0.027392578124999997
0.0322265625
0.0346435546875
0.0314208984375
0.0281982421875
0.033032226562499996
0.033032226562499996
0.0362548828125
0.0362548828125
0.02900390625
0.0322265625
0.0314208984375
0.0322265625
0.0346435546875
0.0322265625
1.64677734375
2.715087890625
3.0381591796875
3.037353515625
3.037353515625
3.0389648437499996
3.0389648437499996
3.0381591796875
3.043798828125
3.0389648437499996
3.0389648437499996
3.0397705078125
3.037353515625
2.9519531249999997
3.0397705078125
3.0405761718749997
3.0421875
3.037353515625
3.0389648437499996
3.0429931640624996
1.0900634765625
0.037060546874999996
0.033837890625
0.03544921875
0.03544921875
0.0314208984375
0.0322265625
0.033032226562499996
0.0362548828125
0.033032226562499996
0.0322265625
0.0314208984375
0.0322265625
0.0298095703125
0.0322265625
0.033837890625
0.033032226562499996
0.030615234374999998
0.0322265625
0.0346435546875
0.0281982421875
0.033032226562499996
1.3688232421875
2.5660400390625
3.0397705078125
3.0389648437499996
3.037353515625
3.0389648437499996
3.0381591796875
3.0357421875
3.037353515625
3.0389648437499996
3.0381591796875
3.0365478515624997
2.9970703125
2.9366455078125
3.0365478515624997
3.0405761718749997
3.0389648437499996
3.0389648437499996
3.0357421875
3.0381591796875
3.037353515625
1.1464599609375
0.0322265625
0.033032226562499996
0.033032226562499996
0.033837890625
0.0322265625
0.033032226562499996
0.0322265625
0.0322265625
0.02900390625
0.0298095703125
0.02900390625
0.033032226562499996
0.033837890625
0.0322265625
0.0322265625
0.030615234374999998
0.0322265625
0.0322265625
0.0314208984375
0.0322265625
0.0322265625
1.9569580078125
3.0405761718749997
3.0389648437499996
3.0381591796875
3.0357421875
3.0397705078125
3.0389648437499996
3.0397705078125
3.0389648437499996
3.0381591796875
3.037353515625
3.0405761718749997
3.0357421875
2.9422851562499996
3.043798828125
3.034130859375
3.0421875
3.037353515625
3.034130859375
3.0397705078125
1.8506103515624999
0.030615234374999998
0.030615234374999998
0.030615234374999998
0.0346435546875
0.033032226562499996
0.030615234374999998
0.0362548828125
0.033032226562499996
0.033032226562499996
0.033032226562499996
0.027392578124999997
0.0322265625
0.0314208984375
0.033837890625
0.0322265625
0.0322265625
0.033032226562499996
0.0322265625
0.033032226562499996
0.033837890625
0.0314208984375
1.116650390625
2.76181640625
3.037353515625
3.0381591796875
3.0381591796875
3.0389648437499996
3.0349365234374996
3.0389648437499996
3.037353515625
3.0381591796875
3.0357421875
3.0365478515624997
2.969677734375
2.89716796875
3.0397705078125
3.0429931640624996
3.037353515625
3.0357421875
3.0389648437499996
3.0413818359375
3.037353515625
1.0884521484375
0.0378662109375
0.0322265625
0.0322265625
0.0362548828125
0.0314208984375
0.030615234374999998
0.033032226562499996
0.0322265625
0.03544921875
0.0322265625
0.033032226562499996
0.0346435546875
0.033032226562499996
0.0314208984375
0.0322265625
0.030615234374999998
0.033032226562499996
0.0314208984375
0.0281982421875
0.0322265625
0.033032226562499996
1.9835449218749999
3.0389648437499996
3.0421875
3.0413818359375
3.0413818359375
3.0389648437499996
3.0357421875
3.0357421875
3.0365478515624997
3.0405761718749997
3.0389648437499996
3.0381591796875
3.0381591796875
2.9422851562499996
3.0381591796875
3.0349365234374996
3.037353515625
3.037353515625
3.0405761718749997
3.0389648437499996
2.0455810546874997
0.03544921875
0.033837890625
0.033032226562499996
0.033032226562499996
0.0322265625
0.0322265625
0.0322265625
0.033032226562499996
0.033032226562499996
0.0322265625
0.0362548828125
0.0322265625
0.033837890625
0.0322265625
0.0314208984375
0.0322265625
0.033032226562499996
0.033032226562499996
0.0378662109375
0.0322265625
0.033032226562499996
1.229443359375
2.6901123046874997
3.0397705078125
3.037353515625
3.0389648437499996
3.0421875
3.0381591796875
3.0429931640624996
3.0421875
3.0421875
3.0381591796875
3.0357421875
3.0228515624999996
2.9438964843749997
3.0397705078125
3.0381591796875
3.037353515625
3.0365478515624997
3.0381591796875
3.0389648437499996
3.0389648437499996
0.03544921875
0.033032226562499996
0.033032226562499996
0.033032226562499996
0.033032226562499996
0.033032226562499996
0.0298095703125
0.030615234374999998
0.0322265625
0.0322265625
0.03544921875
0.030615234374999998
0.0362548828125
0.0322265625
0.03544921875
0.0314208984375
0.033837890625
0.033837890625
0.0322265625
0.0314208984375
0.033032226562499996
0.033837890625
2.5015869140625
3.0365478515624997
3.0389648437499996
3.0357421875
3.0381591796875
3.0381591796875
3.037353515625
3.037353515625
3.0389648437499996
3.037353515625
3.0397705078125
3.0405761718749997
2.995458984375
3.0389648437499996
3.037353515625
3.0413818359375
3.037353515625
3.0357421875
3.0405761718749997
3.037353515625
1.094091796875
0.0322265625
0.0322265625
0.0322265625
0.0322265625
0.0322265625
0.03544921875
0.030615234374999998
0.0362548828125
0.033032226562499996
0.033032226562499996
0.0314208984375
0.02900390625
0.033032226562499996
0.03544921875
0.033032226562499996
0.037060546874999996
0.0362548828125
0.0322265625
0.0346435546875
0.0322265625
0.0322265625
2.1809326171875
2.9350341796875
3.0389648437499996
3.0381591796875
3.0389648437499996
3.0389648437499996
3.0349365234374996
3.0349365234374996
3.034130859375
3.027685546875
3.0397705078125
3.037353515625
2.985791015625
2.8576904296874996
3.0381591796875
3.0389648437499996
3.0357421875
3.0397705078125
3.0397705078125
3.037353515625
2.4927246093749997
0.0362548828125
0.0362548828125
0.0314208984375
0.0322265625
0.033032226562499996
0.0314208984375
0.0322265625
0.0314208984375
0.0298095703125
0.033837890625
0.0322265625
0.0346435546875
0.033837890625
0.0314208984375
0.0322265625
0.0281982421875
0.0322265625
0.0362548828125
0.033837890625
0.02900390625
0.02900390625
1.7692382812499998
2.695751953125
3.037353515625
3.037353515625
3.037353515625
3.037353515625
3.0381591796875
3.0397705078125
3.0397705078125
3.0397705078125
3.0397705078125
3.0365478515624997
3.0357421875
2.9285888671875
3.0421875
3.0389648437499996
3.037353515625
3.0389648437499996
3.037353515625
3.037353515625
3.034130859375
0.9031494140624999
0.0281982421875
0.0314208984375
0.033032226562499996
0.030615234374999998
0.0346435546875
0.0314208984375
0.0322265625
0.030615234374999998
0.033837890625
0.033837890625
0.030615234374999998
0.033837890625
0.0322265625
0.033837890625
0.033032226562499996
0.0322265625
0.033837890625
0.0314208984375
0.0346435546875
0.033032226562499996
0.033032226562499996
2.4387451171875
3.0381591796875
3.0389648437499996
3.0421875
3.037353515625
3.0365478515624997
3.0421875
3.0381591796875
3.0381591796875
3.037353515625
3.0389648437499996
3.0389648437499996
3.0059326171875
2.9044189453125
3.0389648437499996
3.0478271484375
3.037353515625
3.037353515625
3.0357421875
3.0397705078125
1.2383056640624999
0.0314208984375
0.0322265625
0.0298095703125
0.0314208984375
0.033032226562499996
0.033032226562499996
0.0314208984375
0.030615234374999998
0.0322265625
0.0298095703125
0.0322265625
0.0322265625
0.033837890625
0.0322265625
0.0314208984375
0.0346435546875
0.030615234374999998
0.02900390625
0.0322265625
0.02900390625
0.033837890625
1.4228027343749998
2.4290771484375
3.0405761718749997
3.0381591796875
3.0421875
3.0365478515624997
3.0421875
3.0389648437499996
3.037353515625
3.0381591796875
3.0365478515624997
3.0365478515624997
3.0147949218749996
2.940673828125
3.0389648437499996
3.0381591796875
3.0389648437499996
3.037353515625
3.0389648437499996
3.0397705078125
3.0413818359375
0.8499755859375
0.0281982421875
0.030615234374999998
0.0346435546875
0.0322265625
0.0314208984375
0.033837890625
0.0322265625
0.033032226562499996
0.0314208984375
0.030615234374999998
0.0322265625
0.033837890625
0.03544921875
0.033032226562499996
0.033032226562499996
0.030615234374999998
0.0322265625
0.0314208984375
0.0322265625
0.0322265625
0.033032226562499996
2.0343017578125
3.0397705078125
3.0421875
3.0389648437499996
3.0405761718749997
3.0381591796875
3.0429931640624996
3.0381591796875
3.0421875
3.0365478515624997
3.034130859375
3.0284912109374997
3.0075439453125
2.94873046875
3.0389648437499996
3.037353515625
3.0389648437499996
3.0405761718749997
3.037353515625
3.0381591796875
1.9343994140624998
0.0298095703125
0.033837890625
0.033032226562499996
0.033032226562499996
0.033837890625
0.0346435546875
0.03544921875
0.03544921875
0.033032226562499996
0.0281982421875
0.033032226562499996
0.033032226562499996
0.033032226562499996
0.03544921875
0.0322265625
0.0322265625
0.0322265625
0.0322265625
0.02900390625
0.02900390625
0.033837890625
1.5460693359375
2.7432861328125
3.0349365234374996
3.0389648437499996
3.0389648437499996
3.0381591796875
3.0421875
3.04541015625
3.037353515625
3.0365478515624997
3.037353515625
3.0357421875
2.972900390625
2.8963623046875
3.0365478515624997
3.0389648437499996
3.0381591796875
3.0421875
3.043798828125
3.0389648437499996
3.0389648437499996
0.5994140625
0.0346435546875
0.030615234374999998
0.033032226562499996
0.033837890625
0.0314208984375
0.0322265625
0.0314208984375
0.033032226562499996
0.0322265625
0.0314208984375
0.0346435546875
0.033837890625
0.0314208984375
0.037060546874999996
0.0322265625
0.0322265625
0.0322265625
0.030615234374999998
0.0322265625
0.02900390625
0.033032226562499996
2.3549560546875
3.037353515625
3.034130859375
3.034130859375
3.0389648437499996
3.0357421875
3.0381591796875
3.0397705078125
3.0405761718749997
3.0357421875
3.0365478515624997
2.99384765625
2.969677734375
2.8456054687499996
3.0381591796875
3.037353515625
3.037353515625
3.0349365234374996
3.0389648437499996
3.0397705078125
1.9907958984374998
0.033032226562499996
0.0362548828125
0.0314208984375
0.0378662109375
0.0314208984375
0.0346435546875
0.0362548828125
0.0322265625
0.0322265625
0.030615234374999998
0.033032226562499996
0.0322265625
0.0322265625
0.02900390625
0.033032226562499996
0.0298095703125
0.030615234374999998
0.0322265625
0.0298095703125
0.033032226562499996
0.0298095703125
1.59521484375
2.9720947265624997
3.0381591796875
3.0389648437499996
3.037353515625
3.0389648437499996
3.037353515625
3.0389648437499996
3.0389648437499996
3.037353515625
3.0381591796875
3.0365478515624997
3.0059326171875
2.947119140625
3.0381591796875
3.0413818359375
3.0365478515624997
3.0381591796875
3.0397705078125
3.0429931640624996
3.0397705078125
0.03544921875
0.030615234374999998
0.0322265625
0.02900390625
0.033032226562499996
0.02900390625
0.033032226562499996
0.033032226562499996
0.0322265625
0.033837890625
0.033032226562499996
0.0322265625
0.03544921875
0.02900390625
0.03544921875
0.0322265625
0.033837890625
0.0314208984375
0.033032226562499996
0.0314208984375
0.0314208984375
0.033032226562499996
2.5152832031249996
3.0421875
3.0389648437499996
3.037353515625
3.0381591796875
3.037353515625
3.0421875
3.0357421875
3.0381591796875
3.0381591796875
3.0397705078125
2.9906249999999996
2.9664550781249996
3.0325195312499997
3.0381591796875
3.0381591796875
3.037353515625
3.0389648437499996
3.0333251953125
3.0389648437499996
0.7887451171875
0.033032226562499996
0.033837890625
0.033032226562499996
0.0362548828125
0.027392578124999997
0.03544921875
0.030615234374999998
0.033837890625
0.033837890625
0.033837890625
0.033032226562499996
0.0314208984375
0.033032226562499996
0.0322265625
0.0346435546875
0.0314208984375
0.03544921875
0.0322265625
0.0322265625
0.0322265625
0.0322265625
1.9263427734374998
2.7996826171875
3.037353515625
3.0397705078125
3.0421875
3.0389648437499996
3.0381591796875
3.0389648437499996
3.037353515625
3.018017578125
3.0397705078125
3.0333251953125
2.9882080078124997
3.0333251953125
3.0381591796875
3.0413818359375
3.037353515625
3.0381591796875
3.0389648437499996
3.0381591796875
2.160791015625
0.033032226562499996
0.0298095703125
0.033837890625
0.033032226562499996
0.0314208984375
0.0281982421875
0.0322265625
0.033837890625
0.0322265625
0.0298095703125
0.0281982421875
0.0362548828125
0.0322265625
0.0314208984375
0.033032226562499996
0.0362548828125
0.033837890625
0.0322265625
0.030615234374999998
0.033032226562499996
0.0314208984375
1.6749755859375
2.8625244140625
3.0405761718749997
3.037353515625
3.0381591796875
3.0381591796875
3.037353515625
3.043798828125
3.0389648437499996
3.0349365234374996
3.0389648437499996
3.0429931640624996
3.0381591796875
2.995458984375
3.037353515625
3.0397705078125
3.0381591796875
3.037353515625
3.0389648437499996
3.0389648437499996
3.0413818359375
0.69609375
0.0322265625
0.030615234374999998
0.02900390625
0.03544921875
0.033032226562499996
0.0322265625
0.0322265625
0.0322265625
0.0346435546875
0.033837890625
0.033032226562499996
0.03544921875
0.02900390625
0.02900390625
0.0322265625
0.030615234374999998
0.0322265625
0.033032226562499996
0.0314208984375
0.03544921875
0.033837890625
2.14306640625
3.0099609375
3.0397705078125
3.0389648437499996
3.0405761718749997
3.0389648437499996
3.0381591796875
3.0389648437499996
3.0381591796875
3.0405761718749997
3.0397705078125
3.0228515624999996
2.8802490234375
2.9028076171875
3.0365478515624997
3.0397705078125
3.0349365234374996
3.037353515625
3.037353515625
3.0405761718749997
2.08828125
0.033032226562499996
0.0362548828125
0.033032226562499996
0.033032226562499996
0.033032226562499996
0.027392578124999997
0.033837890625
0.0322265625
0.0322265625
0.0314208984375
0.0281982421875
0.030615234374999998
0.0322265625
0.0322265625
0.030615234374999998
0.033837890625
0.0281982421875
0.033837890625
0.0298095703125
0.033032226562499996
0.033032226562499996
1.78857421875
2.6933349609375
3.0381591796875
3.037353515625
3.037353515625
3.0389648437499996
3.0357421875
3.0397705078125
3.0244628906249997
3.0389648437499996
3.0357421875
3.0365478515624997
3.021240234375
2.9922363281249997
3.0389648437499996
3.0381591796875
3.0381591796875
3.0389648437499996
3.0421875
3.0389648437499996
2.9253662109375
0.5478515625
0.0362548828125
0.033032226562499996
0.0314208984375
0.0346435546875
0.0298095703125
0.030615234374999998
0.033837890625
0.033032226562499996
0.0314208984375
0.03544921875
0.0322265625
0.033032226562499996
0.0322265625
0.02900390625
0.0281982421875
0.0322265625
0.030615234374999998
0.0362548828125
0.0322265625
0.0322265625
0.0322265625
2.07861328125
2.771484375
3.0421875
3.0389648437499996
3.0381591796875
3.0357421875
3.0405761718749997
3.0397705078125
3.0389648437499996
3.0413818359375
3.037353515625
3.0389648437499996
2.9656494140625
2.908447265625
3.037353515625
3.0389648437499996
3.034130859375
3.0381591796875
3.0421875
3.037353515625
1.64677734375
0.0314208984375
0.033837890625
0.0314208984375
0.0298095703125
0.033837890625
0.033032226562499996
0.0362548828125
0.033837890625
0.0322265625
0.030615234374999998
0.0314208984375
0.0322265625
0.0314208984375
0.03544921875
0.0346435546875
0.0322265625
0.02900390625
0.0322265625
0.0322265625
0.033032226562499996
0.033032226562499996
1.409912109375
2.6240478515624996
3.0397705078125
3.0389648437499996
3.0389648437499996
3.0357421875
3.037353515625
3.0421875
3.0381591796875
3.0421875
3.0381591796875
3.0413818359375
2.9753173828125
2.9261718749999996
3.0413818359375
3.037353515625
3.034130859375
3.0421875
3.0365478515624997
3.0397705078125
2.18173828125
0.4729248046875
0.0322265625
0.033032226562499996
0.0322265625
0.0322265625
0.0314208984375
0.0314208984375
0.0322265625
0.03544921875
0.033032226562499996
0.033032226562499996
0.0362548828125
0.0314208984375
0.033837890625
0.033837890625
0.0362548828125
0.03544921875
0.03544921875
0.03544921875
0.0298095703125
0.033032226562499996
0.033032226562499996
2.0810302734375
3.0389648437499996
3.0349365234374996
3.034130859375
3.0397705078125
3.0381591796875
3.0365478515624997
3.0397705078125
3.0349365234374996
3.0244628906249997
3.0325195312499997
2.9882080078124997
2.9277832031249997
3.0349365234374996
3.037353515625
3.0381591796875
3.0365478515624997
3.0357421875
3.0349365234374996
3.0389648437499996
1.5927978515624999
0.033032226562499996
0.0322265625
0.033032226562499996
0.0298095703125
0.033032226562499996
0.0322265625
0.0322265625
0.0362548828125
0.0322265625
0.02900390625
0.0322265625
0.0322265625
0.033837890625
0.0322265625
0.03544921875
0.033032226562499996
0.030615234374999998
0.0322265625
0.0322265625
0.033032226562499996
0.0362548828125
1.8884765625
3.0381591796875
3.0397705078125
3.0389648437499996
3.0381591796875
3.0413818359375
3.0397705078125
3.0389648437499996
3.0397705078125
3.0397705078125
3.0405761718749997
2.9704833984374996
3.029296875
2.9447021484375
3.037353515625
3.037353515625
3.0421875
3.0325195312499997
3.0405761718749997
3.034130859375
2.286474609375
0.0314208984375
0.033837890625
0.0314208984375
0.0314208984375
0.03544921875
0.0322265625
0.0322265625
0.0281982421875
0.0314208984375
0.0314208984375
0.0322265625
0.02900390625
0.0298095703125
0.0314208984375
0.0322265625
0.0314208984375
0.0314208984375
0.033032226562499996
0.0314208984375
0.037060546874999996
0.0314208984375
0.0362548828125
2.6369384765625
3.0381591796875
3.037353515625
3.0389648437499996
3.0405761718749997
3.0421875
3.0421875
3.0397705078125
3.0365478515624997
3.037353515625
3.0397705078125
2.98740234375
2.9060302734374996
3.0397705078125
3.037353515625
3.0389648437499996
3.0381591796875
3.0365478515624997
3.034130859375
3.0381591796875
0.69609375
0.0322265625
0.0314208984375
0.0314208984375
0.033032226562499996
0.0322265625
0.0314208984375
0.0281982421875
0.0298095703125
0.030615234374999998
0.033032226562499996
0.030615234374999998
0.0322265625
0.0314208984375
0.030615234374999998
0.033032226562499996
0.0314208984375
0.0322265625
0.0362548828125
0.0378662109375
0.033032226562499996
0.033032226562499996
2.14306640625
3.0389648437499996
3.0421875
3.0389648437499996
3.0389648437499996
3.0349365234374996
3.043798828125
3.0405761718749997
3.043798828125
3.0333251953125
3.0397705078125
3.0357421875
2.9906249999999996
2.9173095703125
3.0389648437499996
3.0381591796875
3.0357421875
3.0389648437499996
3.0381591796875
3.0349365234374996
1.832080078125
0.0322265625
0.02900390625
0.033032226562499996
0.030615234374999998
0.0322265625
0.0314208984375
0.0298095703125
0.033837890625
0.033032226562499996
0.03544921875
0.0322265625
0.0322265625
0.0322265625
0.033837890625
0.0322265625
0.033032226562499996
0.0322265625
0.0281982421875
0.03544921875
0.033837890625
0.02900390625
1.6886718749999998
2.827880859375
3.0381591796875
3.037353515625
3.0381591796875
3.0381591796875
3.0381591796875
3.034130859375
3.0389648437499996
3.0405761718749997
3.0381591796875
3.037353515625
2.9688720703125
2.898779296875
3.037353515625
3.0389648437499996
3.037353515625
3.0413818359375
3.0381591796875
3.037353515625
3.0397705078125
0.44794921875
0.027392578124999997
0.0362548828125
0.0314208984375
0.033837890625
0.033032226562499996
0.0362548828125
0.033837890625
0.0322265625
0.030615234374999998
0.0298095703125
0.0322265625
0.033837890625
0.033032226562499996
0.033032226562499996
0.0298095703125
0.033032226562499996
0.0314208984375
0.033032226562499996
0.033032226562499996
0.0281982421875
0.033837890625
2.2179931640625
2.9922363281249997
3.0389648437499996
3.0381591796875
3.0333251953125
3.0421875
3.0405761718749997
3.0381591796875
3.0365478515624997
3.0413818359375
3.0365478515624997
3.037353515625
2.9455078125
3.0389648437499996
3.0421875
3.0389648437499996
3.037353515625
3.0381591796875
3.037353515625
3.0365478515624997
1.5645996093749999
0.0322265625
0.030615234374999998
0.0322265625
0.033032226562499996
0.0322265625
0.03544921875
0.033032226562499996
0.0298095703125
0.033032226562499996
0.0322265625
0.033837890625
0.033032226562499996
0.0314208984375
0.0322265625
0.033032226562499996
0.033032226562499996
0.0322265625
0.033032226562499996
0.0322265625
0.0362548828125
0.0314208984375
1.4316650390624999
2.76181640625
3.0397705078125
3.0389648437499996
3.0381591796875
3.0357421875
3.0389648437499996
3.037353515625
3.0397705078125
3.0381591796875
3.0389648437499996
3.0405761718749997
3.0204345703124997
2.921337890625
3.0381591796875
3.0405761718749997
3.0397705078125
3.0405761718749997
3.0389648437499996
3.0397705078125
1.948095703125
0.15468749999999998
0.0322265625
0.033032226562499996
0.033032226562499996
0.0322265625
0.0322265625
0.0314208984375
0.030615234374999998
0.027392578124999997
0.0322265625
0.033837890625
0.0322265625
0.0322265625
0.033837890625
0.033837890625
0.03544921875
0.033837890625
0.0298095703125
0.033032226562499996
0.0281982421875
0.0362548828125
0.43747558593749997
2.5048095703124997
3.0413818359375
3.043798828125
3.0381591796875
3.0389648437499996
3.0381591796875
3.0389648437499996
3.0365478515624997
3.0421875
3.0421875
3.0478271484375
3.0357421875
2.95517578125
3.0357421875
3.0405761718749997
3.0381591796875
3.0389648437499996
3.0405761718749997
3.0397705078125
3.0325195312499997
1.490478515625
0.037060546874999996
0.0362548828125
0.0322265625
0.02900390625
0.0322265625
0.0322265625
0.0322265625
0.0314208984375
0.02900390625
0.033032226562499996
0.0322265625
0.0322265625
0.0322265625
0.0322265625
0.0322265625
0.0298095703125
0.0281982421875
0.03544921875
0.03544921875
0.030615234374999998
0.0322265625
1.5364013671874999
2.6941406249999997
3.037353515625
3.0389648437499996
3.0381591796875
3.0389648437499996
3.0421875
3.037353515625
3.037353515625
3.0365478515624997
3.037353515625
3.0357421875
3.0389648437499996
2.94873046875
3.0381591796875
3.037353515625
3.0389648437499996
3.0405761718749997
3.0365478515624997
3.0397705078125
1.3019531249999998
0.0604248046875
0.033032226562499996
0.0298095703125
0.027392578124999997
0.033032226562499996
0.0362548828125
0.030615234374999998
0.033032226562499996
0.030615234374999998
0.027392578124999997
0.0314208984375
0.0322265625
0.0322265625
0.0322265625
0.033032226562499996
0.0322265625
0.0314208984375
0.033032226562499996
0.0314208984375
0.02900390625
0.033032226562499996
0.5115966796875
2.5950439453125
3.037353515625
3.0389648437499996
3.0389648437499996
3.0405761718749997
3.034130859375
3.037353515625
3.0357421875
3.0357421875
3.037353515625
3.0389648437499996
3.037353515625
2.9664550781249996
3.034130859375
3.0389648437499996
3.037353515625
3.0413818359375
3.0381591796875
3.0421875
3.0389648437499996
1.2463623046874999
0.0322265625
0.0346435546875
0.033032226562499996
0.0322265625
0.02900390625
0.02900390625
0.033837890625
0.0322265625
0.033032226562499996
0.033032226562499996
0.033032226562499996
0.0298095703125
0.0322265625
0.033032226562499996
0.0314208984375
0.033032226562499996
0.037060546874999996
0.033837890625
0.02900390625
0.0314208984375
0.0322265625
1.9489013671875
2.81982421875
3.0397705078125
3.037353515625
3.0421875
3.0389648437499996
3.0389648437499996
3.0389648437499996
3.0389648437499996
3.0389648437499996
3.0397705078125
3.037353515625
2.9753173828125
2.9712890625
3.037353515625
3.0397705078125
3.0349365234374996
3.0365478515624997
3.0381591796875
3.0357421875
1.58232421875
0.0555908203125
0.0322265625
0.03544921875
0.0281982421875
0.037060546874999996
0.0322265625
0.033032226562499996
0.033837890625
0.02900390625
0.0322265625
0.033032226562499996
0.02900390625
0.0314208984375
0.033032226562499996
0.0322265625
0.0314208984375
0.0346435546875
0.033032226562499996
0.027392578124999997
0.033032226562499996
0.0322265625
0.4439208984375
2.4113525390625
3.043798828125
3.037353515625
3.0389648437499996
3.0389648437499996
3.0365478515624997
3.034130859375
3.0421875
3.037353515625
3.037353515625
3.0421875
3.0067382812499996
2.91328125
3.0381591796875
3.0397705078125
3.037353515625
3.0357421875
3.0365478515624997
3.0381591796875
3.037353515625
0.9128173828124999
0.0322265625
0.0298095703125
0.033032226562499996
0.037060546874999996
0.0322265625
0.0362548828125
0.0322265625
0.033837890625
0.033032226562499996
0.0322265625
0.0322265625
0.0322265625
0.033837890625
0.03544921875
0.037060546874999996
0.0322265625
0.033032226562499996
0.030615234374999998
0.033837890625
0.033032226562499996
0.0322265625
2.2083251953125
3.0349365234374996
3.037353515625
3.0357421875
3.0365478515624997
3.0381591796875
3.0381591796875
3.0381591796875
3.037353515625
3.0389648437499996
3.0389648437499996
3.0389648437499996
3.0413818359375
2.9060302734374996
3.037353515625
3.0389648437499996
3.0405761718749997
3.037353515625
3.0429931640624996
3.037353515625
0.942626953125
0.033032226562499996
0.02900390625
0.033032226562499996
0.0314208984375
0.0298095703125
0.033837890625
0.0322265625
0.0281982421875
0.033837890625
0.0322265625
0.0314208984375
0.0322265625
0.0322265625
0.0362548828125
0.0314208984375
0.033032226562499996
0.030615234374999998
0.033032226562499996
0.0346435546875
0.0314208984375
0.02900390625
1.5992431640625
2.5821533203125
3.0389648437499996
3.0389648437499996
3.0357421875
3.0349365234374996
3.0405761718749997
3.0405761718749997
3.0413818359375
3.037353515625
3.0381591796875
3.0357421875
2.9745117187499996
2.91328125
3.0413818359375
3.0389648437499996
3.0381591796875
3.037353515625
3.0349365234374996
3.034130859375
3.0397705078125
0.8338623046875
0.033032226562499996
0.033032226562499996
0.02900390625
0.0362548828125
0.0281982421875
0.037060546874999996
0.030615234374999998
0.037060546874999996
0.0322265625
0.0322265625
0.0362548828125
0.0314208984375
0.033837890625
0.0281982421875
0.0346435546875
0.030615234374999998
0.0298095703125
0.0322265625
0.0322265625
0.0322265625
0.0281982421875
2.0173828124999997
3.0349365234374996
3.037353515625
3.0381591796875
3.0333251953125
3.0349365234374996
3.0333251953125
3.037353515625
3.0365478515624997
3.0349365234374996
3.04541015625
3.037353515625
2.9664550781249996
2.9277832031249997
3.037353515625
3.0381591796875
3.0421875
3.037353515625
3.04541015625
3.0381591796875
1.8651123046875
0.0281982421875
0.033032226562499996
0.0314208984375
0.033032226562499996
0.033032226562499996
0.033032226562499996
0.0314208984375
0.0322265625
0.0322265625
0.0346435546875
0.0394775390625
0.0322265625
0.02900390625
0.0322265625
0.0322265625
0.0298095703125
0.0322265625
0.0298095703125
0.037060546874999996
0.033032226562499996
0.0281982421875
1.6701416015625
2.9543701171874996
3.0405761718749997
3.037353515625
3.034130859375
3.0397705078125
3.0381591796875
3.037353515625
3.0381591796875
3.0397705078125
3.037353515625
3.0381591796875
3.001904296875
2.9011962890625
3.0397705078125
3.0357421875
3.0389648437499996
3.0389648437499996
3.0381591796875
3.0397705078125
3.034130859375
0.0322265625
0.0322265625
0.0322265625
0.0362548828125
0.0322265625
0.03544921875
0.0281982421875
0.0314208984375
0.0322265625
0.0322265625
0.0314208984375
0.0322265625
0.030615234374999998
0.033032226562499996
0.0314208984375
0.033032226562499996
0.0362548828125
0.033032226562499996
0.0314208984375
0.033032226562499996
0.033032226562499996
0.0314208984375
2.212353515625
2.9841796874999997
3.0421875
3.043798828125
3.0389648437499996
3.037353515625
3.037353515625
3.0381591796875
3.0413818359375
3.037353515625
2.972900390625
3.0172119140625
2.91650390625
2.8464111328125
3.0421875
3.0397705078125
3.037353515625
3.0405761718749997
3.0397705078125
3.037353515625
1.019970703125
0.030615234374999998
0.0322265625
0.0322265625
0.0298095703125
0.0322265625
0.0362548828125
0.0322265625
0.0314208984375
0.0314208984375
0.0322265625
0.027392578124999997
0.030615234374999998
0.0322265625
0.0322265625
0.033032226562499996
0.033032226562499996
0.03544921875
0.0322265625
0.0362548828125
0.02900390625
0.0322265625
1.6379150390625
2.7674560546875
3.0421875
3.0357421875
3.0389648437499996
3.0429931640624996
3.0421875
3.0381591796875
3.0389648437499996
3.0381591796875
3.0357421875
3.0389648437499996
2.9946533203124996
2.9342285156249996
3.0397705078125
3.050244140625
3.0357421875
3.0381591796875
3.0357421875
3.0365478515624997
3.0357421875
0.0322265625
0.037060546874999996
0.0322265625
0.0346435546875
0.027392578124999997
0.0322265625
0.02900390625
0.033837890625
0.033032226562499996
0.0298095703125
0.0362548828125
0.03544921875
0.0322265625
0.0322265625
0.0322265625
0.030615234374999998
0.033032226562499996
0.0314208984375
0.033837890625
0.0314208984375
0.0322265625
0.033032226562499996
2.5571777343749997
3.0381591796875
3.037353515625
3.0389648437499996
3.0381591796875
3.0357421875
3.0381591796875
3.0429931640624996
3.0381591796875
3.0389648437499996
3.037353515625
3.037353515625
2.9817626953125
3.0397705078125
3.037353515625
3.0421875
3.0421875
3.0389648437499996
3.0349365234374996
3.0397705078125
1.126318359375
0.033032226562499996
0.033032226562499996
0.0322265625
0.0314208984375
0.0314208984375
0.03544921875
0.033032226562499996
0.033837890625
0.0322265625
0.0314208984375
0.0322265625
0.03544921875
0.0346435546875
0.0322265625
0.030615234374999998
0.0314208984375
0.0362548828125
0.02900390625
0.0314208984375
0.0322265625
0.0322265625
1.5670166015625
2.7352294921875
3.0357421875
3.0349365234374996
3.037353515625
3.0365478515624997
3.0413818359375
3.0421875
3.0397705078125
3.0357421875
3.0405761718749997
3.0381591796875
3.0010986328125
2.9656494140625
3.0389648437499996
3.0357421875
3.0365478515624997
3.0381591796875
3.0349365234374996
3.0397705078125
2.2260498046875
0.0314208984375
0.02900390625
0.0314208984375
0.033032226562499996
0.02900390625
0.0322265625
0.033837890625
0.0362548828125
0.0322265625
0.03544921875
0.0322265625
0.0322265625
0.033032226562499996
0.0314208984375
0.033032226562499996
0.03544921875
0.030615234374999998
0.0298095703125
0.0322265625
0.0322265625
0.02900390625
1.5033691406249998
2.4169921875
3.0365478515624997
3.037353515625
3.037353515625
3.0357421875
3.0389648437499996
3.0381591796875
3.0389648437499996
3.037353515625
3.0421875
3.0365478515624997
3.003515625
2.9720947265624997
3.0381591796875
3.0397705078125
3.0349365234374996
3.0381591796875
3.0397705078125
3.0389648437499996
3.0381591796875
0.9563232421875
0.033032226562499996
0.0322265625
0.0322265625
0.0281982421875
0.0322265625
0.033032226562499996
0.0322265625
0.030615234374999998
0.033032226562499996
0.0314208984375
0.033032226562499996
0.033032226562499996
0.0322265625
0.0314208984375
0.0322265625
0.0322265625
0.02900390625
0.033032226562499996
0.0362548828125
0.0314208984375
0.0346435546875
2.2349121093749997
3.0365478515624997
3.0389648437499996
3.0357421875
3.037353515625
3.0405761718749997
3.037353515625
3.0405761718749997
3.0333251953125
3.0389648437499996
3.0389648437499996
3.0365478515624997
2.9801513671874997
2.9173095703125
3.0389648437499996
3.0381591796875
3.037353515625
3.0389648437499996
3.037353515625
3.0389648437499996
1.9867675781249998
0.033032226562499996
0.033837890625
0.02900390625
0.0314208984375
0.027392578124999997
0.0314208984375
0.033032226562499996
0.02900390625
0.0322265625
0.03544921875
0.0322265625
0.030615234374999998
0.03544921875
0.0322265625
0.0362548828125
0.0322265625
0.0322265625
0.0322265625
0.0346435546875
0.0322265625
0.033837890625
2.3468994140625
3.0397705078125
3.0389648437499996
3.037353515625
3.0381591796875
3.0421875
3.0389648437499996
3.0389648437499996
3.0381591796875
3.037353515625
3.0389648437499996
3.037353515625
3.0333251953125
3.034130859375
3.0405761718749997
3.0389648437499996
3.0389648437499996
3.037353515625
3.0405761718749997
3.0381591796875
3.0349365234374996
0.8588378906249999
0.033032226562499996
0.030615234374999998
0.033032226562499996
0.0322265625
0.030615234374999998
0.033032226562499996
0.0322265625
0.030615234374999998
0.0322265625
0.037060546874999996
0.0652587890625
0.11923828125
0.1152099609375
0.0322265625
0.0314208984375
0.02900390625
0.0362548828125
0.0322265625
0.033032226562499996
0.033032226562499996
1.9029785156249999
3.0309082031249996
3.0381591796875
3.0357421875
3.037353515625
3.0381591796875
3.0405761718749997
3.0365478515624997
3.0389648437499996
3.0405761718749997
3.0357421875
3.0389648437499996
3.0397705078125
3.037353515625
3.0389648437499996
3.0381591796875
3.0389648437499996
3.0405761718749997
3.037353515625
3.034130859375
3.037353515625
2.0818359374999997
0.03544921875
0.033032226562499996
0.0322265625
0.030615234374999998
0.0322265625
0.02900390625
0.033032226562499996
0.0322265625
0.0322265625
0.033032226562499996
0.033032226562499996
0.0322265625
0.0322265625
0.033032226562499996
0.0346435546875
0.033032226562499996
0.0322265625
0.0322265625
0.0322265625
0.0346435546875
0.033032226562499996
2.5531494140624997
3.0405761718749997
3.0357421875
3.0389648437499996
3.0389648437499996
3.0413818359375
3.037353515625
3.0389648437499996
3.0381591796875
3.0389648437499996
3.0365478515624997
3.0389648437499996
3.0389648437499996
3.037353515625
3.0381591796875
3.037353515625
3.0413818359375
3.0405761718749997
3.0397705078125
3.0381591796875
2.9656494140625
0.033837890625
0.030615234374999998
0.0322265625
0.02900390625
0.0362548828125
0.033032226562499996
0.0298095703125
0.0346435546875
0.0322265625
0.033032226562499996
0.0298095703125
0.0281982421875
0.019335937499999997
0.0322265625
0.0314208984375
0.030615234374999998
0.033032226562499996
0.0322265625
0.0378662109375
0.0314208984375
0.0515625
1.2455566406249998
2.321923828125
3.0188232421874996
3.0421875
3.0381591796875
3.0381591796875
3.0349365234374996
3.037353515625
3.0389648437499996
3.0389648437499996
3.037353515625
3.0381591796875
3.0381591796875
3.034130859375
3.037353515625
3.0405761718749997
3.0389648437499996
3.0389648437499996
3.037353515625
3.0397705078125
2.6482177734374996
0.6171386718749999
0.0322265625
0.0362548828125
0.0322265625
0.0322265625
0.033032226562499996
0.033837890625
0.0322265625
0.033032226562499996
0.0322265625
0.033837890625
0.033032226562499996
0.033032226562499996
0.033837890625
0.033837890625
0.033032226562499996
0.030615234374999998
0.0314208984375
0.0346435546875
0.0314208984375
0.033032226562499996
0.0314208984375
2.0012695312499997
2.8794433593749997
3.0389648437499996
3.0389648437499996
3.0381591796875
3.0405761718749997
3.0381591796875
3.0381591796875
3.0397705078125
3.0389648437499996
3.0413818359375
3.0397705078125
3.0381591796875
3.037353515625
3.037353515625
3.0397705078125
3.0389648437499996
3.0389648437499996
3.0381591796875
3.0381591796875
1.79501953125
0.033837890625
0.0314208984375
0.0322265625
0.0298095703125
0.033032226562499996
0.033032226562499996
0.0322265625
0.037060546874999996
0.033837890625
0.0322265625
0.02900390625
0.030615234374999998
0.0281982421875
0.033032226562499996
0.0346435546875
0.033032226562499996
0.0314208984375
0.033837890625
0.037060546874999996
0.03544921875
0.0322265625
1.2109130859375
2.5499267578125
3.0478271484375
3.0381591796875
3.0389648437499996
3.0381591796875
3.0389648437499996
3.0413818359375
3.0381591796875
3.0389648437499996
3.0357421875
3.0365478515624997
3.0389648437499996
3.0365478515624997
3.0389648437499996
3.037353515625
3.0397705078125
3.0413818359375
3.0381591796875
3.0421875
2.608740234375
0.0322265625
0.0322265625
0.02900390625
0.033032226562499996
0.033032226562499996
0.0314208984375
0.0314208984375
0.033032226562499996
0.0322265625
0.0322265625
0.033032226562499996
0.033032226562499996
0.0322265625
0.033032226562499996
0.0298095703125
0.0322265625
0.033032226562499996
0.030615234374999998
0.037060546874999996
0.033032226562499996
0.030615234374999998
0.030615234374999998
1.690283203125
2.4685546874999997
3.0413818359375
3.0421875
3.037353515625
3.0397705078125
3.0389648437499996
3.037353515625
3.037353515625
3.0389648437499996
3.0389648437499996
3.0381591796875
3.0389648437499996
3.0357421875
3.0389648437499996
3.0333251953125
3.0421875
3.0389648437499996
3.0349365234374996
2.7642333984375
0.7242919921875
0.033032226562499996
0.037060546874999996
0.0362548828125
0.033032226562499996
0.0281982421875
0.033032226562499996
0.0314208984375
0.0298095703125
0.0281982421875
0.030615234374999998
0.033032226562499996
0.0314208984375
0.0322265625
0.0322265625
0.0322265625
0.033837890625
0.030615234374999998
0.0314208984375
0.033032226562499996
0.033032226562499996
0.0322265625
1.173046875
2.27841796875
2.898779296875
3.037353515625
3.0389648437499996
3.0397705078125
3.0381591796875
3.0389648437499996
3.0421875
3.037353515625
3.037353515625
3.037353515625
3.0397705078125
3.0389648437499996
3.034130859375
3.037353515625
3.0365478515624997
3.0405761718749997
3.0333251953125
3.0397705078125
1.732177734375
0.033837890625
0.033032226562499996
0.0322265625
0.02900390625
0.033032226562499996
0.033032226562499996
0.0322265625
0.0322265625
0.0322265625
0.0322265625
0.027392578124999997
0.033032226562499996
0.0346435546875
0.0314208984375
0.0281982421875
0.0298095703125
0.037060546874999996
0.0346435546875
0.0314208984375
0.026586914062499998
0.0314208984375
0.03544921875
2.0681396484375
2.6876953125
3.0397705078125
3.0397705078125
3.0357421875
3.0381591796875
3.0365478515624997
3.0389648437499996
3.0365478515624997
3.0381591796875
3.0381591796875
3.0365478515624997
3.0357421875
3.0381591796875
3.0405761718749997
3.0389648437499996
3.037353515625
3.037353515625
3.0389648437499996
2.4991699218749996
0.0314208984375
0.0322265625
0.0322265625
0.03544921875
0.02900390625
0.0281982421875
0.0298095703125
0.037060546874999996
0.033032226562499996
0.030615234374999998
0.0322265625
0.033032226562499996
0.0298095703125
0.0314208984375
0.0322265625
0.0322265625
0.0322265625
0.0322265625
0.0362548828125
0.0322265625
0.033032226562499996
0.0322265625
1.6330810546874999
2.4169921875
3.0349365234374996
3.0381591796875
3.0413818359375
3.0381591796875
3.0381591796875
3.037353515625
3.0381591796875
3.037353515625
3.0357421875
3.0405761718749997
3.0421875
3.0389648437499996
3.037353515625
3.0405761718749997
3.0381591796875
3.0381591796875
3.0389648437499996
2.44921875
0.6405029296875
0.033032226562499996
0.0281982421875
0.030615234374999998
0.0322265625
0.0314208984375
0.0322265625
0.0322265625
0.033837890625
0.0346435546875
0.033837890625
0.033837890625
0.030615234374999998
0.0346435546875
0.0298095703125
0.033032226562499996
0.0322265625
0.0322265625
0.033837890625
0.0322265625
0.033032226562499996
0.033032226562499996
1.4203857421875
2.2808349609375
2.9986816406249996
3.0365478515624997
3.0381591796875
3.0397705078125
3.0349365234374996
3.0381591796875
3.0413818359375
3.0389648437499996
3.0365478515624997
3.0365478515624997
3.0389648437499996
3.0389648437499996
3.037353515625
3.037353515625
3.0381591796875
3.037353515625
3.037353515625
3.0365478515624997
1.7797119140625
0.0322265625
0.033032226562499996
0.033837890625
0.033032226562499996
0.0362548828125
0.0298095703125
0.0322265625
0.0298095703125
0.0314208984375
0.0322265625
0.027392578124999997
0.0322265625
0.03544921875
0.0322265625
0.033837890625
0.033032226562499996
0.033032226562499996
0.033837890625
0.0322265625
0.033837890625
0.033032226562499996
0.033032226562499996
1.770849609375
2.4685546874999997
2.9334228515625
3.0421875
3.037353515625
3.0381591796875
3.0405761718749997
3.0365478515624997
3.0470214843749996
3.0381591796875
3.037353515625
3.0349365234374996
3.0309082031249996
3.0405761718749997
3.0389648437499996
3.0381591796875
3.0421875
3.0397705078125
3.0357421875
2.2308837890624997
0.0346435546875
0.0314208984375
0.0346435546875
0.0346435546875
0.033837890625
0.0281982421875
0.033032226562499996
0.030615234374999998
0.0362548828125
0.0322265625
0.0314208984375
0.0322265625
0.0314208984375
0.033032226562499996
0.0346435546875
0.0346435546875
0.0322265625
0.0322265625
0.033837890625
0.0314208984375
0.033032226562499996
0.0298095703125
1.6250244140624999
2.2993652343749997
2.8786376953125
3.037353515625
3.0381591796875
3.0397705078125
3.0365478515624997
3.0405761718749997
3.0421875
3.0421875
3.0397705078125
3.0389648437499996
3.0405761718749997
3.037353515625
3.0413818359375
3.037353515625
3.0405761718749997
3.0413818359375
3.0397705078125
3.037353515625
0.6260009765625
0.033837890625
0.0298095703125
0.0346435546875
0.0322265625
0.0314208984375
0.033032226562499996
0.033032226562499996
0.03544921875
0.0314208984375
0.033032226562499996
0.0322265625
0.033032226562499996
0.02900390625
0.0322265625
0.0314208984375
0.02900390625
0.0322265625
0.030615234374999998
0.0362548828125
0.0314208984375
0.033032226562499996
1.0916748046875
2.0262451171875
2.763427734375
3.0389648437499996
3.0413818359375
3.0365478515624997
3.0381591796875
3.0397705078125
3.0397705078125
3.0389648437499996
3.0389648437499996
3.0381591796875
3.037353515625
3.0397705078125
3.037353515625
3.037353515625
3.0389648437499996
3.037353515625
3.0389648437499996
3.0389648437499996
1.815966796875
0.0298095703125
0.033032226562499996
0.0314208984375
0.033032226562499996
0.0322265625
0.033032226562499996
0.030615234374999998
0.02900390625
0.0322265625
0.0322265625
0.0298095703125
0.0322265625
0.030615234374999998
0.030615234374999998
0.0314208984375
0.033032226562499996
0.033032226562499996
0.0322265625
0.033032226562499996
0.033032226562499996
0.03544921875
0.033032226562499996
1.2963134765625
2.354150390625
2.8174072265624996
3.0389648437499996
3.0381591796875
3.0397705078125
3.0397705078125
3.0405761718749997
3.0381591796875
3.0389648437499996
3.0365478515624997
3.0357421875
2.924560546875
3.0389648437499996
3.0397705078125
3.0397705078125
3.0381591796875
3.037353515625
3.0397705078125
1.9166748046875
0.399609375
0.033837890625
0.0322265625
0.0322265625
0.0362548828125
0.030615234374999998
0.020947265625
0.0314208984375
0.0322265625
0.0314208984375
0.0322265625
0.0281982421875
0.033032226562499996
0.02900390625
0.02578125
0.033032226562499996
0.0346435546875
0.0322265625
0.0322265625
0.0362548828125
0.033837890625
0.030615234374999998
1.80791015625
2.65546875
3.0357421875
3.0421875
3.037353515625
3.0405761718749997
3.037353515625
3.0397705078125
3.037353515625
3.0365478515624997
3.037353515625
3.0389648437499996
3.0357421875
3.0381591796875
3.0421875
3.0405761718749997
3.037353515625
3.0405761718749997
3.0381591796875
3.0405761718749997
0.588134765625
0.0314208984375
0.033837890625
0.033032226562499996
0.033032226562499996
0.0314208984375
0.033032226562499996
0.033032226562499996
0.037060546874999996
0.0322265625
0.0298095703125
0.03544921875
0.0314208984375
0.0314208984375
0.0322265625
0.033032226562499996
0.0322265625
0.030615234374999998
0.0298095703125
0.02900390625
0.0322265625
0.0298095703125
1.8707519531249999
2.7086425781249996
3.0397705078125
3.0389648437499996
3.0389648437499996
3.0397705078125
3.0405761718749997
3.034130859375
3.0389648437499996
3.0389648437499996
3.0389648437499996
3.0365478515624997
3.0389648437499996
3.0381591796875
3.0381591796875
3.0349365234374996
3.037353515625
3.0405761718749997
3.0349365234374996
3.0389648437499996
1.9746826171874998
0.0322265625
0.033032226562499996
0.0322265625
0.0322265625
0.03544921875
0.0314208984375
0.033032226562499996
0.0322265625
0.0298095703125
0.033032226562499996
0.0322265625
0.033032226562499996
0.033837890625
0.0322265625
0.02900390625
0.0362548828125
0.0362548828125
0.033032226562499996
0.0322265625
0.030615234374999998
0.0362548828125
1.6491943359374999
3.0043212890624997
3.0365478515624997
3.0365478515624997
3.0397705078125
3.0389648437499996
3.0381591796875
3.037353515625
3.0381591796875
3.0365478515624997
3.0357421875
3.0413818359375
3.0421875
3.0397705078125
3.0381591796875
3.0397705078125
3.0381591796875
3.037353515625
3.037353515625
3.0357421875
2.650634765625
0.0322265625
0.033032226562499996
0.033032226562499996
0.033837890625
0.037060546874999996
0.0362548828125
0.027392578124999997
0.0314208984375
0.033032226562499996
0.033837890625
0.033032226562499996
0.0322265625
0.0322265625
0.0322265625
0.02900390625
0.0314208984375
0.03544921875
0.0322265625
0.033032226562499996
0.033032226562499996
0.0322265625
0.072509765625
2.2921142578125
3.0397705078125
3.0389648437499996
3.037353515625
3.0389648437499996
3.0397705078125
3.037353515625
3.0381591796875
3.0381591796875
3.0365478515624997
3.0397705078125
3.0397705078125
3.0421875
3.0389648437499996
3.0389648437499996
3.0413818359375
3.0365478515624997
3.0381591796875
3.0365478515624997
3.0405761718749997
1.1617675781249999
0.0298095703125
0.0322265625
0.0322265625
0.0298095703125
0.0298095703125
0.0322265625
0.0322265625
0.0281982421875
0.0322265625
0.0322265625
0.0322265625
0.030615234374999998
0.0346435546875
0.0322265625
0.0322265625
0.033032226562499996
0.0322265625
0.0314208984375
0.0322265625
0.0322265625
0.0322265625
1.3156494140625
2.3654296875
3.0397705078125
3.0413818359375
3.0381591796875
3.0381591796875
3.0421875
3.0397705078125
3.0397705078125
3.0381591796875
3.0389648437499996
3.0357421875
3.0381591796875
3.0381591796875
3.0357421875
3.037353515625
3.0365478515624997
3.0389648437499996
3.037353515625
3.0365478515624997
2.2236328125
0.078955078125
0.0322265625
0.033032226562499996
0.03544921875
0.030615234374999998
0.02900390625
0.0314208984375
0.037060546874999996
0.033032226562499996
0.0322265625
0.0314208984375
0.037060546874999996
0.030615234374999998
0.0314208984375
0.0281982421875
0.0322265625
0.03544921875
0.033032226562499996
0.02900390625
0.0346435546875
0.0322265625
0.0362548828125
1.78857421875
2.4596923828125
2.9197265624999997
3.037353515625
3.0389648437499996
3.037353515625
3.0365478515624997
3.0389648437499996
3.0389648437499996
3.0389648437499996
3.0397705078125
3.0349365234374996
3.0067382812499996
3.0349365234374996
3.0389648437499996
3.0397705078125
3.0389648437499996
3.0333251953125
3.0397705078125
2.647412109375
0.0322265625
0.033837890625
0.033032226562499996
0.0322265625
0.0346435546875
0.033032226562499996
0.0322265625
0.033032226562499996
0.0314208984375
0.033032226562499996
0.030615234374999998
0.0314208984375
0.0322265625
0.0322265625
0.0362548828125
0.0362548828125
0.0314208984375
0.033032226562499996
0.03544921875
0.0322265625
0.030615234374999998
0.030615234374999998
1.3865478515624998
2.273583984375
2.7336181640625
3.0389648437499996
3.0381591796875
3.0357421875
3.0397705078125
3.0381591796875
3.0381591796875
3.0389648437499996
3.0397705078125
3.034130859375
3.0357421875
3.0389648437499996
3.0381591796875
3.037353515625
3.0405761718749997
3.037353515625
3.0397705078125
3.0357421875
0.952294921875
0.0346435546875
0.0314208984375
0.0322265625
0.03544921875
0.0322265625
0.0346435546875
0.0322265625
0.0322265625
0.0314208984375
0.03544921875
0.03544921875
0.0322265625
0.0322265625
0.0322265625
0.0322265625
0.0322265625
0.0322265625
0.033032226562499996
0.033032226562499996
0.033032226562499996
0.0322265625
1.1980224609374999
2.3195068359374997
3.037353515625
3.0365478515624997
3.0405761718749997
3.0381591796875
3.0349365234374996
3.0405761718749997
3.0317138671875
3.0397705078125
3.0381591796875
3.0421875
3.037353515625
2.9688720703125
3.0389648437499996
3.0405761718749997
3.0349365234374996
3.0381591796875
3.0365478515624997
3.037353515625
2.14951171875
0.0298095703125
0.0314208984375
0.033032226562499996
0.0362548828125
0.0322265625
0.033837890625
0.033032226562499996
0.0322265625
0.0314208984375
0.0314208984375
0.0322265625
0.0314208984375
0.033032226562499996
0.0322265625
0.0322265625
0.0314208984375
0.0322265625
0.0298095703125
0.03544921875
0.033032226562499996
0.030615234374999998
0.575244140625
2.325146484375
3.0389648437499996
3.0389648437499996
3.0389648437499996
3.0381591796875
3.037353515625
3.0381591796875
3.0381591796875
3.043798828125
3.0413818359375
3.0397705078125
3.037353515625
3.0220458984375
3.0389648437499996
3.0389648437499996
3.0397705078125
3.0349365234374996
3.0421875
3.0397705078125
3.0413818359375
0.0322265625
0.0322265625
0.03544921875
0.0314208984375
0.0314208984375
0.0314208984375
0.0322265625
0.0322265625
0.0322265625
0.0346435546875
0.033032226562499996
0.0322265625
0.0362548828125
0.0346435546875
0.0314208984375
0.0322265625
0.0322265625
0.033032226562499996
0.02900390625
0.033837890625
0.0314208984375
1.4413330078125
2.4202148437499997
3.0381591796875
3.0365478515624997
3.037353515625
3.0405761718749997
3.0381591796875
3.0389648437499996
3.037353515625
3.0421875
3.037353515625
3.0421875
3.0349365234374996
2.9849853515625
3.0389648437499996
3.0389648437499996
3.0397705078125
3.0389648437499996
3.0365478515624997
3.0389648437499996
3.0357421875
0.9933837890624999
0.033837890625
0.03544921875
0.0322265625
0.033032226562499996
0.0322265625
0.0322265625
