3.0357421875
3.0389648437499996
2.9326171875
0.327099609375
0.0322265625
0.0346435546875
0.033837890625
0.033032226562499996
0.033032226562499996
0.0298095703125
0.033032226562499996
0.033032226562499996
0.0322265625
0.033837890625
0.0346435546875
0.0298095703125
0.0322265625
0.0346435546875
0.033032226562499996
0.0322265625
0.0314208984375
0.033032226562499996
0.03544921875
0.0346435546875
1.587158203125
2.6063232421875
3.037353515625
3.0405761718749997
3.0381591796875
3.0381591796875
3.0405761718749997
3.0381591796875
3.0365478515624997
3.037353515625
3.037353515625
3.021240234375
3.0188232421874996
2.8979736328124996
3.037353515625
3.037353515625
3.0381591796875
3.0397705078125
3.0381591796875
3.037353515625
3.0357421875
1.3792968749999999
0.0322265625
0.0322265625
0.033032226562499996
0.033032226562499996
0.033032226562499996
0.033032226562499996
0.0322265625
0.033032226562499996
0.03544921875
0.033032226562499996
0.030615234374999998
0.03544921875
0.0314208984375
0.0298095703125
0.0322265625
0.0298095703125
0.030615234374999998
0.03544921875
0.033837890625
0.0322265625
0.0322265625
1.9432617187499999
3.01318359375
3.0413818359375
3.034130859375
3.0389648437499996
3.0421875
3.037353515625
3.0357421875
3.0381591796875
3.037353515625
3.0421875
3.037353515625
2.9712890625
2.8834716796874997
3.037353515625
3.0389648437499996
3.0381591796875
3.0381591796875
3.0397705078125
3.037353515625
2.1648193359375
0.17644042968749998
0.0281982421875
0.0314208984375
0.0322265625
0.033032226562499996
0.0322265625
0.030615234374999998
0.0322265625
0.033032226562499996
0.0346435546875
0.033032226562499996
0.0322265625
0.033837890625
0.0314208984375
0.033032226562499996
0.033032226562499996
0.0298095703125
0.033837890625
0.03544921875
0.033032226562499996
0.033032226562499996
1.1077880859375
2.5595947265624996
3.034130859375
3.0405761718749997
3.0389648437499996
3.0357421875
3.0421875
3.0381591796875
3.0389648437499996
3.0389648437499996
3.0268798828124996
3.0091552734375
2.9753173828125
2.8778320312499996
3.037353515625
3.037353515625
3.0357421875
3.0397705078125
3.037353515625
3.037353515625
3.0365478515624997
0.5043457031249999
0.0314208984375
0.0322265625
0.0314208984375
0.030615234374999998
0.033032226562499996
0.0322265625
0.030615234374999998
0.0322265625
0.033032226562499996
0.0322265625
0.03544921875
0.037060546874999996
0.033032226562499996
0.033032226562499996
0.0322265625
0.0362548828125
0.02900390625
0.0322265625
0.030615234374999998
0.0322265625
0.0346435546875
2.22041015625
2.9914306640625
3.037353515625
3.037353515625
3.0381591796875
3.0357421875
3.0421875
3.0365478515624997
3.037353515625
3.0389648437499996
3.0389648437499996
3.0349365234374996
2.9519531249999997
3.0365478515624997
3.0389648437499996
3.037353515625
3.034130859375
3.0389648437499996
3.0405761718749997
3.0397705078125
1.5082031249999999
0.033032226562499996
0.0322265625
0.0314208984375
0.030615234374999998
0.030615234374999998
0.033032226562499996
0.0322265625
0.0298095703125
0.0281982421875
0.0314208984375
0.0322265625
0.0322265625
0.0298095703125
0.0322265625
0.030615234374999998
0.02900390625
0.0322265625
0.0346435546875
0.0314208984375
0.0322265625
0.0362548828125
1.77890625
2.8536621093749996
3.0357421875
3.0389648437499996
3.034130859375
3.0381591796875
3.0357421875
3.0381591796875
3.0365478515624997
3.0365478515624997
3.0381591796875
3.0357421875
2.9398681640624997
2.8593017578124997
3.037353515625
3.0381591796875
3.0405761718749997
3.0357421875
3.037353515625
3.037353515625
1.4791992187499998
0.24492187499999998
0.0298095703125
0.0322265625
0.033032226562499996
0.033837890625
0.0322265625
0.033032226562499996
0.0322265625
0.0322265625
0.0322265625
0.0322265625
0.0314208984375
0.030615234374999998
0.033837890625
0.033032226562499996
0.0322265625
0.02900390625
0.0322265625
0.033837890625
0.033837890625
0.033032226562499996
0.033032226562499996
2.634521484375
3.0357421875
3.037353515625
3.0389648437499996
3.037353515625
3.0349365234374996
3.037353515625
3.0365478515624997
3.037353515625
3.0389648437499996
3.0357421875
2.9962646484374997
2.914892578125
3.0365478515624997
3.0421875
3.0381591796875
3.037353515625
3.0397705078125
3.0389648437499996
3.0381591796875
0.604248046875
0.03544921875
0.0298095703125
0.0314208984375
0.0314208984375
0.0322265625
0.0322265625
0.02900390625
0.0322265625
0.0322265625
0.033032226562499996
0.0322265625
0.02900390625
0.0314208984375
0.0298095703125
0.0322265625
0.0322265625
0.0314208984375
0.033837890625
0.0362548828125
0.0346435546875
0.0322265625
2.20107421875
2.985791015625
3.0413818359375
3.0349365234374996
3.0397705078125
3.0365478515624997
3.0397705078125
3.0381591796875
3.0357421875
3.0405761718749997
3.0389648437499996
2.99384765625
2.9519531249999997
2.9358398437499997
3.0413818359375
3.037353515625
3.0397705078125
3.0389648437499996
3.0365478515624997
3.037353515625
1.5847412109374999
0.033032226562499996
0.030615234374999998
0.0346435546875
0.0322265625
0.041088867187499996
0.033032226562499996
0.0322265625
0.0322265625
0.033032226562499996
0.0322265625
0.0322265625
0.02900390625
0.02900390625
0.0322265625
0.0281982421875
0.033837890625
0.0314208984375
0.03544921875
0.0314208984375
0.0322265625
0.033032226562499996
1.45341796875
2.5402587890625
3.0365478515624997
3.0349365234374996
3.0389648437499996
3.0397705078125
3.0381591796875
3.037353515625
3.037353515625
3.037353515625
3.0397705078125
3.0381591796875
2.9898193359375
2.9455078125
3.0389648437499996
3.0405761718749997
3.0381591796875
3.0381591796875
3.0421875
3.037353515625
2.07216796875
0.3673828125
0.0314208984375
0.033032226562499996
0.0322265625
0.0314208984375
0.027392578124999997
0.0314208984375
0.02900390625
0.033032226562499996
0.0322265625
0.0322265625
0.0322265625
0.033032226562499996
0.0322265625
0.033032226562499996
0.0314208984375
0.03544921875
0.0322265625
0.03544921875
0.033032226562499996
0.0322265625
0.0314208984375
2.0560546875
3.0397705078125
3.0421875
3.037353515625
3.037353515625
3.0389648437499996
3.037353515625
3.037353515625
3.0365478515624997
3.0381591796875
3.0413818359375
3.0349365234374996
2.9825683593749996
3.0357421875
3.0389648437499996
3.0405761718749997
3.0389648437499996
3.0381591796875
3.0429931640624996
3.037353515625
1.6886718749999998
0.033032226562499996
0.0298095703125
0.033032226562499996
0.0346435546875
0.033032226562499996
0.0322265625
0.02900390625
0.033032226562499996
0.0322265625
0.0298095703125
0.0322265625
0.0322265625
0.0322265625
0.033032226562499996
0.033032226562499996
0.0322265625
0.02900390625
0.0298095703125
0.0322265625
0.0322265625
0.037060546874999996
2.1744873046874997
3.0002929687499997
3.037353515625
3.0357421875
3.0389648437499996
3.0357421875
3.0397705078125
3.0381591796875
3.0365478515624997
3.0389648437499996
3.0381591796875
2.9672607421875
2.9326171875
2.85205078125
3.0389648437499996
3.037353515625
3.037353515625
3.0381591796875
3.037353515625
3.0421875
1.5460693359375
0.033032226562499996
0.033032226562499996
0.0322265625
0.0322265625
0.033032226562499996
0.033032226562499996
0.030615234374999998
0.03544921875
0.0314208984375
0.033032226562499996
0.02900390625
0.0322265625
0.033032226562499996
0.03544921875
0.02900390625
0.033032226562499996
0.0322265625
0.0346435546875
0.0314208984375
0.0322265625
0.033837890625
1.5517089843749998
2.6683593749999996
3.0389648437499996
3.0365478515624997
3.0405761718749997
3.037353515625
3.0421875
3.0381591796875
3.037353515625
3.0389648437499996
3.0349365234374996
3.037353515625
2.98740234375
2.9511474609375
3.0381591796875
3.0357421875
3.0381591796875
3.0357421875
3.0349365234374996
3.0365478515624997
2.8230468749999997
0.6405029296875
0.0322265625
0.0322265625
0.033032226562499996
0.033032226562499996
0.02900390625
0.0322265625
0.0322265625
0.033032226562499996
0.033837890625
0.0378662109375
0.0314208984375
0.033032226562499996
0.033032226562499996
0.030615234374999998
0.0346435546875
0.0322265625
0.033837890625
0.0322265625
0.033032226562499996
0.0314208984375
0.0281982421875
2.325146484375
3.037353515625
3.0405761718749997
3.0381591796875
3.0349365234374996
3.0357421875
3.037353515625
3.0389648437499996
3.037353515625
3.037353515625
3.037353515625
3.021240234375
2.9519531249999997
2.91650390625
3.0405761718749997
3.0365478515624997
3.0389648437499996
3.0397705078125
3.0349365234374996
3.0381591796875
1.611328125
0.033837890625
0.033837890625
0.033032226562499996
0.0322265625
0.0314208984375
0.0298095703125
0.0346435546875
0.0362548828125
0.0322265625
0.033032226562499996
0.033032226562499996
0.030615234374999998
0.033837890625
0.02900390625
0.0314208984375
0.027392578124999997
0.03544921875
0.0322265625
0.0314208984375
0.030615234374999998
0.0322265625
1.8747802734374999
2.7585937499999997
3.0381591796875
3.037353515625
3.0365478515624997
3.0389648437499996
3.0421875
3.0389648437499996
3.0357421875
3.037353515625
3.037353515625
3.0357421875
3.0333251953125
2.9173095703125
3.037353515625
3.037353515625
3.0389648437499996
3.037353515625
3.0421875
3.0421875
1.72412109375
0.033032226562499996
0.0298095703125
0.033032226562499996
0.0314208984375
0.0322265625
0.030615234374999998
0.0322265625
0.0322265625
0.0322265625
0.0322265625
0.033032226562499996
0.033032226562499996
0.030615234374999998
0.0314208984375
0.0314208984375
0.0322265625
0.030615234374999998
0.0314208984375
0.0314208984375
0.0314208984375
0.0314208984375
1.5718505859374998
2.4927246093749997
3.0397705078125
3.0357421875
3.0397705078125
3.0389648437499996
3.0397705078125
3.0397705078125
3.0389648437499996
3.0365478515624997
3.0413818359375
3.0486328124999997
2.9745117187499996
2.9664550781249996
3.0397705078125
3.037353515625
3.0381591796875
3.0405761718749997
3.037353515625
3.037353515625
3.0429931640624996
0.8314453125
0.03544921875
0.033032226562499996
0.0322265625
0.0298095703125
0.02900390625
0.0322265625
0.0314208984375
0.033837890625
0.03544921875
0.0322265625
0.0322265625
0.0322265625
0.0362548828125
0.0281982421875
0.030615234374999998
0.0322265625
0.030615234374999998
0.0322265625
0.0314208984375
0.033032226562499996
0.0314208984375
2.5676513671874996
3.0389648437499996
3.0405761718749997
3.0381591796875
3.037353515625
3.0381591796875
3.037353515625
3.0389648437499996
3.0381591796875
3.0413818359375
3.0405761718749997
3.0220458984375
3.0067382812499996
2.9100585937499996
3.0381591796875
3.037353515625
3.0357421875
3.037353515625
3.037353515625
3.037353515625
1.036083984375
0.033032226562499996
0.0314208984375
0.033837890625
0.0322265625
0.0362548828125
0.030615234374999998
0.0314208984375
0.0281982421875
0.0346435546875
0.0322265625
0.0281982421875
0.033032226562499996
0.033032226562499996
0.033032226562499996
0.033032226562499996
0.0322265625
0.0322265625
0.02900390625
0.033032226562499996
0.033032226562499996
0.0314208984375
1.9489013671875
2.8625244140625
3.0381591796875
3.0357421875
3.037353515625
3.0405761718749997
3.0365478515624997
3.0389648437499996
3.0397705078125
3.0365478515624997
3.034130859375
3.0365478515624997
2.9745117187499996
2.9205322265625
3.0413818359375
3.0381591796875
3.0405761718749997
3.037353515625
3.0381591796875
3.0397705078125
1.687060546875
0.027392578124999997
0.0362548828125
0.037060546874999996
0.033032226562499996
0.0322265625
0.033032226562499996
0.033837890625
0.033032226562499996
0.0322265625
0.033032226562499996
0.033032226562499996
0.0322265625
0.03544921875
0.033032226562499996
0.0314208984375
0.0322265625
0.0322265625
0.02900390625
0.0322265625
0.033032226562499996
0.0322265625
0.5212646484375
2.28486328125
3.0365478515624997
3.0357421875
3.0365478515624997
3.0365478515624997
3.034130859375
3.0389648437499996
3.034130859375
3.0357421875
3.0421875
3.0389648437499996
2.9922363281249997
2.9680664062499997
3.0381591796875
3.0397705078125
3.0381591796875
3.0389648437499996
3.0381591796875
3.0421875
3.037353515625
1.03447265625
0.033032226562499996
0.0346435546875
0.0322265625
0.0322265625
0.02900390625
0.033032226562499996
0.0322265625
0.0322265625
0.0322265625
0.0346435546875
0.030615234374999998
0.033837890625
0.033032226562499996
0.033032226562499996
0.033032226562499996
0.0322265625
0.0322265625
0.0298095703125
0.0322265625
0.0322265625
0.033032226562499996
2.5209228515624997
3.0405761718749997
3.0381591796875
3.037353515625
3.0365478515624997
3.0389648437499996
3.0365478515624997
3.0405761718749997
3.0389648437499996
3.0381591796875
3.0381591796875
2.9962646484374997
2.9672607421875
2.86494140625
3.0381591796875
3.0381591796875
3.0389648437499996
3.037353515625
3.0389648437499996
3.0389648437499996
1.5001464843749999
0.0322265625
0.02900390625
0.0322265625
0.0322265625
0.0314208984375
0.02900390625
0.033032226562499996
0.02900390625
0.033837890625
0.0322265625
0.0314208984375
0.033032226562499996
0.0322265625
0.02900390625
0.033032226562499996
0.0322265625
0.0322265625
0.0314208984375
0.030615234374999998
0.0362548828125
0.033032226562499996
1.7007568359374998
2.818212890625
3.037353515625
3.0389648437499996
3.0389648437499996
3.0381591796875
3.0381591796875
3.0357421875
3.0421875
3.0405761718749997
3.034130859375
3.0389648437499996
2.9519531249999997
2.8697753906249996
3.0389648437499996
3.0381591796875
3.0413818359375
3.0365478515624997
3.0389648437499996
3.0365478515624997
1.9682373046875
0.0708984375
0.0322265625
0.0362548828125
0.033032226562499996
0.0346435546875
0.0322265625
0.02900390625
0.033032226562499996
0.02900390625
0.03544921875
0.03544921875
0.02900390625
0.033032226562499996
0.0322265625
0.033032226562499996
0.0298095703125
0.033032226562499996
0.0322265625
0.0314208984375
0.0322265625
0.0314208984375
0.11440429687499999
2.20751953125
3.037353515625
3.0389648437499996
3.0381591796875
3.037353515625
3.037353515625
3.0357421875
3.0397705078125
3.0381591796875
3.0405761718749997
3.037353515625
3.0010986328125
2.9664550781249996
3.037353515625
3.0381591796875
3.037353515625
3.0389648437499996
3.0381591796875
3.0357421875
3.0381591796875
1.3156494140625
0.0322265625
0.0281982421875
0.033032226562499996
0.0322265625
0.02900390625
0.0322265625
0.0322265625
0.0322265625
0.0322265625
0.030615234374999998
0.0322265625
0.03544921875
0.0346435546875
0.0314208984375
0.033032226562499996
0.0314208984375
0.0314208984375
0.0298095703125
0.0322265625
0.0322265625
0.0322265625
1.8981445312499998
2.9825683593749996
3.0405761718749997
3.0389648437499996
3.037353515625
3.037353515625
3.0365478515624997
3.0333251953125
3.037353515625
3.0389648437499996
3.0397705078125
3.0365478515624997
2.9753173828125
2.9261718749999996
3.037353515625
3.0365478515624997
3.037353515625
3.0381591796875
3.037353515625
3.037353515625
1.5517089843749998
0.0281982421875
0.0298095703125
0.03544921875
0.0346435546875
0.02900390625
0.033837890625
0.0322265625
0.033032226562499996
0.027392578124999997
0.0322265625
0.0314208984375
0.0314208984375
0.0322265625
0.0314208984375
0.0362548828125
0.0322265625
0.03544921875
0.033032226562499996
0.0322265625
0.033837890625
0.0281982421875
1.74345703125
2.6208251953125
3.0389648437499996
3.037353515625
3.0397705078125
3.0381591796875
3.0413818359375
3.0405761718749997
3.0381591796875
3.0156005859375
3.037353515625
3.0381591796875
2.9825683593749996
2.900390625
3.0389648437499996
3.0397705078125
3.0357421875
3.0365478515624997
3.037353515625
3.0389648437499996
2.953564453125
0.4962890625
0.033032226562499996
0.0298095703125
0.033032226562499996
0.030615234374999998
0.0314208984375
0.0322265625
0.027392578124999997
0.03544921875
0.0314208984375
0.033032226562499996
0.0322265625
0.0314208984375
0.0322265625
0.0322265625
0.02900390625
0.03544921875
0.0314208984375
0.033032226562499996
0.033032226562499996
0.0322265625
1.429248046875
2.3267578125
2.9922363281249997
3.0381591796875
3.0389648437499996
3.0381591796875
3.037353515625
3.0381591796875
3.0421875
3.0389648437499996
3.0357421875
3.0204345703124997
2.9688720703125
2.9116699218749997
3.037353515625
3.0381591796875
3.0397705078125
3.0381591796875
3.0413818359375
3.037353515625
3.037353515625
1.37607421875
0.033032226562499996
0.03544921875
0.033837890625
0.033837890625
0.037060546874999996
0.0322265625
0.0322265625
0.0322265625
0.033032226562499996
0.0314208984375
0.033032226562499996
0.0322265625
0.033032226562499996
0.0322265625
0.0314208984375
0.033032226562499996
0.033032226562499996
0.0322265625
0.0346435546875
0.020947265625
0.033032226562499996
2.125341796875
3.0389648437499996
3.0357421875
3.0389648437499996
3.0389648437499996
3.0365478515624997
3.0381591796875
3.0381591796875
3.0381591796875
3.0389648437499996
3.0357421875
3.034130859375
3.0397705078125
2.8947509765625
3.0405761718749997
3.0397705078125
3.0349365234374996
3.0389648437499996
3.037353515625
3.0357421875
1.252001953125
0.0322265625
0.0322265625
0.0322265625
0.03544921875
0.0322265625
0.0322265625
0.0314208984375
0.0346435546875
0.02900390625
0.0322265625
0.0322265625
0.0314208984375
0.0322265625
0.033032226562499996
0.0346435546875
0.033032226562499996
0.0322265625
0.033032226562499996
0.033032226562499996
0.0322265625
0.0314208984375
1.4518066406249999
2.6192138671875
3.0389648437499996
3.0421875
3.0413818359375
3.0389648437499996
3.0397705078125
3.0421875
3.037353515625
3.0381591796875
3.0405761718749997
3.0357421875
2.9680664062499997
2.8995849609374997
3.0413818359375
3.0349365234374996
3.0357421875
3.0405761718749997
3.0365478515624997
3.034130859375
1.8336914062499998
0.4084716796875
0.0298095703125
0.033837890625
0.0314208984375
0.0314208984375
0.0322265625
0.033032226562499996
0.0322265625
0.0322265625
0.0314208984375
0.0322265625
0.0322265625
0.0314208984375
0.03544921875
0.0322265625
0.0322265625
0.02900390625
0.0322265625
0.03544921875
0.0314208984375
0.033032226562499996
0.03544921875
2.1551513671875
3.0389648437499996
3.0381591796875
3.0389648437499996
3.034130859375
3.0405761718749997
3.037353515625
3.037353515625
3.0389648437499996
3.0357421875
3.0389648437499996
3.0301025390625
2.9922363281249997
3.0357421875
3.0381591796875
3.0381591796875
3.037353515625
3.0397705078125
3.0389648437499996
3.0381591796875
1.3172607421875
0.0322265625
0.0314208984375
0.033032226562499996
0.0298095703125
0.0322265625
0.0314208984375
0.0314208984375
0.0314208984375
0.0322265625
0.0322265625
0.0298095703125
0.0314208984375
0.0322265625
0.0298095703125
0.0314208984375
0.0314208984375
0.0362548828125
0.030615234374999998
0.030615234374999998
0.0322265625
0.03544921875
1.5251220703125
2.866552734375
3.034130859375
3.0389648437499996
3.037353515625
3.0381591796875
3.0381591796875
3.0357421875
3.037353515625
3.0381591796875
3.0413818359375
3.0333251953125
2.94873046875
2.882666015625
3.0381591796875
3.0389648437499996
3.0333251953125
3.037353515625
3.0381591796875
3.0381591796875
1.448583984375
0.0322265625
0.030615234374999998
0.033837890625
0.0314208984375
0.033032226562499996
0.033032226562499996
0.0314208984375
0.0322265625
0.0314208984375
0.0298095703125
0.0314208984375
0.0322265625
0.03544921875
0.027392578124999997
0.0322265625
0.03544921875
0.03544921875
0.0346435546875
0.0322265625
0.0281982421875
0.0314208984375
1.62744140625
2.7102539062499997
3.0381591796875
3.0365478515624997
3.037353515625
3.0389648437499996
3.037353515625
3.037353515625
3.037353515625
3.0389648437499996
3.0397705078125
3.0389648437499996
2.9882080078124997
2.9455078125
3.0381591796875
3.037353515625
3.0349365234374996
3.0389648437499996
3.0381591796875
3.0389648437499996
2.0391357421875
0.5180419921875
0.0322265625
0.02900390625
0.02900390625
0.033032226562499996
0.0322265625
0.0314208984375
0.03544921875
0.030615234374999998
0.033032226562499996
0.0322265625
0.0322265625
0.030615234374999998
0.033032226562499996
0.0322265625
0.0322265625
0.0298095703125
0.0298095703125
0.0322265625
0.033032226562499996
0.0322265625
0.033837890625
2.11083984375
3.0365478515624997
3.037353515625
3.037353515625
3.0421875
3.0389648437499996
3.0389648437499996
3.0381591796875
3.0381591796875
3.0389648437499996
3.0381591796875
2.9745117187499996
2.914892578125
3.037353515625
3.0357421875
3.0365478515624997
3.037353515625
3.034130859375
3.0365478515624997
3.0405761718749997
1.509814453125
0.030615234374999998
0.0314208984375
0.0322265625
0.0322265625
0.0322265625
0.030615234374999998
0.0322265625
0.033032226562499996
0.0298095703125
0.0322265625
0.0314208984375
0.0322265625
0.0322265625
0.033837890625
0.0281982421875
0.0322265625
0.03544921875
0.0362548828125
0.02900390625
0.03544921875
0.03544921875
1.490478515625
2.947119140625
3.0365478515624997
3.0405761718749997
3.0397705078125
3.0357421875
3.0413818359375
3.0397705078125
3.0405761718749997
3.0389648437499996
3.0405761718749997
2.9737060546875
2.9672607421875
2.9390625
3.0381591796875
3.0397705078125
3.037353515625
3.0397705078125
3.0397705078125
3.0389648437499996
1.8369140625
0.033032226562499996
0.0322265625
0.0314208984375
0.0322265625
0.0322265625
0.030615234374999998
0.0322265625
0.033032226562499996
0.0362548828125
0.0314208984375
0.030615234374999998
0.0322265625
0.0322265625
0.033032226562499996
0.0322265625
0.0322265625
0.0322265625
0.0346435546875
0.033032226562499996
0.033837890625
0.02900390625
1.6137451171875
2.4484130859374997
3.0397705078125
3.0381591796875
3.037353515625
3.0413818359375
3.0381591796875
3.0357421875
3.037353515625
3.0357421875
3.0381591796875
3.037353515625
3.0164062499999997
3.0252685546875
3.0349365234374996
3.0365478515624997
3.0357421875
3.0357421875
3.0397705078125
3.0381591796875
2.7078369140625
0.6888427734375
0.0346435546875
0.0314208984375
0.0322265625
0.027392578124999997
0.030615234374999998
0.0322265625
0.0362548828125
0.0298095703125
0.037060546874999996
0.0322265625
0.0322265625
0.0322265625
0.0314208984375
0.033837890625
0.0298095703125
0.0322265625
0.0314208984375
0.033032226562499996
0.0322265625
0.0322265625
0.0322265625
2.0625
2.94873046875
3.037353515625
3.0413818359375
3.034130859375
3.0421875
3.0421875
3.0397705078125
3.034130859375
3.0397705078125
3.0365478515624997
3.0164062499999997
2.9906249999999996
2.9302001953124996
3.0413818359375
3.0397705078125
3.0365478515624997
3.0397705078125
3.0389648437499996
3.0389648437499996
1.7595703125
0.0322265625
0.0298095703125
0.0298095703125
0.041088867187499996
0.0322265625
0.03544921875
0.0322265625
0.0346435546875
0.033032226562499996
0.0314208984375
0.033032226562499996
0.0314208984375
0.033032226562499996
0.0322265625
0.033032226562499996
0.0322265625
0.03544921875
0.033837890625
0.0314208984375
0.0322265625
0.037060546874999996
1.4888671875
2.7408691406249996
3.037353515625
3.0381591796875
3.0365478515624997
3.0389648437499996
3.0389648437499996
3.037353515625
3.0389648437499996
3.0405761718749997
3.037353515625
3.0333251953125
2.9745117187499996
2.9390625
3.0381591796875
3.0389648437499996
3.0389648437499996
3.0365478515624997
3.037353515625
3.034130859375
2.3267578125
0.48017578125
0.0314208984375
0.0322265625
0.033032226562499996
0.033032226562499996
0.0314208984375
0.0362548828125
0.02900390625
0.0322265625
0.0322265625
0.0322265625
0.033032226562499996
0.0322265625
0.0314208984375
0.0322265625
0.033837890625
0.0346435546875
0.0298095703125
0.027392578124999997
0.0314208984375
0.0322265625
0.02900390625
2.165625
3.034130859375
3.0397705078125
3.037353515625
3.0381591796875
3.0381591796875
3.0397705078125
3.0365478515624997
3.0389648437499996
3.0357421875
3.0413818359375
3.02607421875
2.9898193359375
3.0357421875
3.0357421875
3.037353515625
3.0333251953125
3.0381591796875
3.0381591796875
3.0381591796875
1.619384765625
0.033837890625
0.033032226562499996
0.0322265625
0.0346435546875
0.0346435546875
0.033032226562499996
0.033032226562499996
0.0322265625
0.033837890625
0.0362548828125
0.0346435546875
0.0314208984375
0.0322265625
0.0322265625
0.0314208984375
0.0314208984375
0.0314208984375
0.03544921875
0.037060546874999996
0.03544921875
0.0346435546875
1.7490966796874998
3.0365478515624997
3.0381591796875
3.0429931640624996
3.0357421875
3.037353515625
3.0365478515624997
3.0381591796875
3.037353515625
3.0405761718749997
3.0381591796875
3.0357421875
3.0099609375
2.9430908203125
3.037353515625
3.037353515625
3.0421875
3.0397705078125
3.0357421875
3.0389648437499996
1.754736328125
0.2376708984375
0.027392578124999997
0.027392578124999997
0.0314208984375
0.0314208984375
0.0362548828125
0.0322265625
0.0322265625
0.0322265625
0.033032226562499996
0.037060546874999996
0.033032226562499996
0.0322265625
0.0298095703125
0.030615234374999998
0.0322265625
0.0322265625
0.0314208984375
0.027392578124999997
0.033032226562499996
0.0314208984375
0.0314208984375
2.36865234375
3.037353515625
3.0397705078125
3.0365478515624997
3.0405761718749997
3.0381591796875
3.037353515625
3.0389648437499996
3.037353515625
3.0421875
3.0405761718749997
3.0091552734375
2.9438964843749997
3.0381591796875
3.0389648437499996
3.037353515625
3.0389648437499996
3.0381591796875
3.0357421875
3.034130859375
1.38896484375
0.0314208984375
0.0322265625
0.02900390625
0.0314208984375
0.02900390625
0.0314208984375
0.02900390625
0.0346435546875
0.030615234374999998
0.0362548828125
0.033032226562499996
0.0322265625
0.03544921875
0.0298095703125
0.0298095703125
0.0314208984375
0.030615234374999998
0.0314208984375
0.0322265625
0.0298095703125
0.033032226562499996
1.4219970703125
2.900390625
3.0381591796875
3.0381591796875
3.037353515625
3.0357421875
3.0381591796875
3.0397705078125
3.0397705078125
3.0421875
3.0413818359375
3.037353515625
2.9841796874999997
2.9100585937499996
3.0365478515624997
3.0357421875
3.0357421875
3.0365478515624997
3.0389648437499996
3.0413818359375
1.181103515625
0.033837890625
0.0322265625
0.0346435546875
0.0322265625
0.0322265625
0.033032226562499996
0.0314208984375
0.0314208984375
0.033032226562499996
0.02900390625
0.0346435546875
0.0322265625
0.0322265625
0.0314208984375
0.0298095703125
0.0322265625
0.030615234374999998
0.0322265625
0.0322265625
0.0362548828125
0.0314208984375
0.0362548828125
2.616796875
3.0381591796875
3.034130859375
3.0389648437499996
3.0389648437499996
3.0397705078125
3.0397705078125
3.0381591796875
3.0389648437499996
3.0365478515624997
3.0325195312499997
3.0397705078125
3.0139892578125
3.0365478515624997
3.0333251953125
3.0389648437499996
3.0389648437499996
3.0357421875
3.0421875
3.037353515625
0.38671875
0.0322265625
0.0314208984375
0.0362548828125
0.033032226562499996
0.033837890625
0.02900390625
0.0314208984375
0.026586914062499998
0.033032226562499996
0.0314208984375
0.0322265625
0.033837890625
0.0314208984375
0.030615234374999998
0.0298095703125
0.033032226562499996
0.0322265625
0.033032226562499996
0.0249755859375
0.0322265625
0.0362548828125
2.0560546875
2.8496337890624996
3.0333251953125
3.037353515625
3.0333251953125
3.0365478515624997
3.0421875
3.0397705078125
3.0389648437499996
3.0421875
3.0381591796875
3.037353515625
2.969677734375
2.91328125
3.0381591796875
3.0381591796875
3.037353515625
3.0413818359375
3.0421875
3.0389648437499996
1.7370117187499998
0.0322265625
0.03544921875
0.030615234374999998
0.0322265625
0.0314208984375
0.02900390625
0.0346435546875
0.0322265625
0.03544921875
0.0322265625
0.0362548828125
0.033837890625
0.0314208984375
0.02900390625
0.03544921875
0.030615234374999998
0.033032226562499996
0.02900390625
0.0314208984375
0.0362548828125
0.0362548828125
0.038671874999999994
2.7908203124999997
3.0405761718749997
3.0381591796875
3.0397705078125
3.0381591796875
3.0389648437499996
3.037353515625
3.0389648437499996
3.0357421875
3.0413818359375
3.0421875
3.0365478515624997
2.9624267578124996
3.0389648437499996
3.0365478515624997
3.037353515625
3.0389648437499996
3.0365478515624997
3.0349365234374996
3.037353515625
0.198193359375
0.0346435546875
0.0314208984375
0.03544921875
0.0314208984375
0.0322265625
0.0378662109375
0.030615234374999998
0.0362548828125
0.0362548828125
0.0314208984375
0.0314208984375
0.0322265625
0.0346435546875
0.033032226562499996
0.027392578124999997
0.0314208984375
0.033837890625
0.0298095703125
0.03544921875
0.03544921875
0.0322265625
2.4645263671874997
3.0397705078125
3.037353515625
3.037353515625
3.034130859375
3.037353515625
3.0381591796875
3.0397705078125
3.0381591796875
3.0349365234374996
3.0429931640624996
3.0389648437499996
2.9906249999999996
3.0389648437499996
3.0381591796875
3.0381591796875
3.0389648437499996
3.0365478515624997
3.0397705078125
3.0397705078125
1.3792968749999999
0.0322265625
0.0322265625
0.033032226562499996
0.0322265625
0.0314208984375
0.03544921875
0.0322265625
0.0322265625
0.02900390625
0.0322265625
0.033837890625
0.0346435546875
0.0314208984375
0.033032226562499996
0.0314208984375
0.0281982421875
0.0314208984375
0.033837890625
0.0314208984375
0.0281982421875
0.033837890625
1.4308593749999998
2.6530517578125
3.0381591796875
3.0349365234374996
3.037353515625
3.0413818359375
3.0421875
3.037353515625
3.0381591796875
3.0405761718749997
3.037353515625
3.037353515625
3.0244628906249997
2.9253662109375
3.0389648437499996
3.0381591796875
3.037353515625
3.037353515625
3.034130859375
3.0389648437499996
1.651611328125
0.0298095703125
0.0322265625
0.0281982421875
0.0362548828125
0.03544921875
0.0314208984375
0.0281982421875
0.0322265625
0.033032226562499996
0.0346435546875
0.0314208984375
0.033837890625
0.0314208984375
0.0314208984375
0.0362548828125
0.0314208984375
0.033032226562499996
0.0322265625
0.033032226562499996
0.0346435546875
0.0346435546875
0.0314208984375
2.3066162109375
3.0365478515624997
3.0389648437499996
3.037353515625
3.0381591796875
3.0413818359375
3.0389648437499996
3.0381591796875
3.037353515625
3.034130859375
3.0365478515624997
3.0365478515624997
3.0107666015624996
3.0421875
3.0389648437499996
3.0389648437499996
3.0397705078125
3.0389648437499996
3.0389648437499996
3.0421875
1.110205078125
0.0322265625
0.0281982421875
0.0362548828125
0.0281982421875
0.0322265625
0.0322265625
0.027392578124999997
0.0322265625
0.0322265625
0.0378662109375
0.030615234374999998
0.030615234374999998
0.0298095703125
0.0322265625
0.030615234374999998
0.0314208984375
0.0314208984375
0.0322265625
0.033032226562499996
0.02900390625
0.0281982421875
2.0423583984375
2.8786376953125
3.0365478515624997
3.0389648437499996
3.037353515625
3.0349365234374996
3.0365478515624997
3.0389648437499996
3.037353515625
3.0421875
3.037353515625
3.0397705078125
3.0389648437499996
2.9761230468749997
3.0381591796875
3.037353515625
3.0397705078125
3.0421875
3.037353515625
3.0357421875
1.2608642578125
0.030615234374999998
0.0314208984375
0.033032226562499996
0.0314208984375
0.0314208984375
0.0322265625
0.0322265625
0.0281982421875
0.0322265625
0.030615234374999998
0.0281982421875
0.0314208984375
0.0322265625
0.0322265625
0.033837890625
0.033032226562499996
0.0322265625
0.0322265625
0.0346435546875
0.0314208984375
0.033032226562499996
0.4245849609375
2.40087890625
3.0381591796875
3.0333251953125
3.0365478515624997
3.037353515625
3.0357421875
3.0389648437499996
3.0397705078125
3.037353515625
3.0389648437499996
3.0405761718749997
3.0147949218749996
2.9020019531249996
3.0381591796875
3.0381591796875
3.0357421875
3.0381591796875
3.0333251953125
3.0389648437499996
3.0381591796875
0.8765624999999999
0.033837890625
0.0322265625
0.0322265625
0.03544921875
0.0314208984375
0.0362548828125
0.033032226562499996
0.0322265625
0.0322265625
0.0322265625
0.030615234374999998
0.033032226562499996
0.0322265625
0.030615234374999998
0.033032226562499996
0.026586914062499998
0.02900390625
0.033032226562499996
0.0314208984375
0.033032226562499996
0.0281982421875
2.2888916015625
3.037353515625
3.0405761718749997
3.0381591796875
3.0381591796875
3.0397705078125
3.0381591796875
3.0365478515624997
3.037353515625
3.0405761718749997
3.0389648437499996
3.0397705078125
3.0083496093749997
2.9197265624999997
3.0357421875
3.0381591796875
3.0429931640624996
3.0413818359375
3.0357421875
3.0381591796875
1.0409179687499999
0.0314208984375
0.037060546874999996
0.0322265625
0.0322265625
0.0314208984375
0.033837890625
0.033032226562499996
0.030615234374999998
0.033837890625
0.0322265625
0.033032226562499996
0.0314208984375
0.0298095703125
0.0314208984375
0.0362548828125
0.0322265625
0.0314208984375
0.033032226562499996
0.030615234374999998
0.027392578124999997
0.033032226562499996
1.7088134765624998
2.6498291015624997
3.0397705078125
3.0405761718749997
3.0365478515624997
3.0405761718749997
3.037353515625
3.0389648437499996
3.034130859375
3.037353515625
3.0389648437499996
3.0365478515624997
3.0164062499999997
2.9414794921875
3.0357421875
3.0413818359375
3.0365478515624997
3.0357421875
3.0357421875
3.0365478515624997
3.0381591796875
0.8548095703124999
0.0322265625
0.0362548828125
0.0314208984375
0.0322265625
0.0281982421875
0.0314208984375
0.0322265625
0.0314208984375
0.0314208984375
0.0322265625
0.0298095703125
0.033837890625
0.033032226562499996
0.0322265625
0.0281982421875
0.0298095703125
0.03544921875
0.033032226562499996
0.0346435546875
0.0322265625
0.0346435546875
2.086669921875
3.0389648437499996
3.037353515625
3.0381591796875
3.037353515625
3.0381591796875
3.0389648437499996
3.0421875
3.0389648437499996
3.037353515625
3.0389648437499996
3.0349365234374996
2.9737060546875
2.908447265625
3.0413818359375
3.0357421875
3.0381591796875
3.0405761718749997
3.037353515625
3.0397705078125
2.018994140625
0.0322265625
0.0314208984375
0.033032226562499996
0.0314208984375
0.030615234374999998
0.0362548828125
0.0322265625
0.0346435546875
0.0314208984375
0.0314208984375
0.0322265625
0.033032226562499996
0.0314208984375
0.0322265625
0.0322265625
0.0322265625
0.0314208984375
0.0298095703125
0.033032226562499996
0.0281982421875
0.0281982421875
1.5090087890625
2.7908203124999997
3.0389648437499996
3.0389648437499996
3.037353515625
3.0381591796875
3.0405761718749997
3.0389648437499996
3.0381591796875
3.0397705078125
3.0365478515624997
3.0381591796875
2.9841796874999997
2.953564453125
3.0389648437499996
3.037353515625
3.0389648437499996
3.037353515625
3.0389648437499996
3.0413818359375
3.0365478515624997
0.0322265625
0.030615234374999998
0.033032226562499996
0.0362548828125
0.033032226562499996
0.030615234374999998
0.033032226562499996
0.0322265625
0.0314208984375
0.033837890625
0.033032226562499996
0.0298095703125
0.033837890625
0.033837890625
0.033032226562499996
0.0322265625
0.015307617187499999
0.0314208984375
0.0322265625
0.027392578124999997
0.030615234374999998
0.033837890625
2.5072265624999996
3.0389648437499996
3.037353515625
3.0421875
3.0389648437499996
3.0381591796875
3.037353515625
3.0357421875
3.0389648437499996
3.037353515625
3.0389648437499996
3.0365478515624997
2.995458984375
3.0397705078125
3.0389648437499996
3.034130859375
3.037353515625
3.0389648437499996
3.0381591796875
3.037353515625
0.9095947265625
0.0322265625
0.02900390625
0.0322265625
0.02900390625
0.0394775390625
0.030615234374999998
0.0322265625
0.0362548828125
0.0322265625
0.0362548828125
0.033837890625
0.033032226562499996
0.0314208984375
0.0298095703125
0.0314208984375
0.03544921875
0.0314208984375
0.033837890625
0.0346435546875
0.0322265625
0.0314208984375
1.8900878906249998
2.9181152343749996
3.0381591796875
3.0365478515624997
3.037353515625
3.0389648437499996
3.037353515625
3.0349365234374996
3.043798828125
3.0365478515624997
3.0389648437499996
3.037353515625
3.027685546875
3.0107666015624996
3.037353515625
3.037353515625
3.0381591796875
3.0365478515624997
3.0381591796875
3.0421875
1.8788085937499999
0.0362548828125
0.033032226562499996
0.033837890625
0.0346435546875
0.03544921875
0.0314208984375
0.03544921875
0.0281982421875
0.0322265625
0.0281982421875
0.033837890625
0.0322265625
0.033032226562499996
0.0322265625
0.0322265625
0.0346435546875
0.0314208984375
0.0322265625
0.02900390625
0.033837890625
0.0314208984375
1.45341796875
2.5845703125
3.0397705078125
3.0389648437499996
3.0381591796875
3.0381591796875
3.0389648437499996
3.0365478515624997
3.037353515625
3.0389648437499996
3.0389648437499996
3.0405761718749997
3.029296875
3.0107666015624996
3.0349365234374996
3.0389648437499996
3.0405761718749997
3.037353515625
3.0357421875
3.0381591796875
3.0357421875
0.8016357421875
0.033032226562499996
0.02900390625
0.033032226562499996
0.027392578124999997
0.0298095703125
0.0314208984375
0.033032226562499996
0.030615234374999998
0.030615234374999998
0.0322265625
0.0322265625
0.033837890625
0.0322265625
0.0314208984375
0.0314208984375
0.030615234374999998
0.0298095703125
0.02900390625
0.0322265625
0.0281982421875
0.0314208984375
1.9247314453125
2.72314453125
3.0381591796875
3.0365478515624997
3.034130859375
3.0389648437499996
3.0389648437499996
3.0389648437499996
3.0421875
3.0333251953125
3.0381591796875
3.029296875
2.9833740234375
2.8641357421875
3.0389648437499996
3.034130859375
3.0389648437499996
3.0429931640624996
3.034130859375
3.0397705078125
1.9948242187499998
0.030615234374999998
0.0322265625
0.0322265625
0.030615234374999998
0.033032226562499996
0.027392578124999997
0.02900390625
0.0322265625
0.0314208984375
0.0322265625
0.0281982421875
0.0314208984375
0.033032226562499996
0.0314208984375
0.0346435546875
0.0314208984375
0.02578125
0.033032226562499996
0.033837890625
0.03544921875
0.033837890625
1.2455566406249998
2.5555664062499996
3.0397705078125
3.0389648437499996
3.0421875
3.0252685546875
3.0389648437499996
3.0357421875
3.034130859375
3.037353515625
3.0389648437499996
3.037353515625
3.0349365234374996
3.0349365234374996
3.0365478515624997
3.0365478515624997
3.0357421875
3.0381591796875
3.0357421875
3.034130859375
3.0381591796875
0.60263671875
0.0314208984375
0.02900390625
0.0322265625
0.033837890625
0.03544921875
0.0314208984375
0.030615234374999998
0.030615234374999998
0.030615234374999998
0.033032226562499996
0.0322265625
0.0314208984375
0.0322265625
0.0346435546875
0.033032226562499996
0.0281982421875
0.033032226562499996
0.0298095703125
0.0322265625
0.0322265625
0.033032226562499996
2.2993652343749997
3.0349365234374996
3.0389648437499996
3.0365478515624997
3.0389648437499996
3.0421875
3.037353515625
3.037353515625
3.0365478515624997
3.0421875
3.0389648437499996
3.0268798828124996
2.99384765625
2.9680664062499997
3.0349365234374996
3.0357421875
3.0389648437499996
3.0381591796875
3.0357421875
3.0381591796875
1.7466796875
0.030615234374999998
0.0314208984375
0.03544921875
0.03544921875
0.0322265625
0.0322265625
0.033032226562499996
0.0322265625
0.0281982421875
0.0322265625
0.0322265625
0.0322265625
0.0322265625
0.02900390625
0.0322265625
0.033032226562499996
0.0298095703125
0.033032226562499996
0.0281982421875
0.0322265625
0.0322265625
1.5919921874999998
2.5547607421875
3.0389648437499996
3.0381591796875
3.037353515625
3.0381591796875
3.0389648437499996
3.037353515625
3.0389648437499996
3.0349365234374996
3.0397705078125
3.0381591796875
3.0188232421874996
2.9543701171874996
3.0413818359375
3.0429931640624996
3.0397705078125
3.037353515625
3.0381591796875
3.0333251953125
2.9753173828125
0.581689453125
0.03544921875
0.033032226562499996
0.033032226562499996
0.0322265625
0.033837890625
0.033032226562499996
0.0314208984375
0.0362548828125
0.027392578124999997
0.033032226562499996
0.033032226562499996
0.0322265625
0.0322265625
0.0314208984375
0.030615234374999998
0.033032226562499996
0.0322265625
0.033837890625
0.033032226562499996
0.0322265625
0.0322265625
2.3855712890625
3.0413818359375
3.037353515625
3.0389648437499996
3.037353515625
3.0421875
3.0381591796875
3.037353515625
3.0405761718749997
3.0421875
3.0381591796875
3.0228515624999996
2.96162109375
2.91650390625
3.0381591796875
3.0405761718749997
3.0429931640624996
3.0365478515624997
3.0389648437499996
3.0421875
1.6177734375
0.02900390625
0.033837890625
0.033837890625
0.0322265625
0.0322265625
0.0314208984375
0.033032226562499996
0.030615234374999998
0.03544921875
0.0281982421875
0.0314208984375
0.033032226562499996
0.0322265625
0.033032226562499996
0.0362548828125
0.0322265625
0.0281982421875
0.0322265625
0.0314208984375
0.0322265625
0.037060546874999996
1.4171630859375
2.8939453124999996
3.037353515625
3.0349365234374996
3.0333251953125
3.0405761718749997
3.037353515625
3.0349365234374996
3.037353515625
3.037353515625
3.037353515625
3.0333251953125
2.94873046875
2.9173095703125
3.0389648437499996
3.0397705078125
3.0397705078125
3.0397705078125
3.037353515625
3.037353515625
2.5273681640624996
0.0298095703125
0.03544921875
0.0362548828125
0.033837890625
0.0322265625
0.030615234374999998
0.0314208984375
0.0314208984375
0.0362548828125
0.033837890625
0.0322265625
0.0322265625
0.0322265625
0.030615234374999998
0.033032226562499996
0.0281982421875
0.0314208984375
0.030615234374999998
0.033032226562499996
0.030615234374999998
0.0346435546875
0.0298095703125
2.6530517578125
3.037353515625
3.0389648437499996
3.0381591796875
3.037353515625
3.037353515625
3.0389648437499996
3.0365478515624997
3.0389648437499996
3.037353515625
3.0381591796875
3.0365478515624997
2.9841796874999997
3.0357421875
3.0349365234374996
3.0365478515624997
3.0357421875
3.0421875
3.0381591796875
3.0365478515624997
1.6693359374999999
0.02578125
0.030615234374999998
0.033032226562499996
0.0314208984375
0.0322265625
0.033837890625
0.0322265625
0.0314208984375
0.0314208984375
0.0346435546875
0.0346435546875
0.0314208984375
0.02900390625
0.0314208984375
0.027392578124999997
0.037060546874999996
0.0314208984375
0.0322265625
0.0322265625
0.0322265625
0.0314208984375
1.4091064453125
2.8689697265625
3.0429931640624996
3.0397705078125
3.0357421875
3.0389648437499996
3.0421875
3.0357421875
3.0389648437499996
3.037353515625
3.0421875
3.0381591796875
3.0357421875
3.01962890625
3.0389648437499996
3.0389648437499996
3.0389648437499996
3.037353515625
3.037353515625
3.034130859375
2.399267578125
0.0281982421875
0.0314208984375
0.03544921875
0.033032226562499996
0.0314208984375
0.033032226562499996
0.0322265625
0.0314208984375
0.033837890625
0.0314208984375
0.0314208984375
0.0322265625
0.0322265625
0.02900390625
0.0322265625
0.0322265625
0.0322265625
0.033032226562499996
0.0322265625
0.033032226562499996
0.0322265625
0.0322265625
2.5112548828124996
3.0381591796875
3.0397705078125
3.0381591796875
3.0429931640624996
3.0381591796875
3.0421875
3.0365478515624997
3.0381591796875
3.037353515625
3.0357421875
3.0389648437499996
2.979345703125
3.0381591796875
3.0381591796875
3.0389648437499996
3.0389648437499996
3.0405761718749997
3.0381591796875
3.0365478515624997
0.565576171875
0.02900390625
0.0314208984375
0.0322265625
0.030615234374999998
0.033837890625
0.0322265625
0.0314208984375
0.03544921875
0.0322265625
0.0322265625
0.0281982421875
0.033032226562499996
0.0346435546875
0.0281982421875
0.03544921875
0.0281982421875
0.0314208984375
0.030615234374999998
0.030615234374999998
0.0314208984375
0.0281982421875
2.131787109375
2.9503417968749996
3.0389648437499996
3.0405761718749997
3.0333251953125
3.037353515625
3.0309082031249996
3.0381591796875
3.0389648437499996
3.0381591796875
3.0389648437499996
3.0389648437499996
3.0357421875
2.977734375
3.0357421875
3.0381591796875
3.037353515625
3.0405761718749997
3.0397705078125
3.0389648437499996
1.9263427734374998
0.030615234374999998
0.033032226562499996
0.0314208984375
0.0362548828125
0.033837890625
0.033032226562499996
0.02900390625
0.0362548828125
0.0322265625
0.033032226562499996
0.0322265625
0.0322265625
0.0346435546875
0.0314208984375
0.0362548828125
0.0281982421875
0.0322265625
0.027392578124999997
0.0314208984375
0.033032226562499996
0.0322265625
1.4381103515625
2.8496337890624996
3.0405761718749997
3.0381591796875
3.0413818359375
3.0389648437499996
3.0389648437499996
3.037353515625
3.0365478515624997
3.0413818359375
3.0389648437499996
3.0381591796875
3.0349365234374996
3.037353515625
3.0381591796875
3.0405761718749997
3.0381591796875
3.0405761718749997
3.0381591796875
3.0405761718749997
3.0397705078125
0.4970947265625
0.0314208984375
0.0322265625
0.037060546874999996
0.033032226562499996
0.0314208984375
0.0298095703125
0.0322265625
0.03544921875
0.0314208984375
0.0322265625
0.0362548828125
0.0322265625
0.02900390625
0.030615234374999998
0.033837890625
0.030615234374999998
0.0281982421875
0.0281982421875
0.030615234374999998
0.030615234374999998
0.03544921875
2.2276611328125
3.0357421875
3.0357421875
3.0357421875
3.0389648437499996
3.0389648437499996
3.0429931640624996
3.0381591796875
3.0389648437499996
3.0397705078125
3.0397705078125
3.0357421875
3.0164062499999997
3.0381591796875
3.0381591796875
3.0357421875
3.0397705078125
3.0389648437499996
3.0397705078125
3.0421875
1.751513671875
0.033032226562499996
0.0314208984375
0.030615234374999998
0.033032226562499996
0.0322265625
0.0314208984375
0.0314208984375
0.03544921875
0.0314208984375
0.027392578124999997
0.02900390625
0.03544921875
0.030615234374999998
0.0298095703125
0.0322265625
0.033837890625
0.0362548828125
0.037060546874999996
0.033032226562499996
0.033032226562499996
0.033032226562499996
1.4236083984374999
2.6111572265625
3.0397705078125
3.0389648437499996
3.0349365234374996
3.0365478515624997
3.0381591796875
3.0421875
3.034130859375
3.037353515625
3.037353515625
3.0381591796875
2.9833740234375
2.9205322265625
3.0357421875
3.0405761718749997
3.0405761718749997
3.037353515625
3.037353515625
3.0413818359375
1.8232177734375
0.33757324218749996
0.0314208984375
0.0322265625
0.0314208984375
0.033032226562499996
0.0314208984375
0.033837890625
0.033032226562499996
0.02900390625
0.0322265625
0.03544921875
0.0314208984375
0.0314208984375
0.0322265625
0.030615234374999998
0.033837890625
0.02900390625
0.0314208984375
0.0314208984375
0.0281982421875
0.0322265625
0.0314208984375
2.5418701171875
3.0389648437499996
3.0389648437499996
3.037353515625
3.0389648437499996
3.0365478515624997
3.0381591796875
3.0365478515624997
3.037353515625
3.0349365234374996
3.0381591796875
3.0349365234374996
3.0099609375
3.0349365234374996
3.0381591796875
3.0397705078125
3.0365478515624997
3.0365478515624997
3.0397705078125
3.0349365234374996
1.4735595703125
0.0314208984375
0.02900390625
0.033032226562499996
0.033837890625
0.0322265625
0.0298095703125
0.033032226562499996
0.030615234374999998
0.0314208984375
0.033032226562499996
0.0314208984375
0.033032226562499996
0.0281982421875
0.0322265625
0.033837890625
0.0322265625
0.0298095703125
0.0298095703125
0.0322265625
0.0322265625
0.0314208984375
1.4832275390624998
2.76181640625
3.0357421875
3.0357421875
3.0389648437499996
3.037353515625
3.0365478515624997
3.0413818359375
3.043798828125
3.037353515625
3.0365478515624997
3.0325195312499997
3.037353515625
3.0091552734375
3.0389648437499996
3.0365478515624997
3.0357421875
3.0365478515624997
3.0365478515624997
3.0365478515624997
1.9303710937499998
0.37060546875
0.0322265625
0.0281982421875
0.0346435546875
0.0322265625
0.0314208984375
0.0322265625
0.030615234374999998
0.0322265625
0.02900390625
0.0322265625
0.033032226562499996
0.0314208984375
0.0314208984375
0.03544921875
0.033837890625
0.030615234374999998
0.0322265625
0.0346435546875
0.033837890625
0.0314208984375
0.0314208984375
2.064111328125
3.037353515625
3.0365478515624997
3.034130859375
3.0365478515624997
3.0429931640624996
3.037353515625
3.037353515625
3.0421875
3.0389648437499996
3.0381591796875
3.0067382812499996
2.9527587890625
3.034130859375
3.037353515625
3.037353515625
3.0357421875
3.0381591796875
3.037353515625
3.0381591796875
1.3365966796875
0.038671874999999994
0.033837890625
0.0322265625
0.0362548828125
0.02900390625
0.0322265625
0.033837890625
0.0314208984375
0.0362548828125
0.030615234374999998
0.0322265625
0.0346435546875
0.0314208984375
0.0281982421875
0.0322265625
0.033032226562499996
0.030615234374999998
0.030615234374999998
0.0314208984375
0.0322265625
0.033032226562499996
1.791796875
3.0365478515624997
3.0381591796875
3.0405761718749997
3.037353515625
3.0389648437499996
3.037353515625
3.037353515625
3.0389648437499996
3.037353515625
3.0405761718749997
3.0333251953125
2.99384765625
2.92294921875
3.037353515625
3.0381591796875
3.0365478515624997
3.0365478515624997
3.0389648437499996
3.0381591796875
1.3728515625
0.0314208984375
0.0346435546875
0.0314208984375
0.030615234374999998
0.0362548828125
0.0314208984375
0.02900390625
0.033032226562499996
0.0322265625
0.0322265625
0.033837890625
0.033837890625
0.033837890625
0.0281982421875
0.0322265625
0.0322265625
0.033837890625
0.0322265625
0.02900390625
0.0314208984375
0.033032226562499996
0.0346435546875
2.6836669921875
3.0389648437499996
3.037353515625
3.0381591796875
3.0381591796875
3.0405761718749997
3.0381591796875
3.0389648437499996
3.037353515625
3.0405761718749997
3.04541015625
3.027685546875
2.9350341796875
3.0365478515624997
3.034130859375
3.0365478515624997
3.0389648437499996
3.0389648437499996
3.0405761718749997
3.0389648437499996
0.427001953125
0.0314208984375
0.0322265625
0.0314208984375
0.0298095703125
0.027392578124999997
0.0314208984375
0.0298095703125
0.0298095703125
0.03544921875
0.0281982421875
0.0322265625
0.0314208984375
0.0322265625
0.0322265625
0.0322265625
0.03544921875
0.03544921875
0.0346435546875
0.0281982421875
0.02900390625
0.033032226562499996
2.152734375
3.0156005859375
3.0381591796875
3.034130859375
3.0389648437499996
3.0421875
3.037353515625
3.0365478515624997
3.0349365234374996
3.0397705078125
3.0381591796875
3.0389648437499996
2.98095703125
2.8633300781249997
3.0389648437499996
3.0381591796875
3.037353515625
3.0381591796875
3.0389648437499996
3.0413818359375
1.5009521484375
0.0281982421875
0.0314208984375
0.030615234374999998
0.0362548828125
0.0281982421875
0.02900390625
0.02900390625
0.030615234374999998
0.033032226562499996
0.033837890625
0.0322265625
0.0322265625
0.033837890625
0.033837890625
0.0362548828125
0.0322265625
0.033032226562499996
0.0314208984375
0.0322265625
0.0314208984375
0.0314208984375
1.15048828125
2.7432861328125
3.037353515625
3.0397705078125
3.037353515625
3.0381591796875
3.0429931640624996
3.037353515625
3.0357421875
3.0381591796875
3.0389648437499996
3.0357421875
2.9841796874999997
2.9543701171874996
3.0365478515624997
3.0389648437499996
3.0421875
3.0357421875
3.0381591796875
3.0381591796875
3.0357421875
0.323876953125
0.0298095703125
0.030615234374999998
0.030615234374999998
0.033837890625
0.033837890625
0.0322265625
0.0322265625
0.0314208984375
0.033032226562499996
0.033837890625
0.0322265625
0.033032226562499996
0.0322265625
0.0322265625
0.02900390625
0.0362548828125
0.0346435546875
0.02900390625
0.0322265625
0.02900390625
0.02900390625
2.2349121093749997
3.0389648437499996
3.0413818359375
3.0357421875
3.034130859375
3.0405761718749997
3.037353515625
3.0389648437499996
3.0389648437499996
3.0349365234374996
3.0365478515624997
3.037353515625
3.0099609375
3.0357421875
3.0381591796875
3.0381591796875
3.037353515625
3.0357421875
3.037353515625
3.0421875
1.3631835937499999
0.0314208984375
0.03544921875
0.02900390625
0.033837890625
0.03544921875
0.0314208984375
0.0322265625
0.0314208984375
0.0314208984375
0.0362548828125
0.0322265625
0.0322265625
0.0298095703125
0.033032226562499996
0.027392578124999997
0.033837890625
0.0314208984375
0.0322265625
0.0322265625
0.033032226562499996
0.0281982421875
1.8240234375
2.8415771484374996
3.0381591796875
3.0405761718749997
3.0397705078125
3.034130859375
3.0413818359375
3.0421875
3.0357421875
3.0381591796875
3.0389648437499996
3.0405761718749997
3.0067382812499996
2.8915283203124997
3.0405761718749997
3.0421875
3.0405761718749997
3.037353515625
3.0389648437499996
3.0381591796875
1.754736328125
0.10634765624999999
0.0314208984375
0.02900390625
0.037060546874999996
0.033032226562499996
0.033032226562499996
0.03544921875
0.0322265625
0.033837890625
0.0281982421875
0.033032226562499996
0.0346435546875
0.03544921875
0.033032226562499996
0.037060546874999996
0.03544921875
0.0322265625
0.0314208984375
0.0298095703125
0.0298095703125
0.0314208984375
0.0539794921875
2.3452880859375
3.037353515625
3.0397705078125
3.0381591796875
3.037353515625
3.0381591796875
3.0365478515624997
3.0389648437499996
3.0389648437499996
3.037353515625
3.037353515625
3.0357421875
2.9100585937499996
3.037353515625
3.037353515625
3.0381591796875
3.0389648437499996
3.0357421875
3.037353515625
3.0389648437499996
1.184326171875
0.030615234374999998
0.0314208984375
0.0322265625
0.033837890625
0.033032226562499996
0.033032226562499996
0.033032226562499996
0.03544921875
0.03544921875
0.03544921875
0.0322265625
0.033032226562499996
0.0322265625
0.0346435546875
0.0314208984375
0.0322265625
0.0314208984375
0.02900390625
0.02900390625
0.0346435546875
0.033837890625
1.490478515625
2.769873046875
3.034130859375
3.0365478515624997
3.0421875
3.0429931640624996
3.0397705078125
3.0381591796875
3.0389648437499996
3.037353515625
3.0381591796875
3.037353515625
3.01962890625
2.9495361328125
3.0429931640624996
3.0405761718749997
3.0413818359375
3.0389648437499996
3.0421875
3.0381591796875
1.327734375
0.0298095703125
0.0362548828125
0.0314208984375
0.030615234374999998
0.02900390625
0.0322265625
0.0314208984375
0.0322265625
0.033837890625
0.0322265625
0.0322265625
0.0314208984375
0.0314208984375
0.033032226562499996
0.0362548828125
0.03544921875
0.0322265625
0.033837890625
0.033032226562499996
0.0281982421875
0.0346435546875
0.404443359375
2.3001708984375
3.037353515625
3.0389648437499996
3.037353515625
3.0397705078125
3.034130859375
3.0389648437499996
3.0421875
3.0357421875
3.037353515625
3.0389648437499996
3.0389648437499996
2.9946533203124996
3.0413818359375
3.0389648437499996
3.0357421875
3.0365478515624997
3.0397705078125
3.0397705078125
3.0421875
1.126318359375
0.0322265625
0.037060546874999996
0.033837890625
0.0322265625
0.033032226562499996
0.0314208984375
0.0322265625
0.0362548828125
0.0362548828125
0.033837890625
0.033032226562499996
0.0322265625
0.033032226562499996
0.0322265625
0.033032226562499996
0.0281982421875
0.0322265625
0.030615234374999998
0.0314208984375
0.033032226562499996
0.0362548828125
1.9779052734375
3.0365478515624997
3.0389648437499996
3.0397705078125
3.037353515625
3.0357421875
3.0389648437499996
3.0365478515624997
3.0389648437499996
3.037353515625
3.037353515625
3.0357421875
3.0333251953125
2.9422851562499996
3.037353515625
3.0381591796875
3.0405761718749997
3.0421875
3.0381591796875
3.0389648437499996
1.989990234375
0.027392578124999997
0.0314208984375
0.0322265625
0.033032226562499996
0.0298095703125
0.0322265625
0.02900390625
0.0314208984375
0.0314208984375
0.0322265625
0.0322265625
0.0346435546875
0.0322265625
0.0298095703125
0.0362548828125
0.0314208984375
0.0314208984375
0.033032226562499996
0.0314208984375
0.0322265625
0.0314208984375
0.033837890625
2.3718749999999997
3.0365478515624997
3.0381591796875
3.0397705078125
3.0389648437499996
3.037353515625
3.0365478515624997
3.0381591796875
3.0389648437499996
3.0397705078125
3.0365478515624997
3.0405761718749997
2.9962646484374997
3.0349365234374996
3.0389648437499996
3.037353515625
3.0389648437499996
3.0381591796875
3.0381591796875
3.037353515625
0.87978515625
0.0322265625
0.0322265625
0.0322265625
0.0346435546875
0.0346435546875
0.0322265625
0.0281982421875
0.033032226562499996
0.033837890625
0.0322265625
0.0346435546875
0.0322265625
0.0322265625
0.0322265625
0.033837890625
0.033032226562499996
0.0346435546875
0.030615234374999998
0.033837890625
0.0362548828125
0.033837890625
1.9182861328124998
3.0083496093749997
3.0397705078125
3.0397705078125
3.0397705078125
3.0389648437499996
3.037353515625
3.0365478515624997
3.037353515625
3.0357421875
3.0381591796875
3.0349365234374996
3.0325195312499997
2.9358398437499997
3.037353515625
3.0413818359375
3.0389648437499996
3.0381591796875
3.0365478515624997
3.0397705078125
1.0763671875
0.0314208984375
0.027392578124999997
0.0362548828125
0.0322265625
0.0346435546875
0.0314208984375
0.0322265625
0.0322265625
0.033032226562499996
0.02900390625
0.0322265625
0.033032226562499996
0.033837890625
0.0346435546875
0.0322265625
0.02900390625
0.033032226562499996
0.030615234374999998
0.030615234374999998
0.0322265625
0.0314208984375
1.6137451171875
2.7400634765625
3.037353515625
3.0389648437499996
3.0421875
3.0389648437499996
3.0381591796875
3.0349365234374996
3.0421875
3.0389648437499996
3.037353515625
3.037353515625
3.0188232421874996
2.963232421875
3.037353515625
3.0381591796875
3.0381591796875
3.0421875
3.0333251953125
3.0349365234374996
3.037353515625
0.18369140625
0.0362548828125
0.0281982421875
0.03544921875
0.0322265625
0.0362548828125
0.0322265625
0.0322265625
0.0314208984375
0.030615234374999998
0.0322265625
0.0322265625
0.03544921875
0.0322265625
0.0314208984375
0.0322265625
0.02900390625
0.0322265625
0.033032226562499996
0.0298095703125
0.033032226562499996
0.033032226562499996
2.128564453125
2.8899169921874996
3.0405761718749997
3.0381591796875
3.0389648437499996
3.0389648437499996
3.037353515625
3.0381591796875
3.0381591796875
3.037353515625
3.0421875
2.9930419921875
2.9849853515625
3.0405761718749997
3.0397705078125
3.0349365234374996
3.037353515625
3.0381591796875
3.0397705078125
3.0365478515624997
1.4091064453125
0.033837890625
0.033032226562499996
0.0314208984375
0.033032226562499996
0.0298095703125
0.03544921875
0.033032226562499996
0.0322265625
0.0314208984375
0.0314208984375
0.0378662109375
0.033032226562499996
0.0322265625
0.033032226562499996
0.03544921875
0.0322265625
0.0314208984375
0.0346435546875
0.0322265625
0.02900390625
0.0346435546875
1.571044921875
2.6240478515624996
3.0381591796875
3.037353515625
3.0389648437499996
3.0389648437499996
3.0397705078125
3.0381591796875
3.0389648437499996
3.037353515625
3.0397705078125
3.0349365234374996
2.979345703125
2.9390625
3.0389648437499996
3.0365478515624997
3.0349365234374996
3.0389648437499996
3.037353515625
3.037353515625
1.5750732421875
0.12890625
0.02900390625
0.030615234374999998
0.02900390625
0.033032226562499996
0.0322265625
0.033032226562499996
0.033032226562499996
0.0314208984375
0.033032226562499996
0.0362548828125
0.0322265625
0.033032226562499996
0.0322265625
0.03544921875
0.0346435546875
0.0378662109375
0.03544921875
0.033032226562499996
0.0362548828125
0.0322265625
0.0322265625
2.5144775390625
3.0405761718749997
3.0397705078125
3.0381591796875
3.034130859375
3.037353515625
3.0405761718749997
3.037353515625
3.0405761718749997
3.037353515625
3.0381591796875
3.0228515624999996
2.8399658203125
3.0389648437499996
3.0381591796875
3.0389648437499996
3.0413818359375
3.0389648437499996
3.0381591796875
3.0389648437499996
0.5051513671875
0.0322265625
0.0322265625
0.033032226562499996
0.033032226562499996
0.0322265625
0.033032226562499996
0.0281982421875
0.0362548828125
0.0281982421875
0.0217529296875
0.033032226562499996
0.0281982421875
0.033837890625
0.033032226562499996
0.033032226562499996
0.033032226562499996
0.030615234374999998
0.033032226562499996
0.033032226562499996
0.02900390625
0.033837890625
2.2405517578125
3.037353515625
3.0365478515624997
3.034130859375
3.034130859375
3.037353515625
3.0381591796875
3.0381591796875
3.0349365234374996
3.0389648437499996
3.0405761718749997
3.037353515625
3.0091552734375
3.0389648437499996
3.0389648437499996
3.0389648437499996
3.0389648437499996
3.037353515625
3.0381591796875
3.037353515625
1.3285400390625
0.0322265625
0.033837890625
0.0322265625
0.033837890625
0.033032226562499996
0.0298095703125
0.0362548828125
0.0322265625
0.0298095703125
0.0322265625
0.0322265625
0.0346435546875
0.0346435546875
0.033837890625
0.0346435546875
0.0322265625
0.0346435546875
0.033032226562499996
0.033032226562499996
0.033837890625
0.0314208984375
1.5380126953125
2.6917236328125
3.0421875
3.0357421875
3.0381591796875
3.0405761718749997
3.0429931640624996
3.0381591796875
3.0365478515624997
3.037353515625
3.0349365234374996
3.037353515625
2.9970703125
2.9028076171875
3.0405761718749997
3.0365478515624997
3.037353515625
3.0381591796875
3.0413818359375
3.0381591796875
1.6443603515624998
0.3585205078125
0.0322265625
0.03544921875
0.0298095703125
0.02900390625
0.033032226562499996
0.033837890625
0.03544921875
0.0322265625
0.0322265625
0.033032226562499996
0.0298095703125
0.033032226562499996
0.0322265625
0.03544921875
0.033837890625
0.0322265625
0.0322265625
0.0314208984375
0.033032226562499996
0.0314208984375
0.0346435546875
2.4322998046874997
3.0389648437499996
3.0389648437499996
3.043798828125
3.0421875
3.0397705078125
3.0381591796875
3.0397705078125
3.0389648437499996
3.037353515625
3.037353515625
3.0107666015624996
2.9761230468749997
3.037353515625
3.037353515625
3.037353515625
3.0421875
3.0357421875
3.0365478515624997
3.0389648437499996
0.6823974609375
0.0322265625
0.0322265625
0.033032226562499996
0.033032226562499996
0.033837890625
0.0346435546875
0.0298095703125
0.033837890625
0.0314208984375
0.033837890625
0.033032226562499996
0.0322265625
0.0322265625
0.0322265625
0.03544921875
0.0322265625
0.0362548828125
0.026586914062499998
0.02900390625
0.030615234374999998
0.0298095703125
2.1390380859375
2.9608154296875
3.0413818359375
3.0405761718749997
3.0397705078125
3.0413818359375
3.0397705078125
3.0389648437499996
3.0405761718749997
3.0389648437499996
3.037353515625
3.0357421875
2.9519531249999997
3.0333251953125
3.037353515625
3.0413818359375
3.0389648437499996
3.0413818359375
3.0381591796875
3.0405761718749997
1.4348876953124998
0.0394775390625
0.02900390625
0.0322265625
0.0346435546875
0.0322265625
0.0322265625
0.0298095703125
0.0314208984375
0.0314208984375
0.0314208984375
0.02900390625
0.033032226562499996
0.033032226562499996
0.0298095703125
0.033032226562499996
0.033837890625
0.033837890625
0.0322265625
0.0322265625
0.03544921875
0.030615234374999998
1.5162597656249999
2.81015625
3.0389648437499996
3.0381591796875
3.0381591796875
3.0365478515624997
3.0389648437499996
3.037353515625
3.0405761718749997
3.037353515625
3.0397705078125
3.037353515625
2.9882080078124997
2.9447021484375
3.0413818359375
3.0397705078125
3.0381591796875
3.0349365234374996
3.037353515625
3.0381591796875
2.1728759765625
0.515625
0.033032226562499996
0.033032226562499996
0.0322265625
0.0322265625
0.03544921875
0.0346435546875
0.033032226562499996
0.0322265625
0.033032226562499996
0.033837890625
0.0322265625
0.0314208984375
0.0322265625
0.02900390625
0.033032226562499996
0.033837890625
0.0314208984375
0.033032226562499996
0.033032226562499996
0.0322265625
0.0346435546875
2.2260498046875
3.037353515625
3.0405761718749997
3.0365478515624997
3.0357421875
3.0389648437499996
3.0365478515624997
3.0365478515624997
3.037353515625
3.0381591796875
3.037353515625
3.034130859375
3.018017578125
3.034130859375
3.0349365234374996
3.037353515625
3.034130859375
3.037353515625
3.0365478515624997
3.0413818359375
0.8596435546875
0.0322265625
0.033032226562499996
0.033032226562499996
0.0314208984375
0.0298095703125
0.0322265625
0.03544921875
0.0362548828125
0.033837890625
0.0322265625
0.0322265625
0.033032226562499996
0.02900390625
0.033032226562499996
0.0314208984375
0.0322265625
0.0298095703125
0.030615234374999998
0.0314208984375
0.033032226562499996
0.033032226562499996
1.9190917968749999
2.7779296875
3.0389648437499996
3.0510498046874996
3.037353515625
3.0405761718749997
3.0413818359375
3.0413818359375
3.0389648437499996
3.0389648437499996
3.037353515625
3.037353515625
2.979345703125
2.9173095703125
3.0381591796875
3.0389648437499996
3.0389648437499996
3.037353515625
3.0405761718749997
3.0365478515624997
1.5041748046874999
0.0314208984375
0.03544921875
0.0322265625
0.0322265625
0.0322265625
0.033837890625
0.0281982421875
0.0314208984375
0.033032226562499996
0.0322265625
0.03544921875
0.0314208984375
0.026586914062499998
0.0298095703125
0.0362548828125
0.033032226562499996
0.030615234374999998
0.0322265625
0.03544921875
0.0322265625
0.033032226562499996
1.345458984375
2.5241455078125
3.0365478515624997
3.037353515625
3.0389648437499996
3.0421875
3.037353515625
3.0397705078125
3.037353515625
2.95517578125
3.0389648437499996
3.0357421875
3.0067382812499996
2.9447021484375
3.0381591796875
3.0381591796875
3.0405761718749997
3.0365478515624997
3.0365478515624997
3.037353515625
2.408935546875
0.8427246093749999
0.02900390625
0.033032226562499996
0.033032226562499996
0.03544921875
0.023364257812499997
0.023364257812499997
0.0322265625
0.033032226562499996
0.033032226562499996
0.0322265625
0.03544921875
0.033032226562499996
0.0314208984375
0.0322265625
0.0322265625
0.0346435546875
0.0346435546875
0.030615234374999998
0.033032226562499996
0.033837890625
0.02900390625
2.5402587890625
3.037353515625
3.037353515625
3.0397705078125
3.0389648437499996
3.0397705078125
3.0397705078125
3.037353515625
3.0397705078125
3.0389648437499996
3.037353515625
3.0349365234374996
2.9970703125
3.0389648437499996
3.0389648437499996
3.0397705078125
3.0357421875
3.0389648437499996
3.037353515625
3.0381591796875
1.0497802734375
0.0298095703125
0.02900390625
0.033032226562499996
0.03544921875
0.0322265625
0.033032226562499996
0.03544921875
0.0298095703125
0.0322265625
0.0298095703125
0.0314208984375
0.0314208984375
0.03544921875
0.030615234374999998
0.027392578124999997
0.0322265625
0.033032226562499996
0.0314208984375
0.0322265625
0.03544921875
0.033032226562499996
2.0326904296875
2.89072265625
3.0397705078125
3.0389648437499996
3.037353515625
3.0389648437499996
3.0413818359375
3.0389648437499996
3.0421875
3.0389648437499996
3.0397705078125
3.037353515625
2.9495361328125
2.8673583984374997
3.037353515625
3.0413818359375
3.0381591796875
3.0349365234374996
3.0397705078125
3.0381591796875
1.5766845703124999
0.033032226562499996
0.033032226562499996
0.0322265625
0.033032226562499996
0.030615234374999998
0.033032226562499996
0.033837890625
0.033032226562499996
0.033032226562499996
0.0346435546875
0.033032226562499996
0.033032226562499996
0.033837890625
0.033032226562499996
0.030615234374999998
0.033837890625
0.0322265625
0.02900390625
0.0322265625
0.033032226562499996
0.0322265625
1.7362060546875
2.8069335937499997
3.0381591796875
3.0381591796875
3.0421875
3.0381591796875
3.0381591796875
3.0389648437499996
3.037353515625
2.92294921875
3.0397705078125
3.0365478515624997
3.0010986328125
2.98095703125
3.037353515625
3.0389648437499996
3.0365478515624997
3.0365478515624997
3.0381591796875
3.0397705078125
3.0397705078125
0.207861328125
0.030615234374999998
0.0322265625
0.0322265625
0.033032226562499996
0.0362548828125
0.033837890625
0.0298095703125
0.033032226562499996
0.0314208984375
0.0322265625
0.033837890625
0.033032226562499996
0.033032226562499996
0.027392578124999997
0.0322265625
0.03544921875
0.0346435546875
0.030615234374999998
0.033837890625
0.0322265625
0.5478515625
2.29775390625
3.0357421875
3.0365478515624997
3.0413818359375
3.0389648437499996
3.0413818359375
3.0357421875
3.0389648437499996
3.0405761718749997
3.0413818359375
3.037353515625
3.037353515625
3.0002929687499997
3.0381591796875
3.029296875
3.0397705078125
3.034130859375
3.0357421875
3.0381591796875
3.0397705078125
1.0650878906249999
0.033032226562499996
0.02900390625
0.033032226562499996
0.0346435546875
0.0322265625
0.033837890625
0.0322265625
0.0346435546875
0.0322265625
0.0322265625
0.0322265625
0.030615234374999998
0.0322265625
0.0322265625
0.03544921875
0.0298095703125
0.033837890625
0.033032226562499996
0.033032226562499996
0.0322265625
0.0298095703125
1.9593749999999999
2.848828125
3.0389648437499996
3.0381591796875
3.0421875
