0.0322265625
0.0322265625
0.0314208984375
0.0322265625
2.3243408203125
3.037353515625
3.0365478515624997
3.0413818359375
3.037353515625
3.0389648437499996
3.0365478515624997
3.0365478515624997
3.037353515625
3.037353515625
3.0357421875
2.972900390625
2.9261718749999996
2.9382568359374996
3.0381591796875
3.037353515625
3.0389648437499996
3.0365478515624997
3.0389648437499996
3.0381591796875
1.8884765625
0.026586914062499998
0.0314208984375
0.0314208984375
0.033837890625
0.0298095703125
0.0322265625
0.0322265625
0.0314208984375
0.037060546874999996
0.0298095703125
0.027392578124999997
0.030615234374999998
0.027392578124999997
0.033837890625
0.0314208984375
0.0314208984375
0.0322265625
0.030615234374999998
0.030615234374999998
0.033032226562499996
0.033032226562499996
1.47275390625
2.7005859374999996
3.0421875
3.0381591796875
3.0357421875
3.034130859375
3.0389648437499996
3.0389648437499996
3.037353515625
3.0405761718749997
3.037353515625
3.037353515625
2.9680664062499997
2.8818603515624996
3.0357421875
3.0389648437499996
3.0365478515624997
3.0381591796875
3.037353515625
3.0365478515624997
2.1406494140625
0.25458984375
0.030615234374999998
0.033837890625
0.033032226562499996
0.027392578124999997
0.0346435546875
0.030615234374999998
0.0314208984375
0.0314208984375
0.0314208984375
0.027392578124999997
0.0346435546875
0.033837890625
0.0314208984375
0.030615234374999998
0.0314208984375
0.02900390625
0.0322265625
0.0298095703125
0.02900390625
0.0322265625
0.030615234374999998
2.24619140625
3.0389648437499996
3.037353515625
3.0389648437499996
3.037353515625
3.037353515625
3.0365478515624997
3.0349365234374996
3.037353515625
3.0333251953125
3.0317138671875
2.9922363281249997
2.9817626953125
3.0365478515624997
3.0365478515624997
3.037353515625
3.0421875
3.0381591796875
3.0381591796875
3.0365478515624997
1.5533203125
0.033032226562499996
0.0322265625
0.0314208984375
0.0314208984375
0.0314208984375
0.030615234374999998
0.0314208984375
0.0322265625
0.030615234374999998
0.0346435546875
0.0314208984375
0.0314208984375
0.033032226562499996
0.0298095703125
0.0314208984375
0.030615234374999998
0.0322265625
0.0314208984375
0.030615234374999998
0.0322265625
0.02900390625
2.054443359375
2.9398681640624997
3.0357421875
3.0389648437499996
3.037353515625
3.0405761718749997
3.0397705078125
3.0397705078125
3.037353515625
3.0365478515624997
3.0389648437499996
3.0365478515624997
3.003515625
3.0405761718749997
3.037353515625
3.037353515625
3.0389648437499996
3.0389648437499996
3.037353515625
3.0333251953125
1.6951171875
0.0314208984375
0.030615234374999998
0.0314208984375
0.0314208984375
0.0314208984375
0.0346435546875
0.0322265625
0.0314208984375
0.0298095703125
0.0314208984375
0.0298095703125
0.0281982421875
0.0314208984375
0.0314208984375
0.033837890625
0.027392578124999997
0.0346435546875
0.033837890625
0.027392578124999997
0.0314208984375
0.030615234374999998
1.5678222656249998
2.9342285156249996
3.0357421875
3.0405761718749997
3.0357421875
3.0333251953125
3.0381591796875
3.0405761718749997
3.0357421875
3.037353515625
3.037353515625
3.037353515625
3.037353515625
2.9608154296875
3.0381591796875
3.037353515625
3.0381591796875
3.0405761718749997
3.037353515625
3.0365478515624997
2.2308837890624997
0.030615234374999998
0.02900390625
0.030615234374999998
0.0346435546875
0.027392578124999997
0.03544921875
0.0322265625
0.0314208984375
0.0346435546875
0.033032226562499996
0.0346435546875
0.0322265625
0.030615234374999998
0.030615234374999998
0.0322265625
0.033837890625
0.02900390625
0.02900390625
0.033032226562499996
0.0281982421875
0.0322265625
0.0322265625
2.447607421875
3.0389648437499996
3.0405761718749997
3.037353515625
3.037353515625
3.0333251953125
3.0381591796875
3.0381591796875
3.0397705078125
3.0365478515624997
3.0381591796875
3.011572265625
2.98095703125
3.0413818359375
3.0381591796875
3.037353515625
3.0365478515624997
3.0405761718749997
3.0365478515624997
3.0389648437499996
0.3069580078125
0.0314208984375
0.0281982421875
0.0322265625
0.033837890625
0.0298095703125
0.02900390625
0.0322265625
0.027392578124999997
0.0322265625
0.033837890625
0.0322265625
0.0314208984375
0.0314208984375
0.0322265625
0.0322265625
0.033837890625
0.0346435546875
0.0322265625
0.0314208984375
0.0322265625
0.0322265625
1.8538330078124998
2.8359375
3.037353515625
3.0381591796875
3.0421875
3.034130859375
3.034130859375
3.0413818359375
3.0389648437499996
3.037353515625
3.037353515625
3.0413818359375
3.0220458984375
3.037353515625
3.0365478515624997
3.037353515625
3.0381591796875
3.037353515625
3.037353515625
3.037353515625
1.625830078125
0.033032226562499996
0.030615234374999998
0.0298095703125
0.0298095703125
0.0322265625
0.0322265625
0.0314208984375
0.0314208984375
0.0322265625
0.0314208984375
0.030615234374999998
0.0314208984375
0.0322265625
0.030615234374999998
0.030615234374999998
0.030615234374999998
0.0314208984375
0.0314208984375
0.0322265625
0.0322265625
0.026586914062499998
1.351904296875
2.263916015625
3.0365478515624997
3.0389648437499996
3.034130859375
3.0365478515624997
3.0357421875
3.0413818359375
3.0365478515624997
3.0381591796875
3.037353515625
3.0357421875
3.0172119140625
3.0349365234374996
3.037353515625
3.0357421875
3.0381591796875
3.037353515625
3.037353515625
3.0421875
1.5202880859374999
0.0322265625
0.0346435546875
0.0346435546875
0.0322265625
0.0314208984375
0.033032226562499996
0.030615234374999998
0.024169921875
0.0314208984375
0.03544921875
0.03544921875
0.030615234374999998
0.0314208984375
0.0314208984375
0.0281982421875
0.03544921875
0.030615234374999998
0.0314208984375
0.0346435546875
0.0281982421875
0.0322265625
0.0314208984375
2.5201171875
3.037353515625
3.0389648437499996
3.034130859375
3.0389648437499996
3.037353515625
3.0365478515624997
3.0381591796875
3.0381591796875
3.0405761718749997
3.0397705078125
3.0349365234374996
3.027685546875
3.0381591796875
3.037353515625
3.037353515625
3.0381591796875
3.0381591796875
3.0397705078125
3.0357421875
0.08701171875
0.0298095703125
0.0314208984375
0.03544921875
0.0346435546875
0.027392578124999997
0.0346435546875
0.0281982421875
0.02900390625
0.0281982421875
0.0346435546875
0.0314208984375
0.033032226562499996
0.0322265625
0.033032226562499996
0.0314208984375
0.0322265625
0.033032226562499996
0.033032226562499996
0.033837890625
0.0314208984375
0.033032226562499996
1.9730712890625
2.9076416015624997
3.0365478515624997
3.0389648437499996
3.0397705078125
3.037353515625
3.037353515625
3.037353515625
3.0389648437499996
3.0381591796875
3.0397705078125
3.0389648437499996
3.0365478515624997
3.0365478515624997
3.0349365234374996
3.0365478515624997
3.0389648437499996
3.037353515625
3.037353515625
3.037353515625
1.313232421875
0.0281982421875
0.0298095703125
0.033032226562499996
0.030615234374999998
0.0298095703125
0.0322265625
0.0314208984375
0.033837890625
0.030615234374999998
0.0322265625
0.0314208984375
0.030615234374999998
0.03544921875
0.02900390625
0.0314208984375
0.0314208984375
0.0298095703125
0.033032226562499996
0.0322265625
0.0314208984375
0.0314208984375
1.397021484375
2.3557617187499997
3.037353515625
3.0333251953125
3.037353515625
3.0365478515624997
3.037353515625
3.037353515625
3.0397705078125
3.0349365234374996
3.037353515625
3.0357421875
3.0365478515624997
2.9930419921875
3.0357421875
3.0357421875
3.037353515625
3.0405761718749997
3.037353515625
3.037353515625
1.15048828125
0.0314208984375
0.0322265625
0.0322265625
0.0362548828125
0.0281982421875
0.0322265625
0.0322265625
0.030615234374999998
0.0281982421875
0.0322265625
0.0322265625
0.030615234374999998
0.033032226562499996
0.0322265625
0.027392578124999997
0.0314208984375
0.0314208984375
0.0314208984375
0.030615234374999998
0.033032226562499996
0.0322265625
0.0314208984375
2.3082275390625
3.0365478515624997
3.0381591796875
3.0365478515624997
3.0349365234374996
3.037353515625
3.037353515625
3.0389648437499996
3.037353515625
3.0405761718749997
3.037353515625
3.0252685546875
2.9986816406249996
3.0357421875
3.0405761718749997
3.0381591796875
3.0413818359375
3.037353515625
3.037353515625
3.0365478515624997
0.02900390625
0.0281982421875
0.033837890625
0.0314208984375
0.0281982421875
0.0281982421875
0.0314208984375
0.027392578124999997
0.0314208984375
0.0314208984375
0.033837890625
0.0314208984375
0.030615234374999998
0.033032226562499996
0.0314208984375
0.0314208984375
0.0314208984375
0.030615234374999998
0.0314208984375
0.03544921875
0.030615234374999998
0.027392578124999997
1.9698486328125
2.8399658203125
3.0365478515624997
3.0405761718749997
3.0389648437499996
3.0381591796875
3.037353515625
3.0421875
3.0421875
3.0421875
3.0381591796875
3.037353515625
3.0188232421874996
3.0349365234374996
3.0365478515624997
3.037353515625
3.0381591796875
3.037353515625
3.034130859375
3.037353515625
0.936181640625
0.0314208984375
0.0281982421875
0.030615234374999998
0.0314208984375
0.033032226562499996
0.030615234374999998
0.033032226562499996
0.0298095703125
0.0322265625
0.0314208984375
0.0314208984375
0.0314208984375
0.0314208984375
0.033032226562499996
0.0314208984375
0.0298095703125
0.033032226562499996
0.02578125
0.0314208984375
0.0314208984375
0.03544921875
1.3865478515624998
2.5587890625
3.0349365234374996
3.0365478515624997
3.0381591796875
3.0381591796875
3.0405761718749997
3.0397705078125
3.0381591796875
3.0405761718749997
3.0405761718749997
3.0389648437499996
3.0091552734375
2.9833740234375
3.0405761718749997
3.0413818359375
3.0365478515624997
3.0365478515624997
3.0365478515624997
3.037353515625
1.18916015625
0.0314208984375
0.030615234374999998
0.030615234374999998
0.0314208984375
0.030615234374999998
0.0314208984375
0.030615234374999998
0.030615234374999998
0.0281982421875
0.033032226562499996
0.0322265625
0.0281982421875
0.0322265625
0.0322265625
0.0314208984375
0.030615234374999998
0.0314208984375
0.0314208984375
0.0322265625
0.033837890625
0.0346435546875
0.6815917968749999
2.5587890625
3.037353515625
3.037353515625
3.0421875
3.0349365234374996
3.0397705078125
3.0381591796875
3.0381591796875
3.0405761718749997
3.037353515625
3.037353515625
3.037353515625
2.9922363281249997
3.037353515625
3.0365478515624997
3.037353515625
3.037353515625
3.037353515625
3.0381591796875
3.037353515625
0.45036621093749996
0.030615234374999998
0.0298095703125
0.0346435546875
0.0281982421875
0.030615234374999998
0.030615234374999998
0.0322265625
0.0314208984375
0.030615234374999998
0.033032226562499996
0.0314208984375
0.0314208984375
0.0314208984375
0.0298095703125
0.0314208984375
0.030615234374999998
0.030615234374999998
0.0281982421875
0.0281982421875
0.0314208984375
0.0314208984375
2.2598876953125
3.037353515625
3.037353515625
3.0389648437499996
3.0413818359375
3.037353515625
3.0381591796875
3.0365478515624997
3.0389648437499996
3.0349365234374996
3.0381591796875
2.9914306640625
2.9503417968749996
3.0349365234374996
3.0405761718749997
3.0365478515624997
3.0357421875
3.0365478515624997
3.0381591796875
3.0389648437499996
0.6533935546874999
0.033032226562499996
0.0322265625
0.0322265625
0.0322265625
0.0346435546875
0.0322265625
0.030615234374999998
0.0346435546875
0.0314208984375
0.02900390625
0.030615234374999998
0.0322265625
0.02900390625
0.0314208984375
0.0314208984375
0.0314208984375
0.0314208984375
0.02900390625
0.0314208984375
0.0298095703125
0.0314208984375
2.070556640625
3.0357421875
3.0397705078125
3.0381591796875
3.0381591796875
3.037353515625
3.0357421875
3.0381591796875
3.037353515625
3.0381591796875
3.0365478515624997
3.0365478515624997
3.0365478515624997
3.0397705078125
3.0413818359375
3.034130859375
3.0397705078125
3.0381591796875
3.0389648437499996
3.034130859375
1.53720703125
0.0346435546875
0.0314208984375
0.030615234374999998
0.0298095703125
0.0281982421875
0.0322265625
0.030615234374999998
0.030615234374999998
0.033837890625
0.02900390625
0.0169189453125
0.0362548828125
0.0281982421875
0.033837890625
0.0314208984375
0.0298095703125
0.0314208984375
0.0314208984375
0.030615234374999998
0.027392578124999997
0.0314208984375
1.4300537109375
2.7392578125
3.0333251953125
3.0357421875
3.0357421875
3.037353515625
3.0397705078125
3.0389648437499996
3.0357421875
3.037353515625
3.0397705078125
3.0389648437499996
3.0365478515624997
3.005126953125
3.0389648437499996
3.0381591796875
3.0389648437499996
3.037353515625
3.0389648437499996
3.0381591796875
3.0333251953125
0.02900390625
0.033837890625
0.0322265625
0.0314208984375
0.033837890625
0.03544921875
0.033032226562499996
0.0322265625
0.0314208984375
0.0314208984375
0.0314208984375
0.030615234374999998
0.0346435546875
0.033032226562499996
0.0314208984375
0.033837890625
0.0314208984375
0.0314208984375
0.033032226562499996
0.0314208984375
0.027392578124999997
0.0314208984375
2.0471923828125
2.8689697265625
3.037353515625
3.037353515625
3.037353515625
3.0349365234374996
3.0365478515624997
3.0381591796875
3.0405761718749997
3.0389648437499996
3.037353515625
3.0397705078125
2.9769287109375
3.037353515625
3.0349365234374996
3.0421875
3.0397705078125
3.0405761718749997
3.037353515625
3.034130859375
0.47050781249999996
0.0298095703125
0.0322265625
0.0314208984375
0.0322265625
0.033837890625
0.0322265625
0.030615234374999998
0.030615234374999998
0.030615234374999998
0.0314208984375
0.0314208984375
0.0314208984375
0.0314208984375
0.0281982421875
0.0322265625
0.02900390625
0.02900390625
0.0314208984375
0.0298095703125
0.033032226562499996
0.0314208984375
1.590380859375
2.624853515625
3.0389648437499996
3.037353515625
3.037353515625
3.0389648437499996
3.0365478515624997
3.0365478515624997
3.0405761718749997
3.0381591796875
3.037353515625
3.037353515625
3.0357421875
3.0349365234374996
3.034130859375
3.0381591796875
3.0421875
3.037353515625
3.037353515625
3.0333251953125
1.3913818359374999
0.027392578124999997
0.0314208984375
0.0314208984375
0.03544921875
0.0346435546875
0.030615234374999998
0.0322265625
0.0314208984375
0.033032226562499996
0.033837890625
0.0298095703125
0.0314208984375
0.0314208984375
0.0298095703125
0.0314208984375
0.0314208984375
0.0314208984375
0.03544921875
0.0314208984375
0.0314208984375
0.0346435546875
1.546875
2.6707763671875
3.0397705078125
3.0357421875
3.037353515625
3.037353515625
3.034130859375
3.037353515625
3.0365478515624997
3.0349365234374996
3.0381591796875
3.0365478515624997
3.0236572265625
2.947119140625
3.037353515625
3.0405761718749997
3.034130859375
3.0365478515624997
3.037353515625
3.0357421875
2.434716796875
0.02900390625
0.030615234374999998
0.0298095703125
0.0314208984375
0.030615234374999998
0.0322265625
0.033032226562499996
0.0298095703125
0.030615234374999998
0.0314208984375
0.030615234374999998
0.02900390625
0.03544921875
0.0346435546875
0.0322265625
0.0322265625
0.030615234374999998
0.0314208984375
0.033032226562499996
0.030615234374999998
0.030615234374999998
0.0314208984375
2.421826171875
3.037353515625
3.037353515625
3.037353515625
3.0381591796875
3.0421875
3.0365478515624997
3.0389648437499996
3.0357421875
3.0397705078125
3.0389648437499996
3.0357421875
2.9592041015625
3.037353515625
3.0365478515624997
3.0365478515624997
3.037353515625
3.0381591796875
3.0333251953125
3.0301025390625
1.11181640625
0.030615234374999998
0.0314208984375
0.0322265625
0.027392578124999997
0.0281982421875
0.0314208984375
0.0314208984375
0.033032226562499996
0.0298095703125
0.030615234374999998
0.0314208984375
0.0322265625
0.0281982421875
0.03544921875
0.0298095703125
0.02900390625
0.0314208984375
0.02900390625
0.0314208984375
0.030615234374999998
0.0322265625
1.791796875
3.01318359375
3.0381591796875
3.0405761718749997
3.0357421875
3.0381591796875
3.05185546875
3.0389648437499996
3.034130859375
3.037353515625
3.037353515625
3.0365478515624997
2.98095703125
2.9028076171875
3.0365478515624997
3.0389648437499996
3.037353515625
3.0381591796875
3.0389648437499996
3.0365478515624997
0.823388671875
0.033032226562499996
0.033032226562499996
0.0314208984375
0.030615234374999998
0.030615234374999998
0.02900390625
0.0322265625
0.0314208984375
0.030615234374999998
0.03544921875
0.027392578124999997
0.030615234374999998
0.0322265625
0.030615234374999998
0.02900390625
0.0314208984375
0.027392578124999997
0.0298095703125
0.030615234374999998
0.030615234374999998
0.026586914062499998
0.8531982421875
2.55234375
3.0381591796875
3.0357421875
3.0381591796875
3.037353515625
3.0365478515624997
3.037353515625
3.0389648437499996
3.0389648437499996
3.037353515625
3.0357421875
3.0333251953125
2.9583984374999996
3.0357421875
3.034130859375
3.037353515625
3.0357421875
3.0381591796875
3.0357421875
3.0365478515624997
0.5454345703125
0.030615234374999998
0.0298095703125
0.0298095703125
0.0314208984375
0.0314208984375
0.0281982421875
0.030615234374999998
0.030615234374999998
0.0346435546875
0.0314208984375
0.02900390625
0.0314208984375
0.0298095703125
0.027392578124999997
0.0314208984375
0.0314208984375
0.0322265625
0.033837890625
0.033837890625
0.027392578124999997
0.0314208984375
1.8046875
3.0397705078125
3.0365478515624997
3.037353515625
3.037353515625
3.037353515625
3.0357421875
3.0333251953125
3.0381591796875
3.0365478515624997
3.037353515625
3.0397705078125
3.0067382812499996
3.0059326171875
3.0381591796875
3.037353515625
3.0381591796875
3.0325195312499997
3.0365478515624997
3.0357421875
1.22783203125
0.030615234374999998
0.030615234374999998
0.027392578124999997
0.033837890625
0.0314208984375
0.033032226562499996
0.0314208984375
0.0314208984375
0.030615234374999998
0.030615234374999998
0.0314208984375
0.0314208984375
0.0281982421875
0.030615234374999998
0.0314208984375
0.033032226562499996
0.0322265625
0.0314208984375
0.0314208984375
0.0314208984375
0.030615234374999998
1.6234130859375
2.9712890625
3.0357421875
3.0365478515624997
3.0357421875
3.034130859375
3.0397705078125
3.0357421875
3.0365478515624997
3.0389648437499996
3.0397705078125
3.034130859375
2.9785400390624996
2.9503417968749996
3.037353515625
3.0381591796875
3.037353515625
3.0357421875
3.0389648437499996
3.0365478515624997
3.0486328124999997
0.03544921875
0.0298095703125
0.033032226562499996
0.030615234374999998
0.03544921875
0.0322265625
0.0314208984375
0.0314208984375
0.0314208984375
0.0314208984375
0.02900390625
0.0281982421875
0.030615234374999998
0.0322265625
0.0346435546875
0.0322265625
0.0322265625
0.030615234374999998
0.0298095703125
0.030615234374999998
0.030615234374999998
0.0346435546875
2.5555664062499996
3.037353515625
3.037353515625
3.0365478515624997
3.0389648437499996
3.0397705078125
3.0357421875
3.0357421875
3.0381591796875
3.0317138671875
3.0365478515624997
3.0389648437499996
2.9680664062499997
3.0365478515624997
3.0381591796875
3.037353515625
3.0357421875
3.0381591796875
3.034130859375
3.0357421875
0.3794677734375
0.0322265625
0.0298095703125
0.027392578124999997
0.030615234374999998
0.0314208984375
0.0281982421875
0.02900390625
0.02900390625
0.0298095703125
0.0314208984375
0.0314208984375
0.0314208984375
0.030615234374999998
0.030615234374999998
0.033032226562499996
0.0314208984375
0.0314208984375
0.030615234374999998
0.0298095703125
0.030615234374999998
0.0314208984375
1.464697265625
3.037353515625
3.037353515625
3.0389648437499996
3.037353515625
3.0381591796875
3.0381591796875
3.037353515625
3.0405761718749997
3.037353515625
3.0405761718749997
3.0389648437499996
3.011572265625
2.9197265624999997
3.037353515625
3.0357421875
3.037353515625
3.0381591796875
3.0365478515624997
3.0381591796875
1.62744140625
0.0314208984375
0.0281982421875
0.0314208984375
0.0314208984375
0.02900390625
0.030615234374999998
0.02900390625
0.027392578124999997
0.0322265625
0.0314208984375
0.0298095703125
0.0322265625
0.0314208984375
0.030615234374999998
0.0281982421875
0.0314208984375
0.0322265625
0.0281982421875
0.0298095703125
0.033032226562499996
0.0298095703125
0.030615234374999998
2.7771240234374996
3.0381591796875
3.0381591796875
3.0381591796875
3.037353515625
3.0381591796875
3.0413818359375
3.0357421875
3.037353515625
3.0381591796875
3.0381591796875
3.005126953125
2.9994873046875
3.0357421875
3.0365478515624997
3.037353515625
3.0357421875
3.037353515625
3.037353515625
3.034130859375
0.030615234374999998
0.0314208984375
0.0314208984375
0.0322265625
0.0298095703125
0.0322265625
0.0314208984375
0.0314208984375
0.0362548828125
0.02900390625
0.027392578124999997
0.0298095703125
0.0281982421875
0.0346435546875
0.030615234374999998
0.030615234374999998
0.030615234374999998
0.030615234374999998
0.027392578124999997
0.0314208984375
0.0322265625
0.0314208984375
2.1938232421875
3.037353515625
3.0389648437499996
3.0381591796875
3.037353515625
3.0405761718749997
3.0349365234374996
3.0381591796875
3.0381591796875
3.0365478515624997
3.034130859375
3.0349365234374996
3.01318359375
3.037353515625
3.037353515625
3.0333251953125
3.0389648437499996
3.0365478515624997
3.037353515625
3.0365478515624997
1.3180664062499998
0.0314208984375
0.0298095703125
0.0322265625
0.0314208984375
0.0322265625
0.0298095703125
0.033837890625
0.02900390625
0.0322265625
0.0298095703125
0.030615234374999998
0.0314208984375
0.030615234374999998
0.0314208984375
0.033837890625
0.030615234374999998
0.0298095703125
0.0314208984375
0.03544921875
0.03544921875
0.0322265625
1.3220947265624998
2.592626953125
3.0357421875
3.0381591796875
3.0333251953125
3.0421875
3.034130859375
3.0421875
3.0365478515624997
3.0421875
3.0365478515624997
3.0413818359375
3.0381591796875
2.963232421875
3.0365478515624997
3.0365478515624997
3.0381591796875
3.0413818359375
3.0357421875
3.0349365234374996
0.7226806640625
0.030615234374999998
0.026586914062499998
0.0298095703125
0.0322265625
0.0322265625
0.03544921875
0.03544921875
0.030615234374999998
0.033837890625
0.026586914062499998
0.0314208984375
0.03544921875
0.0298095703125
0.0281982421875
0.0314208984375
0.030615234374999998
0.0314208984375
0.0322265625
0.026586914062499998
0.0322265625
0.0314208984375
0.372216796875
2.553955078125
3.037353515625
3.034130859375
3.0365478515624997
3.037353515625
3.0389648437499996
3.0325195312499997
3.0365478515624997
3.0389648437499996
3.0389648437499996
3.0357421875
3.0164062499999997
2.9930419921875
3.0357421875
3.0381591796875
3.037353515625
3.034130859375
3.0381591796875
3.0389648437499996
3.0357421875
0.7017333984374999
0.0322265625
0.033032226562499996
0.0314208984375
0.0322265625
0.026586914062499998
0.03544921875
0.0322265625
0.030615234374999998
0.0322265625
0.0314208984375
0.0314208984375
0.033032226562499996
0.0322265625
0.0314208984375
0.030615234374999998
0.0281982421875
0.033837890625
0.02900390625
0.027392578124999997
0.033837890625
0.02578125
2.0117431640625
3.034130859375
3.0357421875
3.0389648437499996
3.0389648437499996
3.0389648437499996
3.0389648437499996
3.037353515625
3.0381591796875
3.0349365234374996
3.0333251953125
3.037353515625
3.0365478515624997
3.005126953125
3.0421875
3.0397705078125
3.0381591796875
3.0397705078125
3.0325195312499997
3.0405761718749997
1.09892578125
0.0314208984375
0.0314208984375
0.0346435546875
0.0314208984375
0.02900390625
0.027392578124999997
0.0314208984375
0.026586914062499998
0.030615234374999998
0.030615234374999998
0.0322265625
0.027392578124999997
0.0322265625
0.030615234374999998
0.030615234374999998
0.027392578124999997
0.027392578124999997
0.02578125
0.0322265625
0.0314208984375
0.0314208984375
1.6781982421875
2.657080078125
3.0421875
3.0389648437499996
3.037353515625
3.034130859375
3.0421875
3.037353515625
3.0381591796875
3.0365478515624997
3.0381591796875
3.0381591796875
3.037353515625
2.98740234375
3.0317138671875
3.034130859375
3.0413818359375
3.0413818359375
3.0357421875
3.0357421875
3.0365478515624997
0.18691406249999998
0.026586914062499998
0.0314208984375
0.033032226562499996
0.0314208984375
0.033837890625
0.033032226562499996
0.0314208984375
0.0314208984375
0.030615234374999998
0.0298095703125
0.0314208984375
0.03544921875
0.030615234374999998
0.0314208984375
0.030615234374999998
0.030615234374999998
0.027392578124999997
0.0314208984375
0.0314208984375
0.0322265625
0.0314208984375
2.00771484375
2.9350341796875
3.037353515625
3.0365478515624997
3.0333251953125
3.0357421875
3.0405761718749997
3.0357421875
3.0413818359375
3.0365478515624997
3.0421875
3.0357421875
3.0123779296874997
3.0357421875
3.0381591796875
3.0365478515624997
3.0381591796875
3.037353515625
3.0381591796875
3.0365478515624997
1.456640625
0.0314208984375
0.0298095703125
0.0314208984375
0.0314208984375
0.02578125
0.03544921875
0.030615234374999998
0.0346435546875
0.0322265625
0.0322265625
0.027392578124999997
0.033032226562499996
0.0314208984375
0.030615234374999998
0.0298095703125
0.03544921875
0.02900390625
0.0298095703125
0.026586914062499998
0.0314208984375
0.0322265625
1.4236083984374999
2.66513671875
3.037353515625
3.0405761718749997
3.034130859375
3.037353515625
3.0405761718749997
3.0381591796875
3.037353515625
3.0381591796875
3.0365478515624997
3.0381591796875
3.0397705078125
2.9720947265624997
3.0389648437499996
3.0397705078125
3.0389648437499996
3.0389648437499996
3.0365478515624997
3.0381591796875
2.11083984375
0.0298095703125
0.0322265625
0.0322265625
0.0346435546875
0.0322265625
0.030615234374999998
0.033032226562499996
0.030615234374999998
0.02900390625
0.0346435546875
0.0314208984375
0.0322265625
0.0314208984375
0.0314208984375
0.033837890625
0.0314208984375
0.033032226562499996
0.02900390625
0.0314208984375
0.0322265625
0.033837890625
0.0314208984375
2.5177001953125
3.0365478515624997
3.037353515625
3.0389648437499996
3.0381591796875
3.0357421875
3.0381591796875
3.037353515625
3.0365478515624997
3.0365478515624997
3.0381591796875
3.0365478515624997
3.003515625
3.0365478515624997
3.037353515625
3.0429931640624996
3.0357421875
3.037353515625
3.037353515625
3.0413818359375
0.9651855468749999
0.0298095703125
0.0281982421875
0.033837890625
0.0298095703125
0.033032226562499996
0.0314208984375
0.02900390625
0.0314208984375
0.0346435546875
0.0314208984375
0.0314208984375
0.0314208984375
0.0314208984375
0.033032226562499996
0.0346435546875
0.0281982421875
0.0346435546875
0.033032226562499996
0.0314208984375
0.0314208984375
0.0281982421875
1.4953124999999998
2.7779296875
3.0413818359375
3.037353515625
3.0357421875
3.0349365234374996
3.0333251953125
3.037353515625
3.0381591796875
3.037353515625
3.0381591796875
3.037353515625
3.0349365234374996
2.9785400390624996
3.0365478515624997
3.0421875
3.0381591796875
3.037353515625
3.0357421875
3.0365478515624997
0.7025390625
0.0314208984375
0.0298095703125
0.0314208984375
0.033032226562499996
0.033032226562499996
0.0322265625
0.030615234374999998
0.0298095703125
0.02900390625
0.0314208984375
0.0362548828125
0.0314208984375
0.0322265625
0.0298095703125
0.0314208984375
0.0322265625
0.030615234374999998
0.02900390625
0.0314208984375
0.030615234374999998
0.030615234374999998
1.2955078125
2.4774169921875
3.0389648437499996
3.0349365234374996
3.0365478515624997
3.0365478515624997
3.0397705078125
3.0365478515624997
3.037353515625
3.0349365234374996
3.0349365234374996
3.0381591796875
3.005126953125
2.9737060546875
3.0389648437499996
3.0357421875
3.0381591796875
3.0397705078125
3.0349365234374996
3.0357421875
3.0405761718749997
0.4874267578125
0.0362548828125
0.030615234374999998
0.0314208984375
0.0346435546875
0.0314208984375
0.0281982421875
0.0314208984375
0.0322265625
0.033032226562499996
0.030615234374999998
0.030615234374999998
0.0281982421875
0.0314208984375
0.02900390625
0.0362548828125
0.0314208984375
0.0322265625
0.0249755859375
0.030615234374999998
0.03544921875
0.0322265625
2.176904296875
3.0381591796875
3.0389648437499996
3.0365478515624997
3.0365478515624997
3.037353515625
3.0405761718749997
3.0365478515624997
3.034130859375
3.037353515625
3.0365478515624997
3.0421875
2.9922363281249997
3.0365478515624997
3.0405761718749997
3.034130859375
3.0357421875
3.0381591796875
3.0389648437499996
3.0357421875
1.345458984375
0.0298095703125
0.030615234374999998
0.030615234374999998
0.0314208984375
0.0314208984375
0.02900390625
0.0322265625
0.030615234374999998
0.0322265625
0.033837890625
0.0314208984375
0.030615234374999998
0.02900390625
0.033032226562499996
0.02900390625
0.03544921875
0.033837890625
0.0298095703125
0.030615234374999998
0.0346435546875
0.03544921875
1.3913818359374999
2.7247558593749996
3.0349365234374996
3.034130859375
3.0405761718749997
3.0413818359375
3.034130859375
3.0357421875
3.0381591796875
3.0405761718749997
3.0421875
3.037353515625
3.034130859375
2.9833740234375
3.0357421875
3.0357421875
3.034130859375
3.0325195312499997
3.0357421875
3.034130859375
2.4604980468749997
0.0346435546875
0.033837890625
0.027392578124999997
0.0322265625
0.0346435546875
0.030615234374999998
0.0314208984375
0.027392578124999997
0.0322265625
0.0322265625
0.026586914062499998
0.030615234374999998
0.030615234374999998
0.0314208984375
0.030615234374999998
0.0281982421875
0.033032226562499996
0.0281982421875
0.03544921875
0.0314208984375
0.0314208984375
0.0322265625
2.3517333984374997
3.0381591796875
3.037353515625
3.0365478515624997
3.0357421875
3.0389648437499996
3.0413818359375
3.0365478515624997
3.0389648437499996
3.0349365234374996
3.0381591796875
3.02607421875
2.9930419921875
3.0389648437499996
3.037353515625
3.037353515625
3.037353515625
3.037353515625
3.037353515625
3.0365478515624997
1.22138671875
0.027392578124999997
0.0314208984375
0.0314208984375
0.0346435546875
0.030615234374999998
0.030615234374999998
0.0314208984375
0.0322265625
0.0298095703125
0.030615234374999998
0.0298095703125
0.0314208984375
0.0314208984375
0.02900390625
0.0322265625
0.033837890625
0.0314208984375
0.030615234374999998
0.03544921875
0.0314208984375
0.0281982421875
1.448583984375
2.5716796874999996
3.0389648437499996
3.0365478515624997
3.037353515625
3.037353515625
3.037353515625
3.0357421875
3.0333251953125
3.0381591796875
3.0333251953125
3.037353515625
3.01318359375
2.9422851562499996
3.0357421875
3.0325195312499997
3.0365478515624997
3.037353515625
3.0357421875
3.0397705078125
2.5483154296875
0.033032226562499996
0.030615234374999998
0.0249755859375
0.030615234374999998
0.0322265625
0.027392578124999997
0.027392578124999997
0.0346435546875
0.02900390625
0.0298095703125
0.0322265625
0.0322265625
0.0298095703125
0.0281982421875
0.0314208984375
0.030615234374999998
0.030615234374999998
0.0314208984375
0.0314208984375
0.0314208984375
0.0322265625
1.4445556640625
2.6683593749999996
3.0365478515624997
3.0333251953125
3.0365478515624997
3.0365478515624997
3.0365478515624997
3.0325195312499997
3.037353515625
3.037353515625
3.0333251953125
3.0325195312499997
2.99384765625
2.9479248046874997
3.0389648437499996
3.0365478515624997
3.0389648437499996
3.0365478515624997
3.0381591796875
3.0357421875
3.034130859375
0.5808837890624999
0.0314208984375
0.02900390625
0.030615234374999998
0.0314208984375
0.0314208984375
0.033032226562499996
0.0314208984375
0.0314208984375
0.030615234374999998
0.0298095703125
0.0314208984375
0.030615234374999998
0.0314208984375
0.0322265625
0.026586914062499998
0.0322265625
0.033032226562499996
0.0314208984375
0.03544921875
0.0314208984375
0.033032226562499996
2.0939208984374997
3.0381591796875
3.037353515625
3.037353515625
3.0381591796875
3.037353515625
3.0365478515624997
3.0333251953125
3.0381591796875
3.0365478515624997
3.0381591796875
2.9833740234375
3.0204345703124997
3.0349365234374996
3.0365478515624997
3.0357421875
3.034130859375
3.0365478515624997
3.0365478515624997
3.0365478515624997
1.3817138671875
0.030615234374999998
0.027392578124999997
0.0281982421875
0.0346435546875
0.0322265625
0.030615234374999998
0.0314208984375
0.0314208984375
0.0314208984375
0.0281982421875
0.0298095703125
0.03544921875
0.0298095703125
0.0298095703125
0.0314208984375
0.033837890625
0.026586914062499998
0.026586914062499998
0.0322265625
0.0322265625
0.033032226562499996
1.8054931640624998
2.9447021484375
3.037353515625
3.037353515625
3.034130859375
3.0365478515624997
3.0365478515624997
3.0405761718749997
3.034130859375
3.037353515625
3.0349365234374996
3.0357421875
3.0147949218749996
2.9672607421875
3.037353515625
3.037353515625
3.0365478515624997
3.0349365234374996
3.034130859375
3.0365478515624997
3.0381591796875
0.033837890625
0.0314208984375
0.033032226562499996
0.0314208984375
0.0298095703125
0.030615234374999998
0.030615234374999998
0.0314208984375
0.0322265625
0.0314208984375
0.030615234374999998
0.030615234374999998
0.0314208984375
0.033837890625
0.030615234374999998
0.033837890625
0.0346435546875
0.0314208984375
0.0322265625
0.0346435546875
0.033032226562499996
0.0281982421875
2.070556640625
3.0349365234374996
3.0365478515624997
3.0389648437499996
3.0349365234374996
3.0365478515624997
3.037353515625
3.0381591796875
3.037353515625
3.037353515625
3.0389648437499996
2.9753173828125
2.9543701171874996
3.0421875
3.0397705078125
3.037353515625
3.0365478515624997
3.0413818359375
3.0333251953125
3.037353515625
1.2536132812499998
0.033032226562499996
0.0314208984375
0.0298095703125
0.0322265625
0.0281982421875
0.033032226562499996
0.0322265625
0.0322265625
0.02900390625
0.026586914062499998
0.02900390625
0.030615234374999998
0.0314208984375
0.033032226562499996
0.0346435546875
0.027392578124999997
0.0314208984375
0.030615234374999998
0.0346435546875
0.02900390625
0.02900390625
1.43408203125
3.0357421875
3.0357421875
3.0381591796875
3.0365478515624997
3.0365478515624997
3.0389648437499996
3.0389648437499996
3.0357421875
3.0365478515624997
3.0397705078125
3.0381591796875
3.001904296875
2.9269775390625
3.0397705078125
3.0365478515624997
3.037353515625
3.0389648437499996
3.0397705078125
3.037353515625
1.3801025390625
0.0314208984375
0.030615234374999998
0.030615234374999998
0.0298095703125
0.030615234374999998
0.03544921875
0.0314208984375
0.0322265625
0.0314208984375
0.0281982421875
0.0314208984375
0.0322265625
0.033032226562499996
0.030615234374999998
0.033032226562499996
0.0314208984375
0.0346435546875
0.0314208984375
0.0314208984375
0.0314208984375
0.0281982421875
0.9740478515625
2.8617187499999996
3.0349365234374996
3.0365478515624997
3.0349365234374996
3.0357421875
3.037353515625
3.037353515625
3.0349365234374996
3.0389648437499996
3.0381591796875
3.0389648437499996
2.9930419921875
2.9592041015625
3.0365478515624997
3.0389648437499996
3.0349365234374996
3.0349365234374996
3.0333251953125
3.037353515625
3.037353515625
0.0314208984375
0.0298095703125
0.033837890625
0.0314208984375
0.0322265625
0.030615234374999998
0.0314208984375
0.030615234374999998
0.0322265625
0.0314208984375
0.027392578124999997
0.0322265625
0.0314208984375
0.02900390625
0.030615234374999998
0.0298095703125
0.030615234374999998
0.0322265625
0.0314208984375
0.0314208984375
0.0362548828125
0.0314208984375
2.20751953125
3.0405761718749997
3.0381591796875
3.0381591796875
3.0397705078125
3.0381591796875
3.0357421875
3.0405761718749997
3.0365478515624997
3.0421875
3.037353515625
3.005126953125
2.9994873046875
2.9575927734375
3.0365478515624997
3.037353515625
3.037353515625
3.0365478515624997
3.0365478515624997
3.0365478515624997
1.0175537109375
0.0298095703125
0.0314208984375
0.0314208984375
0.030615234374999998
0.0314208984375
0.030615234374999998
0.0322265625
0.0346435546875
0.030615234374999998
0.030615234374999998
0.030615234374999998
0.0314208984375
0.0314208984375
0.0298095703125
0.033032226562499996
0.030615234374999998
0.03544921875
0.030615234374999998
0.0298095703125
0.03544921875
0.030615234374999998
1.6532226562499999
2.8190185546874997
3.0381591796875
3.0349365234374996
3.037353515625
3.037353515625
3.037353515625
3.0365478515624997
3.0413818359375
3.034130859375
3.0357421875
3.037353515625
3.0268798828124996
2.9455078125
3.0381591796875
3.0397705078125
3.034130859375
3.0357421875
3.0301025390625
3.0365478515624997
3.0494384765625
0.0298095703125
0.030615234374999998
0.0322265625
0.02900390625
0.030615234374999998
0.0314208984375
0.0314208984375
0.0314208984375
0.0314208984375
0.030615234374999998
0.026586914062499998
0.030615234374999998
0.030615234374999998
0.0314208984375
0.030615234374999998
0.030615234374999998
0.033032226562499996
0.033837890625
0.0314208984375
0.0314208984375
0.0281982421875
0.0314208984375
2.4991699218749996
3.0397705078125
3.0357421875
3.037353515625
3.037353515625
3.0325195312499997
3.0389648437499996
3.0381591796875
3.0389648437499996
3.037353515625
3.0389648437499996
3.037353515625
3.0164062499999997
3.037353515625
3.0333251953125
3.0389648437499996
3.0365478515624997
3.0365478515624997
3.0381591796875
3.037353515625
0.6002197265625
0.0281982421875
0.0314208984375
0.030615234374999998
0.0298095703125
0.030615234374999998
0.0322265625
0.0298095703125
0.030615234374999998
0.0281982421875
0.033032226562499996
0.0314208984375
0.033032226562499996
0.0298095703125
0.026586914062499998
0.030615234374999998
0.0346435546875
0.03544921875
0.0314208984375
0.030615234374999998
0.0314208984375
0.030615234374999998
1.8216064453124998
2.779541015625
3.0357421875
3.0349365234374996
3.0381591796875
3.0421875
3.0333251953125
3.037353515625
3.037353515625
3.037353515625
3.0413818359375
3.0389648437499996
3.037353515625
3.034130859375
3.0389648437499996
3.037353515625
3.037353515625
3.034130859375
3.0381591796875
3.034130859375
1.6330810546874999
0.030615234374999998
0.03544921875
0.0298095703125
0.0298095703125
0.030615234374999998
0.03544921875
0.030615234374999998
0.0322265625
0.027392578124999997
0.0298095703125
0.0281982421875
0.030615234374999998
0.0298095703125
0.027392578124999997
0.0314208984375
0.0322265625
0.030615234374999998
0.0322265625
0.030615234374999998
0.03544921875
0.027392578124999997
1.6306640625
2.473388671875
3.0381591796875
3.0365478515624997
3.037353515625
3.037353515625
3.037353515625
3.0349365234374996
3.0389648437499996
3.037353515625
3.0421875
3.037353515625
3.034130859375
3.0357421875
3.0389648437499996
3.0349365234374996
3.0365478515624997
3.0389648437499996
3.0333251953125
3.0389648437499996
3.0421875
0.11359863281249999
0.0314208984375
0.0322265625
0.0322265625
0.0362548828125
0.0314208984375
0.030615234374999998
0.0314208984375
0.033837890625
0.030615234374999998
0.030615234374999998
0.030615234374999998
0.02900390625
0.0322265625
0.030615234374999998
0.0314208984375
0.0322265625
0.0314208984375
0.0314208984375
0.0298095703125
0.033837890625
0.03544921875
2.2510253906249997
3.034130859375
3.0357421875
3.037353515625
3.0357421875
3.0381591796875
3.034130859375
3.0405761718749997
3.0550781249999996
3.034130859375
3.0333251953125
3.0349365234374996
2.95517578125
3.037353515625
3.0365478515624997
3.0365478515624997
3.0397705078125
3.0365478515624997
3.037353515625
3.0413818359375
1.0642822265625
0.02900390625
0.0298095703125
0.0322265625
0.033032226562499996
0.033032226562499996
0.0314208984375
0.0322265625
0.0314208984375
0.026586914062499998
0.0322265625
0.0298095703125
0.0322265625
0.030615234374999998
0.0322265625
0.0298095703125
0.030615234374999998
0.030615234374999998
0.030615234374999998
0.0314208984375
0.030615234374999998
0.0314208984375
1.4606689453125
2.60068359375
3.037353515625
3.037353515625
3.037353515625
3.0389648437499996
3.0357421875
3.037353515625
3.037353515625
3.0405761718749997
3.0365478515624997
3.0381591796875
3.0075439453125
2.9156982421874997
3.0381591796875
3.037353515625
3.0325195312499997
3.0357421875
3.0357421875
3.0365478515624997
1.197216796875
0.0322265625
0.0314208984375
0.0322265625
0.030615234374999998
0.0322265625
0.030615234374999998
0.0322265625
0.030615234374999998
0.02900390625
0.0314208984375
0.0314208984375
0.0298095703125
0.0346435546875
0.030615234374999998
0.030615234374999998
0.0298095703125
0.02900390625
0.027392578124999997
0.0298095703125
0.0314208984375
0.030615234374999998
0.193359375
2.312255859375
3.0397705078125
3.0349365234374996
3.0405761718749997
3.0381591796875
3.037353515625
3.037353515625
3.0421875
3.0365478515624997
3.0357421875
3.037353515625
3.0397705078125
3.005126953125
3.037353515625
3.0357421875
3.0357421875
3.0381591796875
3.0349365234374996
3.0365478515624997
3.0365478515624997
0.7742431640624999
0.030615234374999998
0.030615234374999998
0.0314208984375
0.0314208984375
0.02900390625
0.0322265625
0.0314208984375
0.0314208984375
0.0298095703125
0.0378662109375
0.0314208984375
0.02578125
0.026586914062499998
0.0314208984375
0.02900390625
0.0346435546875
0.026586914062499998
0.030615234374999998
0.0322265625
0.0281982421875
0.03544921875
2.212353515625
3.0365478515624997
3.0405761718749997
3.034130859375
3.037353515625
3.0389648437499996
3.034130859375
3.0381591796875
3.0333251953125
3.0405761718749997
3.0381591796875
2.969677734375
2.9946533203124996
2.8963623046875
3.0325195312499997
3.037353515625
3.037353515625
3.0381591796875
3.037353515625
3.034130859375
1.2608642578125
0.030615234374999998
0.033032226562499996
0.0322265625
0.0314208984375
0.0322265625
0.02900390625
0.027392578124999997
0.02900390625
0.0322265625
0.0298095703125
0.030615234374999998
0.02900390625
0.0322265625
0.0314208984375
0.030615234374999998
0.03544921875
0.0314208984375
0.02900390625
0.033837890625
0.0362548828125
0.0322265625
1.9037841796875
2.7561767578125
3.0389648437499996
3.0389648437499996
3.037353515625
3.0365478515624997
3.0333251953125
3.037353515625
3.0365478515624997
3.0397705078125
3.0397705078125
3.0389648437499996
2.98095703125
2.8955566406249997
3.0381591796875
3.034130859375
3.0381591796875
3.037353515625
3.0349365234374996
3.037353515625
3.0381591796875
0.28037109374999997
0.030615234374999998
0.0314208984375
0.0298095703125
0.0314208984375
0.0322265625
0.0346435546875
0.0346435546875
0.0314208984375
0.0281982421875
0.030615234374999998
0.0314208984375
0.030615234374999998
0.030615234374999998
0.030615234374999998
0.0322265625
0.033837890625
0.0314208984375
0.0322265625
0.0298095703125
0.030615234374999998
0.0314208984375
2.1793212890625
3.037353515625
3.0349365234374996
3.034130859375
3.037353515625
3.0333251953125
3.0389648437499996
3.0365478515624997
3.037353515625
3.0397705078125
3.0389648437499996
3.0349365234374996
2.9422851562499996
3.0333251953125
3.0357421875
3.0357421875
3.0365478515624997
3.0381591796875
3.037353515625
3.0381591796875
1.6379150390625
0.0322265625
0.0314208984375
0.0281982421875
0.030615234374999998
0.033032226562499996
0.0314208984375
0.0298095703125
0.0314208984375
0.030615234374999998
0.030615234374999998
0.0298095703125
0.030615234374999998
0.0314208984375
0.0314208984375
0.030615234374999998
0.0298095703125
0.0314208984375
0.0322265625
0.0314208984375
0.0346435546875
0.030615234374999998
1.6910888671875
2.818212890625
3.0397705078125
3.037353515625
3.0365478515624997
3.0333251953125
3.0333251953125
3.0389648437499996
3.0397705078125
3.037353515625
3.037353515625
3.0365478515624997
3.0043212890624997
2.8947509765625
3.0357421875
3.0357421875
3.0365478515624997
3.037353515625
3.0365478515624997
3.037353515625
2.064111328125
0.0346435546875
0.033032226562499996
0.0322265625
0.0314208984375
0.0314208984375
0.0314208984375
0.030615234374999998
0.03544921875
0.0314208984375
0.0281982421875
0.033032226562499996
0.0322265625
0.0314208984375
0.030615234374999998
0.033032226562499996
0.0314208984375
0.033837890625
0.0314208984375
0.0322265625
0.0314208984375
0.0322265625
1.635498046875
2.505615234375
3.0381591796875
3.0365478515624997
3.0397705078125
3.037353515625
3.037353515625
3.0333251953125
3.0421875
3.034130859375
3.0309082031249996
3.0405761718749997
2.9962646484374997
3.0002929687499997
3.034130859375
3.0381591796875
3.0389648437499996
3.0349365234374996
3.0357421875
3.034130859375
3.0405761718749997
0.3440185546875
0.027392578124999997
0.0346435546875
0.0298095703125
0.0314208984375
0.030615234374999998
0.0322265625
0.0322265625
0.033837890625
0.0314208984375
0.02578125
0.0314208984375
0.0314208984375
0.0322265625
0.0346435546875
0.0314208984375
0.033837890625
0.0314208984375
0.033837890625
0.0314208984375
0.0322265625
0.02578125
2.1068115234375
3.0389648437499996
3.0405761718749997
3.0365478515624997
3.0389648437499996
3.0357421875
3.037353515625
3.0365478515624997
3.0397705078125
3.0357421875
3.0389648437499996
3.0309082031249996
3.0075439453125
3.0365478515624997
3.0357421875
3.037353515625
3.037353515625
3.0365478515624997
3.0365478515624997
3.0252685546875
1.2914794921875
0.0322265625
0.02900390625
0.0322265625
0.0322265625
0.0314208984375
0.0281982421875
0.0346435546875
0.0314208984375
0.0298095703125
0.0322265625
0.0314208984375
0.030615234374999998
0.0314208984375
0.0322265625
0.030615234374999998
0.03544921875
0.030615234374999998
0.0322265625
0.0298095703125
0.0346435546875
0.033032226562499996
1.73056640625
3.0365478515624997
3.0349365234374996
3.037353515625
3.0357421875
3.0365478515624997
3.0333251953125
3.0357421875
3.0405761718749997
3.0365478515624997
3.0357421875
3.037353515625
3.037353515625
3.0365478515624997
3.037353515625
3.0309082031249996
3.037353515625
3.0365478515624997
3.037353515625
3.0413818359375
2.6192138671875
0.0314208984375
0.02900390625
0.0362548828125
0.0298095703125
0.033032226562499996
0.033032226562499996
0.0322265625
0.0314208984375
0.0298095703125
0.0314208984375
0.027392578124999997
0.0314208984375
0.0322265625
0.0322265625
0.0314208984375
0.0314208984375
0.0314208984375
0.033837890625
0.033837890625
0.033837890625
0.030615234374999998
0.862060546875
2.2856689453125
3.0381591796875
3.0405761718749997
3.0333251953125
3.037353515625
3.0357421875
3.0381591796875
3.0325195312499997
3.0365478515624997
3.0381591796875
3.037353515625
3.0381591796875
3.034130859375
3.037353515625
3.0325195312499997
3.0325195312499997
3.0381591796875
3.034130859375
3.037353515625
3.037353515625
0.34965820312499996
0.0314208984375
0.0314208984375
0.030615234374999998
0.033032226562499996
0.0314208984375
0.0298095703125
0.033032226562499996
0.0298095703125
0.0314208984375
0.0314208984375
0.030615234374999998
0.0314208984375
0.033032226562499996
0.0298095703125
0.0322265625
0.0298095703125
0.0346435546875
0.033032226562499996
0.0298095703125
0.027392578124999997
0.0322265625
1.554931640625
2.8609130859375
3.0349365234374996
3.0333251953125
3.0405761718749997
3.0357421875
3.0381591796875
3.037353515625
3.037353515625
3.0357421875
3.0357421875
3.0357421875
3.0389648437499996
3.0357421875
3.0397705078125
3.037353515625
3.037353515625
3.0381591796875
3.0389648437499996
3.0357421875
1.5202880859374999
0.0314208984375
0.030615234374999998
0.0281982421875
0.0314208984375
0.0314208984375
0.027392578124999997
0.0314208984375
0.033032226562499996
0.0314208984375
0.0314208984375
0.0314208984375
0.0314208984375
0.030615234374999998
0.033837890625
0.0314208984375
0.0322265625
0.033837890625
0.02900390625
0.0314208984375
0.0322265625
0.0314208984375
1.5484863281249999
2.7247558593749996
3.0397705078125
3.0389648437499996
3.0389648437499996
3.037353515625
3.037353515625
3.0389648437499996
3.0349365234374996
3.0405761718749997
3.0421875
3.037353515625
3.0381591796875
3.0357421875
3.0389648437499996
3.037353515625
3.0357421875
3.037353515625
3.0389648437499996
3.0397705078125
1.980322265625
0.030615234374999998
0.030615234374999998
0.030615234374999998
0.0298095703125
0.030615234374999998
0.030615234374999998
0.033837890625
0.030615234374999998
0.0314208984375
0.030615234374999998
0.030615234374999998
0.0314208984375
0.030615234374999998
0.0298095703125
0.0346435546875
0.0298095703125
0.030615234374999998
0.033837890625
0.0314208984375
0.0314208984375
0.0322265625
0.913623046875
2.2276611328125
3.0365478515624997
3.0389648437499996
3.0365478515624997
3.0365478515624997
3.0389648437499996
3.037353515625
3.0365478515624997
3.0365478515624997
3.037353515625
3.037353515625
3.037353515625
3.0357421875
3.0397705078125
3.0389648437499996
3.0365478515624997
3.0397705078125
3.037353515625
3.037353515625
3.0381591796875
0.29326171875
0.0314208984375
0.0298095703125
0.033032226562499996
0.030615234374999998
0.027392578124999997
0.0314208984375
0.0314208984375
0.0322265625
0.030615234374999998
0.0314208984375
0.0346435546875
0.0314208984375
0.0322265625
0.030615234374999998
0.030615234374999998
0.0298095703125
0.030615234374999998
0.0314208984375
0.030615234374999998
0.0322265625
0.0314208984375
1.9674316406249999
2.9205322265625
3.037353515625
3.037353515625
3.0405761718749997
3.0413818359375
3.0365478515624997
3.0325195312499997
3.0413818359375
3.0397705078125
3.037353515625
3.0333251953125
3.0381591796875
3.0389648437499996
3.0389648437499996
3.0357421875
3.037353515625
3.0365478515624997
3.037353515625
3.037353515625
1.416357421875
0.030615234374999998
0.0298095703125
0.03544921875
0.030615234374999998
0.030615234374999998
0.0281982421875
0.02900390625
0.030615234374999998
0.030615234374999998
0.0322265625
0.0346435546875
0.030615234374999998
0.033032226562499996
0.030615234374999998
0.0314208984375
0.0346435546875
0.0314208984375
0.0314208984375
0.033032226562499996
0.033032226562499996
0.0322265625
1.3591552734374999
2.689306640625
3.0397705078125
3.0381591796875
3.0365478515624997
3.0284912109374997
3.0365478515624997
3.0365478515624997
3.0357421875
3.0381591796875
3.0389648437499996
3.0381591796875
3.037353515625
3.0357421875
3.037353515625
3.0405761718749997
3.0365478515624997
3.0381591796875
3.0357421875
3.034130859375
1.5758789062499998
0.030615234374999998
0.0314208984375
0.0281982421875
0.030615234374999998
0.027392578124999997
0.0314208984375
0.015307617187499999
0.0346435546875
0.0314208984375
0.0298095703125
0.033032226562499996
0.0314208984375
0.027392578124999997
0.0314208984375
0.033032226562499996
0.0322265625
0.027392578124999997
0.030615234374999998
0.033837890625
0.030615234374999998
0.0322265625
1.2850341796875
2.289697265625
3.0309082031249996
3.0365478515624997
3.0365478515624997
3.0357421875
3.034130859375
3.037353515625
3.0405761718749997
3.0381591796875
3.0381591796875
3.0381591796875
3.037353515625
3.037353515625
3.0389648437499996
3.0365478515624997
3.0365478515624997
3.0381591796875
3.0389648437499996
3.0365478515624997
2.1849609375
0.0910400390625
0.030615234374999998
0.0314208984375
0.0314208984375
0.033032226562499996
0.033837890625
0.033032226562499996
0.033837890625
0.0314208984375
0.030615234374999998
0.0298095703125
0.0314208984375
0.0314208984375
0.033032226562499996
0.030615234374999998
0.033032226562499996
0.0362548828125
0.027392578124999997
0.0314208984375
0.030615234374999998
0.0298095703125
0.0314208984375
2.205908203125
3.0389648437499996
3.0365478515624997
3.0357421875
3.037353515625
3.0397705078125
3.037353515625
3.0357421875
3.0381591796875
3.0357421875
3.037353515625
3.037353515625
3.0381591796875
3.0405761718749997
3.037353515625
3.0365478515624997
3.0381591796875
3.0365478515624997
3.0365478515624997
3.037353515625
1.4115234374999999
0.0314208984375
0.027392578124999997
0.033837890625
0.033032226562499996
0.030615234374999998
0.0314208984375
0.0281982421875
0.0298095703125
0.0314208984375
0.0298095703125
0.030615234374999998
0.030615234374999998
0.0314208984375
0.03544921875
0.0314208984375
0.0322265625
0.0322265625
0.030615234374999998
0.0346435546875
0.033032226562499996
0.02900390625
2.0069091796875
2.9430908203125
3.0389648437499996
3.0365478515624997
3.037353515625
3.037353515625
3.0357421875
3.037353515625
3.0405761718749997
3.0365478515624997
3.0365478515624997
3.0357421875
3.037353515625
3.0357421875
3.0357421875
3.0357421875
3.0357421875
3.0365478515624997
3.0389648437499996
3.037353515625
1.703173828125
0.0314208984375
0.030615234374999998
0.02900390625
0.0314208984375
0.0322265625
0.0314208984375
0.0314208984375
0.030615234374999998
0.02900390625
0.033837890625
0.0314208984375
0.030615234374999998
0.030615234374999998
0.0314208984375
0.0322265625
0.030615234374999998
0.0298095703125
0.033837890625
0.0314208984375
0.033837890625
0.030615234374999998
1.281005859375
2.3533447265625
3.0357421875
3.0421875
3.037353515625
3.0365478515624997
3.034130859375
3.0397705078125
3.0349365234374996
3.0389648437499996
3.037353515625
3.0397705078125
3.0284912109374997
3.0389648437499996
3.0365478515624997
3.037353515625
3.037353515625
3.0397705078125
3.034130859375
3.0381591796875
2.0794189453125
0.124072265625
0.0314208984375
0.0298095703125
0.0281982421875
0.030615234374999998
0.0322265625
0.0314208984375
0.04189453125
0.0298095703125
0.0322265625
0.0314208984375
0.0346435546875
0.0314208984375
0.0314208984375
0.033032226562499996
0.027392578124999997
0.0314208984375
0.0314208984375
0.030615234374999998
0.0322265625
0.02900390625
0.030615234374999998
2.1229248046875
3.0357421875
3.037353515625
3.034130859375
3.034130859375
3.0357421875
3.037353515625
3.0381591796875
3.0405761718749997
3.0365478515624997
3.0381591796875
3.0357421875
3.0365478515624997
3.037353515625
3.0333251953125
3.0389648437499996
3.0365478515624997
3.0381591796875
3.037353515625
3.034130859375
1.2818115234374998
0.0346435546875
0.0322265625
0.0322265625
0.033837890625
0.0314208984375
0.0314208984375
0.0281982421875
0.0322265625
0.033032226562499996
0.0281982421875
0.0322265625
0.0314208984375
0.0281982421875
0.0346435546875
0.030615234374999998
0.0298095703125
0.030615234374999998
0.0322265625
0.0314208984375
0.0314208984375
0.0314208984375
1.9537353515625
2.92939453125
3.0381591796875
3.0365478515624997
3.0405761718749997
3.0357421875
3.0381591796875
3.0421875
3.0397705078125
3.0365478515624997
3.0389648437499996
3.037353515625
3.034130859375
3.0365478515624997
3.0405761718749997
3.0389648437499996
3.0381591796875
3.0333251953125
3.0381591796875
3.0389648437499996
2.0197998046875
0.0322265625
0.026586914062499998
0.0346435546875
0.0314208984375
0.033837890625
0.0346435546875
0.02900390625
0.0298095703125
0.027392578124999997
0.030615234374999998
0.030615234374999998
0.030615234374999998
0.0298095703125
0.0314208984375
0.030615234374999998
0.0314208984375
0.0314208984375
0.0314208984375
0.03544921875
0.030615234374999998
0.0322265625
1.2834228515625
2.3638183593749997
3.0365478515624997
3.0357421875
3.0405761718749997
3.037353515625
3.037353515625
3.0365478515624997
3.037353515625
3.0365478515624997
3.037353515625
3.0357421875
3.037353515625
3.0357421875
3.0397705078125
3.037353515625
3.0325195312499997
3.0357421875
3.0365478515624997
3.0365478515624997
2.0584716796875
0.057202148437499996
0.033032226562499996
0.0314208984375
0.0322265625
0.0346435546875
0.0314208984375
0.030615234374999998
0.0314208984375
0.030615234374999998
0.030615234374999998
0.0314208984375
0.0314208984375
0.030615234374999998
0.030615234374999998
0.030615234374999998
0.030615234374999998
0.0322265625
0.0281982421875
0.0298095703125
0.0314208984375
0.0314208984375
0.0314208984375
2.1333984375
3.0381591796875
3.0381591796875
3.0365478515624997
3.0389648437499996
3.0365478515624997
3.0349365234374996
3.037353515625
3.037353515625
3.037353515625
3.037353515625
3.0389648437499996
3.034130859375
3.0389648437499996
3.0381591796875
3.037353515625
3.037353515625
3.0405761718749997
3.0325195312499997
3.0365478515624997
1.1496826171874999
0.0322265625
0.030615234374999998
0.033032226562499996
0.0314208984375
0.030615234374999998
0.033837890625
0.0322265625
0.030615234374999998
0.0314208984375
0.027392578124999997
0.030615234374999998
0.0298095703125
0.0314208984375
0.0314208984375
0.0314208984375
0.030615234374999998
0.0298095703125
0.0298095703125
0.030615234374999998
0.033837890625
0.0322265625
1.3124267578125
2.827880859375
3.037353515625
3.0325195312499997
3.0397705078125
3.0389648437499996
3.0365478515624997
3.0357421875
3.0365478515624997
3.0381591796875
3.034130859375
3.0349365234374996
3.037353515625
3.0357421875
3.037353515625
3.0365478515624997
3.037353515625
3.037353515625
3.037353515625
3.0357421875
1.9078125
0.02900390625
0.030615234374999998
0.033837890625
0.0322265625
0.0322265625
0.0314208984375
0.030615234374999998
0.0314208984375
0.030615234374999998
0.026586914062499998
0.0322265625
0.030615234374999998
0.0314208984375
0.033032226562499996
0.033837890625
0.0346435546875
0.030615234374999998
0.033837890625
0.030615234374999998
0.033837890625
0.02578125
1.3140380859374998
2.4927246093749997
3.0365478515624997
3.0365478515624997
3.0357421875
3.037353515625
3.0389648437499996
3.034130859375
3.0365478515624997
3.0333251953125
3.0389648437499996
3.0365478515624997
3.037353515625
3.0389648437499996
3.0365478515624997
3.0413818359375
3.034130859375
3.0397705078125
3.0381591796875
3.037353515625
2.060888671875
0.0322265625
0.02900390625
0.0322265625
0.030615234374999998
0.030615234374999998
0.030615234374999998
0.033032226562499996
0.033032226562499996
0.030615234374999998
0.030615234374999998
0.0314208984375
0.0314208984375
0.0322265625
0.0314208984375
0.0298095703125
0.0314208984375
0.0322265625
0.0314208984375
0.0314208984375
0.0346435546875
0.0322265625
0.0314208984375
1.7724609375
2.924560546875
3.0381591796875
3.0365478515624997
3.0357421875
3.034130859375
3.0389648437499996
3.037353515625
3.0381591796875
3.0365478515624997
3.037353515625
3.037353515625
3.0349365234374996
3.0357421875
3.0365478515624997
3.037353515625
3.037353515625
3.037353515625
3.0357421875
3.0389648437499996
0.9353759765624999
0.0314208984375
0.03544921875
0.030615234374999998
0.027392578124999997
0.0314208984375
0.030615234374999998
0.0346435546875
0.0322265625
0.0314208984375
0.0314208984375
0.0314208984375
0.0314208984375
0.030615234374999998
0.02900390625
0.033032226562499996
0.027392578124999997
0.0298095703125
0.0314208984375
0.0281982421875
0.0322265625
0.0346435546875
1.1287353515625
2.5007812499999997
3.034130859375
3.037353515625
3.0365478515624997
3.037353515625
3.0381591796875
3.037353515625
3.0333251953125
3.0381591796875
3.0349365234374996
3.0381591796875
3.037353515625
3.034130859375
3.034130859375
3.0389648437499996
3.0349365234374996
3.0389648437499996
3.0357421875
3.0365478515624997
2.03994140625
0.0322265625
0.0314208984375
0.0346435546875
0.0346435546875
0.030615234374999998
0.0322265625
0.0314208984375
0.027392578124999997
0.0281982421875
0.0281982421875
0.026586914062499998
0.0314208984375
0.03544921875
0.0314208984375
0.0281982421875
0.030615234374999998
0.0314208984375
0.0314208984375
0.0314208984375
0.030615234374999998
0.033032226562499996
1.2052734375
2.2324951171875
2.94873046875
3.0381591796875
3.034130859375
3.0365478515624997
3.0381591796875
3.0365478515624997
3.034130859375
3.037353515625
3.0381591796875
3.0365478515624997
3.0325195312499997
3.037353515625
3.0381591796875
3.0349365234374996
3.0405761718749997
3.0381591796875
3.0357421875
3.0357421875
1.8498046874999998
0.027392578124999997
0.033837890625
0.0322265625
0.0322265625
0.0322265625
0.033837890625
0.0314208984375
0.033032226562499996
0.0314208984375
0.0322265625
0.033837890625
0.033837890625
0.0249755859375
0.030615234374999998
0.0314208984375
0.0314208984375
0.030615234374999998
0.030615234374999998
0.030615234374999998
0.0314208984375
0.0281982421875
0.0314208984375
1.8296630859374998
2.92939453125
3.037353515625
3.0357421875
3.0381591796875
3.0365478515624997
3.0405761718749997
3.0365478515624997
3.0381591796875
3.037353515625
3.0357421875
3.0389648437499996
3.0365478515624997
3.037353515625
3.0365478515624997
3.0381591796875
3.0381591796875
3.0357421875
3.0389648437499996
3.0357421875
0.597802734375
0.0314208984375
0.0298095703125
0.0346435546875
0.030615234374999998
0.033032226562499996
0.033837890625
0.0298095703125
0.033032226562499996
0.0314208984375
0.033837890625
0.0314208984375
0.0314208984375
0.033837890625
0.0322265625
0.033032226562499996
0.027392578124999997
0.030615234374999998
0.0314208984375
0.0314208984375
0.0314208984375
0.0346435546875
1.8111328125
2.63935546875
3.0357421875
3.037353515625
3.0389648437499996
3.037353515625
3.0333251953125
3.0405761718749997
3.037353515625
3.037353515625
3.0389648437499996
3.0413818359375
3.0333251953125
3.037353515625
3.037353515625
3.0357421875
3.0365478515624997
3.0389648437499996
3.037353515625
3.0333251953125
1.7587646484375
0.027392578124999997
0.02900390625
0.03544921875
0.030615234374999998
0.0322265625
0.033837890625
0.0281982421875
0.033837890625
0.0298095703125
0.027392578124999997
0.0314208984375
0.0346435546875
0.0346435546875
0.0322265625
0.0322265625
0.033032226562499996
0.0346435546875
0.033032226562499996
0.0314208984375
0.0314208984375
0.0314208984375
1.2890625
2.2913085937499997
3.0156005859375
3.037353515625
3.0405761718749997
3.0397705078125
3.0389648437499996
3.0349365234374996
3.037353515625
3.037353515625
3.0325195312499997
3.0381591796875
3.0381591796875
3.0381591796875
3.0397705078125
3.037353515625
3.034130859375
3.0389648437499996
3.0357421875
3.037353515625
1.9352050781249999
0.0298095703125
0.0314208984375
0.0322265625
0.0298095703125
0.0314208984375
0.033032226562499996
0.0322265625
0.0298095703125
0.0322265625
0.0314208984375
0.0314208984375
0.0298095703125
0.0298095703125
0.0322265625
0.033032226562499996
0.030615234374999998
0.0314208984375
0.0314208984375
0.033837890625
0.0314208984375
0.0322265625
0.0314208984375
1.7926025390625
2.827880859375
3.0357421875
3.0381591796875
3.037353515625
3.0413818359375
3.0381591796875
3.037353515625
3.0381591796875
3.0365478515624997
3.037353515625
3.0357421875
3.0381591796875
3.0389648437499996
3.0365478515624997
3.0365478515624997
3.0357421875
3.0357421875
3.0405761718749997
3.034130859375
0.346435546875
0.0322265625
0.0322265625
0.027392578124999997
0.030615234374999998
0.030615234374999998
0.0314208984375
0.0298095703125
0.033837890625
0.0314208984375
0.0314208984375
0.0322265625
0.0298095703125
0.027392578124999997
0.0346435546875
0.0298095703125
0.0281982421875
0.0314208984375
0.0314208984375
0.0298095703125
0.0249755859375
0.033032226562499996
1.3905761718749998
2.281640625
2.8657470703124996
3.0357421875
3.0397705078125
3.037353515625
3.0357421875
3.0381591796875
3.0357421875
3.0421875
3.0389648437499996
3.0389648437499996
3.0357421875
3.037353515625
3.0365478515624997
3.0381591796875
3.037353515625
3.0357421875
3.0381591796875
3.0365478515624997
1.571044921875
0.030615234374999998
0.0314208984375
0.03544921875
0.03544921875
0.0322265625
0.030615234374999998
0.0314208984375
0.0314208984375
0.0314208984375
0.033032226562499996
0.033837890625
0.0322265625
0.030615234374999998
0.0314208984375
0.0322265625
0.0314208984375
0.0322265625
0.030615234374999998
0.02900390625
0.0346435546875
0.0322265625
1.2350830078125
2.2051025390625
2.824658203125
3.0325195312499997
3.0365478515624997
3.0357421875
3.034130859375
3.0357421875
3.0381591796875
3.0357421875
3.037353515625
3.037353515625
3.0357421875
3.034130859375
3.037353515625
3.037353515625
3.0397705078125
3.0349365234374996
3.0349365234374996
3.0325195312499997
1.585546875
0.027392578124999997
0.0322265625
0.0314208984375
0.0314208984375
0.0314208984375
0.0314208984375
0.0314208984375
0.0314208984375
0.033837890625
0.0346435546875
0.030615234374999998
0.0314208984375
0.030615234374999998
0.033032226562499996
0.030615234374999998
0.0314208984375
0.0217529296875
0.0314208984375
0.03544921875
0.027392578124999997
0.0298095703125
0.0322265625
1.6886718749999998
2.5330078124999997
3.037353515625
3.0349365234374996
3.037353515625
3.037353515625
3.0381591796875
3.0389648437499996
3.0389648437499996
3.037353515625
3.037353515625
3.037353515625
3.0357421875
3.0365478515624997
3.0365478515624997
3.0389648437499996
3.037353515625
3.0365478515624997
3.037353515625
2.263916015625
0.1611328125
0.0346435546875
0.0322265625
0.03544921875
0.030615234374999998
0.0314208984375
0.03544921875
0.0298095703125
0.0314208984375
0.0322265625
0.0298095703125
0.0298095703125
0.030615234374999998
0.027392578124999997
0.0322265625
0.033837890625
0.030615234374999998
0.030615234374999998
0.0322265625
0.026586914062499998
0.0346435546875
0.0314208984375
1.4034667968749999
2.6272705078125
3.037353515625
3.0357421875
3.0389648437499996
3.0381591796875
3.0397705078125
3.0389648437499996
3.037353515625
3.0381591796875
3.0381591796875
3.0357421875
3.037353515625
3.0381591796875
3.034130859375
3.037353515625
3.037353515625
3.0381591796875
3.037353515625
3.0389648437499996
1.239111328125
0.0314208984375
0.027392578124999997
0.0322265625
0.033032226562499996
0.0314208984375
0.027392578124999997
0.030615234374999998
0.0322265625
0.027392578124999997
0.0298095703125
0.030615234374999998
0.027392578124999997
0.030615234374999998
0.0314208984375
0.0314208984375
0.027392578124999997
0.033032226562499996
0.030615234374999998
0.030615234374999998
0.0314208984375
0.033032226562499996
1.1617675781249999
2.2582763671875
2.834326171875
3.034130859375
3.0357421875
3.0365478515624997
3.0357421875
3.0381591796875
3.0357421875
3.037353515625
3.037353515625
3.0381591796875
3.0381591796875
3.0397705078125
3.0389648437499996
3.0365478515624997
3.0349365234374996
3.037353515625
3.037353515625
3.0365478515624997
1.3148437499999999
0.02900390625
0.0281982421875
0.0346435546875
0.030615234374999998
0.0314208984375
0.02900390625
0.033032226562499996
0.027392578124999997
0.030615234374999998
0.030615234374999998
0.030615234374999998
0.033837890625
0.027392578124999997
0.027392578124999997
0.0346435546875
0.030615234374999998
0.030615234374999998
0.033837890625
0.0314208984375
0.030615234374999998
0.030615234374999998
0.033837890625
1.7450683593749998
2.7521484375
3.0365478515624997
3.0405761718749997
3.037353515625
3.0405761718749997
3.0357421875
3.0365478515624997
3.0389648437499996
3.0397705078125
3.0333251953125
3.0349365234374996
3.0325195312499997
3.0357421875
3.0349365234374996
3.037353515625
3.037353515625
3.0381591796875
3.0389648437499996
1.3704345703124998
0.030615234374999998
0.030615234374999998
0.0298095703125
0.0314208984375
0.030615234374999998
0.033837890625
0.0322265625
0.0346435546875
0.0298095703125
0.030615234374999998
0.0298095703125
0.0314208984375
0.0314208984375
0.0322265625
0.030615234374999998
0.0322265625
0.033032226562499996
0.030615234374999998
0.0322265625
0.0298095703125
0.03544921875
0.033837890625
1.40830078125
2.6441894531249996
3.034130859375
3.0357421875
3.037353515625
3.0381591796875
3.0405761718749997
3.037353515625
3.037353515625
3.0413818359375
3.0381591796875
3.0365478515624997
3.0357421875
3.0397705078125
3.0389648437499996
3.037353515625
3.037353515625
3.037353515625
3.0365478515624997
3.037353515625
0.5865234375
0.030615234374999998
0.0314208984375
0.0314208984375
0.0298095703125
0.0314208984375
0.0322265625
0.0314208984375
0.0298095703125
0.030615234374999998
0.02900390625
0.027392578124999997
0.030615234374999998
0.0322265625
0.0322265625
0.0322265625
0.0346435546875
0.0298095703125
0.033032226562499996
0.033032226562499996
0.030615234374999998
0.033837890625
1.297119140625
2.3614013671875
2.905224609375
3.0413818359375
3.0357421875
3.0357421875
3.0357421875
3.0357421875
3.0365478515624997
3.037353515625
3.037353515625
3.0397705078125
3.037353515625
3.0389648437499996
3.0357421875
3.037353515625
3.0381591796875
3.0413818359375
3.034130859375
3.0365478515624997
0.7323486328125
0.0281982421875
0.030615234374999998
0.0314208984375
0.0346435546875
0.0322265625
0.030615234374999998
0.0314208984375
0.0314208984375
0.0298095703125
0.027392578124999997
0.0314208984375
0.0314208984375
0.0322265625
0.030615234374999998
0.030615234374999998
0.033032226562499996
0.02900390625
0.0314208984375
0.027392578124999997
0.033032226562499996
0.0298095703125
0.0322265625
1.7200927734375
2.4991699218749996
3.0357421875
3.0317138671875
3.0365478515624997
3.0381591796875
3.0349365234374996
3.0381591796875
3.0365478515624997
3.0397705078125
3.037353515625
3.037353515625
3.0357421875
3.0397705078125
3.034130859375
3.0357421875
3.0381591796875
3.0357421875
3.0397705078125
1.7055908203124999
0.030615234374999998
0.030615234374999998
0.0322265625
0.0322265625
0.027392578124999997
0.0298095703125
0.0314208984375
0.0314208984375
0.0346435546875
0.0314208984375
0.033837890625
0.030615234374999998
0.030615234374999998
0.0322265625
0.030615234374999998
0.033032226562499996
0.0314208984375
0.0314208984375
0.030615234374999998
0.0322265625
0.030615234374999998
0.027392578124999997
1.2866455078124999
2.466943359375
2.9592041015625
3.0381591796875
3.0349365234374996
3.0365478515624997
3.0413818359375
3.037353515625
3.0389648437499996
3.0365478515624997
3.034130859375
3.0381591796875
3.0381591796875
3.0389648437499996
3.0389648437499996
3.0397705078125
3.0349365234374996
3.0349365234374996
3.037353515625
2.4758056640625
0.1393798828125
0.0314208984375
0.0281982421875
0.0281982421875
0.0314208984375
0.026586914062499998
0.02900390625
0.02900390625
0.0298095703125
0.0298095703125
