0.0322265625
0.033032226562499996
0.033032226562499996
0.0322265625
0.033837890625
0.0298095703125
0.033032226562499996
0.030615234374999998
0.0346435546875
2.2582763671875
3.027685546875
3.0397705078125
3.0405761718749997
3.0397705078125
3.0421875
3.0397705078125
3.0389648437499996
3.0429931640624996
3.0357421875
3.037353515625
3.0244628906249997
2.8560791015625
2.8883056640625
3.0389648437499996
3.0389648437499996
3.0349365234374996
3.0381591796875
3.0397705078125
3.0381591796875
1.8006591796875
0.033032226562499996
0.0314208984375
0.03544921875
0.0322265625
0.0346435546875
0.03544921875
0.033032226562499996
0.033032226562499996
0.0322265625
0.033837890625
0.0362548828125
0.030615234374999998
0.033837890625
0.0322265625
0.0322265625
0.033032226562499996
0.033837890625
0.033837890625
0.030615234374999998
0.033837890625
0.033837890625
1.667724609375
2.9197265624999997
3.0349365234374996
3.037353515625
3.0357421875
3.0389648437499996
3.0381591796875
3.0381591796875
3.0389648437499996
3.0357421875
3.037353515625
3.0381591796875
2.9382568359374996
2.8045166015625
3.034130859375
3.0349365234374996
3.0365478515624997
3.0365478515624997
3.0389648437499996
3.037353515625
1.893310546875
0.5607421874999999
0.0346435546875
0.037060546874999996
0.033837890625
0.03544921875
0.0322265625
0.0346435546875
0.0322265625
0.033837890625
0.0322265625
0.033032226562499996
0.0322265625
0.0322265625
0.037060546874999996
0.033032226562499996
0.033837890625
0.0322265625
0.0322265625
0.02900390625
0.0362548828125
0.033032226562499996
0.1474365234375
2.657080078125
3.037353515625
3.0381591796875
3.0357421875
3.043798828125
3.0405761718749997
3.0397705078125
3.0389648437499996
3.0381591796875
3.0397705078125
3.0413818359375
2.9672607421875
2.8858886718749996
2.9986816406249996
3.0389648437499996
3.0397705078125
3.0389648437499996
3.0357421875
3.0421875
3.037353515625
1.6725585937499998
0.0298095703125
0.033837890625
0.037060546874999996
0.0314208984375
0.033032226562499996
0.033837890625
0.0314208984375
0.033837890625
0.033032226562499996
0.033032226562499996
0.0298095703125
0.0322265625
0.033032226562499996
0.033837890625
0.033032226562499996
0.030615234374999998
0.033032226562499996
0.0314208984375
0.033032226562499996
0.0362548828125
0.033032226562499996
2.6159912109374996
3.0405761718749997
3.037353515625
3.034130859375
3.0381591796875
3.0381591796875
3.0381591796875
2.9720947265624997
3.037353515625
3.0389648437499996
3.034130859375
2.9237548828124997
2.8955566406249997
2.82626953125
3.0381591796875
3.0405761718749997
3.037353515625
3.0381591796875
3.0381591796875
3.0413818359375
1.4518066406249999
0.033032226562499996
0.0322265625
0.033837890625
0.033837890625
0.033837890625
0.033837890625
0.0322265625
0.033837890625
0.033837890625
0.030615234374999998
0.033032226562499996
0.033032226562499996
0.0322265625
0.0314208984375
0.030615234374999998
0.033032226562499996
0.033032226562499996
0.033032226562499996
0.0322265625
0.02900390625
0.033837890625
2.2510253906249997
3.0365478515624997
3.0389648437499996
3.0381591796875
3.0421875
3.0421875
3.0413818359375
3.0405761718749997
3.037353515625
3.0421875
3.0405761718749997
3.0389648437499996
2.9817626953125
2.8560791015625
3.0365478515624997
3.0389648437499996
3.0405761718749997
3.0389648437499996
3.0421875
3.0357421875
1.3575439453125
0.2384765625
0.03544921875
0.033032226562499996
0.033032226562499996
0.0322265625
0.033032226562499996
0.0362548828125
0.037060546874999996
0.0322265625
0.0314208984375
0.033032226562499996
0.0298095703125
0.033032226562499996
0.033837890625
0.033032226562499996
0.0322265625
0.033032226562499996
0.033032226562499996
0.0362548828125
0.0322265625
0.0322265625
2.077001953125
2.8166015625
3.0413818359375
3.037353515625
3.0397705078125
3.0389648437499996
3.0405761718749997
3.0389648437499996
3.037353515625
3.0397705078125
3.037353515625
2.9986816406249996
2.96162109375
2.9253662109375
3.0357421875
3.0389648437499996
3.0357421875
3.037353515625
3.0405761718749997
3.0389648437499996
3.0381591796875
1.3752685546874999
0.0362548828125
0.0322265625
0.0322265625
0.030615234374999998
0.0298095703125
0.033032226562499996
0.030615234374999998
0.0346435546875
0.0298095703125
0.0362548828125
0.033032226562499996
0.030615234374999998
0.033032226562499996
0.033032226562499996
0.0298095703125
0.033837890625
0.0314208984375
0.033032226562499996
0.0362548828125
0.033032226562499996
0.0298095703125
2.8915283203124997
3.0381591796875
3.0397705078125
3.0381591796875
3.0381591796875
3.0413818359375
3.0381591796875
3.0413818359375
3.0389648437499996
3.0389648437499996
3.0381591796875
2.9753173828125
2.914892578125
2.8149902343749997
3.0381591796875
3.037353515625
3.0389648437499996
3.043798828125
3.0357421875
3.0397705078125
1.9327880859375
0.0314208984375
0.0362548828125
0.033837890625
0.033032226562499996
0.0298095703125
0.0322265625
0.0362548828125
0.033032226562499996
0.02900390625
0.0281982421875
0.033032226562499996
0.030615234374999998
0.033837890625
0.0322265625
0.033032226562499996
0.0298095703125
0.033032226562499996
0.0362548828125
0.0298095703125
0.02900390625
0.03544921875
2.4242431640624997
3.0357421875
3.0381591796875
3.0381591796875
3.0365478515624997
3.0389648437499996
3.0381591796875
3.0389648437499996
3.0389648437499996
3.0389648437499996
3.0389648437499996
3.0284912109374997
2.9503417968749996
2.8045166015625
3.0357421875
3.037353515625
3.0365478515624997
3.0421875
3.0389648437499996
3.0413818359375
1.7088134765624998
0.0322265625
0.0322265625
0.033032226562499996
0.033032226562499996
0.0314208984375
0.0346435546875
0.0298095703125
0.033032226562499996
0.030615234374999998
0.033837890625
0.033837890625
0.0346435546875
0.033837890625
0.0346435546875
0.03544921875
0.033837890625
0.033032226562499996
0.0314208984375
0.0322265625
0.033032226562499996
0.037060546874999996
1.7217041015624999
2.876220703125
3.0389648437499996
3.0365478515624997
3.0397705078125
3.0381591796875
3.0389648437499996
3.0365478515624997
3.0421875
3.0413818359375
3.04541015625
3.0365478515624997
2.921337890625
2.8399658203125
3.0381591796875
3.0389648437499996
3.037353515625
3.0397705078125
3.0365478515624997
3.0357421875
3.0405761718749997
1.0006347656249999
0.033032226562499996
0.0314208984375
0.033032226562499996
0.033032226562499996
0.033837890625
0.0314208984375
0.033837890625
0.033032226562499996
0.033032226562499996
0.0322265625
0.03544921875
0.0322265625
0.033032226562499996
0.0346435546875
0.0322265625
0.0362548828125
0.0322265625
0.033837890625
0.0298095703125
0.033837890625
0.033837890625
2.8472167968749997
3.0349365234374996
3.037353515625
3.0397705078125
3.0405761718749997
3.0413818359375
3.0397705078125
3.037353515625
3.037353515625
3.0389648437499996
3.037353515625
3.0091552734375
2.969677734375
2.9543701171874996
3.037353515625
3.0389648437499996
3.0397705078125
3.0397705078125
3.0357421875
3.0405761718749997
1.8369140625
0.0314208984375
0.0298095703125
0.033032226562499996
0.03544921875
0.037060546874999996
0.0346435546875
0.033032226562499996
0.0314208984375
0.0298095703125
0.033837890625
0.030615234374999998
0.0322265625
0.0322265625
0.033837890625
0.037060546874999996
0.033837890625
0.033837890625
0.033032226562499996
0.033032226562499996
0.030615234374999998
0.0346435546875
2.2187988281249997
3.0381591796875
3.0389648437499996
3.0421875
3.0413818359375
3.0421875
3.0389648437499996
3.0349365234374996
3.043798828125
3.0389648437499996
3.0381591796875
3.0381591796875
2.9503417968749996
2.8391601562499997
3.043798828125
3.0381591796875
3.0389648437499996
3.0381591796875
3.0381591796875
3.0389648437499996
2.0117431640625
0.033032226562499996
0.0322265625
0.033837890625
0.033032226562499996
0.0322265625
0.033837890625
0.033032226562499996
0.0298095703125
0.033032226562499996
0.0346435546875
0.03544921875
0.037060546874999996
0.033032226562499996
0.0314208984375
0.033837890625
0.0362548828125
0.0314208984375
0.030615234374999998
0.0322265625
0.033032226562499996
0.02900390625
1.59521484375
2.8367431640625
3.0381591796875
3.0389648437499996
3.0405761718749997
3.0397705078125
3.0421875
3.0429931640624996
3.0389648437499996
3.0381591796875
3.037353515625
3.0405761718749997
2.9753173828125
2.9640380859374997
3.0365478515624997
3.0405761718749997
3.0405761718749997
3.0389648437499996
3.0421875
3.0381591796875
2.2494140625
0.7146240234375
0.033032226562499996
0.0298095703125
0.033837890625
0.0322265625
0.033032226562499996
0.033837890625
0.033837890625
0.033837890625
0.033837890625
0.033032226562499996
0.033837890625
0.0322265625
0.0362548828125
0.03544921875
0.030615234374999998
0.0322265625
0.037060546874999996
0.033032226562499996
0.0346435546875
0.033837890625
0.033837890625
2.3968505859375
3.0421875
3.0381591796875
3.0389648437499996
3.0389648437499996
3.0389648437499996
3.0389648437499996
3.0413818359375
3.021240234375
3.043798828125
3.0413818359375
2.9463134765624996
2.9068359375
2.8214355468749996
3.0405761718749997
3.037353515625
3.0397705078125
3.0397705078125
3.0421875
3.0381591796875
1.6894775390624999
0.033032226562499996
0.033032226562499996
0.0346435546875
0.033837890625
0.0314208984375
0.033032226562499996
0.033032226562499996
0.0322265625
0.038671874999999994
0.033837890625
0.033032226562499996
0.03544921875
0.033837890625
0.0314208984375
0.0362548828125
0.0322265625
0.0378662109375
0.033837890625
0.037060546874999996
0.0298095703125
0.033837890625
2.4991699218749996
3.0413818359375
3.0389648437499996
3.0389648437499996
3.0429931640624996
3.037353515625
3.0389648437499996
3.0421875
3.0389648437499996
3.0405761718749997
3.0405761718749997
2.9640380859374997
2.9382568359374996
2.8230468749999997
3.0381591796875
3.0405761718749997
3.0381591796875
3.0381591796875
3.037353515625
3.0405761718749997
1.8941162109374998
0.033032226562499996
0.0322265625
0.033032226562499996
0.037060546874999996
0.0298095703125
0.0346435546875
0.033032226562499996
0.033837890625
0.037060546874999996
0.0346435546875
0.033032226562499996
0.0362548828125
0.0322265625
0.0362548828125
0.033837890625
0.0322265625
0.033032226562499996
0.0298095703125
0.033837890625
0.037060546874999996
0.033837890625
1.7249267578124998
2.9011962890625
3.0421875
3.0405761718749997
3.0397705078125
3.0429931640624996
3.0413818359375
3.0389648437499996
3.0421875
3.0381591796875
3.0397705078125
3.0389648437499996
2.9326171875
2.8697753906249996
3.0389648437499996
3.0357421875
3.0413818359375
3.037353515625
3.0381591796875
3.0381591796875
1.3784912109374998
0.38913574218749997
0.033032226562499996
0.033032226562499996
0.033032226562499996
0.033837890625
0.0362548828125
0.033837890625
0.033032226562499996
0.0322265625
0.033837890625
0.0346435546875
0.0346435546875
0.0362548828125
0.030615234374999998
0.033837890625
0.033032226562499996
0.033032226562499996
0.033032226562499996
0.0346435546875
0.033032226562499996
0.033837890625
1.2334716796875
3.0107666015624996
3.043798828125
3.0381591796875
3.0381591796875
3.0389648437499996
3.0397705078125
3.0389648437499996
3.0429931640624996
3.0397705078125
3.0413818359375
3.0389648437499996
2.9237548828124997
2.9116699218749997
3.0389648437499996
3.0357421875
3.0333251953125
3.037353515625
3.037353515625
3.0421875
3.0365478515624997
1.7039794921875
0.0362548828125
0.033837890625
0.0362548828125
0.030615234374999998
0.033032226562499996
0.033032226562499996
0.0322265625
0.037060546874999996
0.0322265625
0.033837890625
0.033837890625
0.0217529296875
0.0346435546875
0.033837890625
0.033032226562499996
0.033032226562499996
0.033837890625
0.033032226562499996
0.033837890625
0.033032226562499996
0.0322265625
2.27841796875
3.037353515625
3.0389648437499996
3.0349365234374996
3.0405761718749997
3.0397705078125
3.0397705078125
3.0349365234374996
3.0397705078125
3.0446044921874997
3.0421875
3.0413818359375
2.9801513671874997
2.8633300781249997
3.0365478515624997
3.0389648437499996
3.0365478515624997
3.034130859375
3.0405761718749997
3.0397705078125
1.5251220703125
0.033032226562499996
0.0298095703125
0.03544921875
0.0362548828125
0.033032226562499996
0.033837890625
0.033032226562499996
0.033032226562499996
0.03544921875
0.033837890625
0.033032226562499996
0.03544921875
0.033032226562499996
0.033032226562499996
0.0298095703125
0.0322265625
0.037060546874999996
0.0362548828125
0.03544921875
0.033032226562499996
0.033032226562499996
1.8095214843749998
3.0389648437499996
3.0397705078125
3.0397705078125
3.0381591796875
3.037353515625
3.0405761718749997
3.0397705078125
3.0421875
3.0357421875
3.0397705078125
3.0389648437499996
2.9495361328125
2.8464111328125
3.0389648437499996
3.037353515625
3.0357421875
3.0365478515624997
3.0381591796875
3.0405761718749997
1.413134765625
0.10231933593749999
0.033032226562499996
0.037060546874999996
0.033837890625
0.0298095703125
0.033837890625
0.0298095703125
0.033837890625
0.0346435546875
0.033837890625
0.033032226562499996
0.033032226562499996
0.030615234374999998
0.033032226562499996
0.033837890625
0.0362548828125
0.0346435546875
0.03544921875
0.033837890625
0.0314208984375
0.0298095703125
0.7581298828124999
3.0010986328125
3.0405761718749997
3.0405761718749997
3.0405761718749997
3.0365478515624997
3.0446044921874997
3.0397705078125
3.0357421875
3.0381591796875
3.0309082031249996
3.037353515625
2.9946533203124996
2.92939453125
3.0381591796875
3.0405761718749997
3.0405761718749997
3.0397705078125
3.0413818359375
3.0421875
3.0381591796875
1.1077880859375
0.033837890625
0.03544921875
0.033837890625
0.0346435546875
0.033837890625
0.030615234374999998
0.0298095703125
0.033837890625
0.033837890625
0.033032226562499996
0.0322265625
0.033837890625
0.0314208984375
0.0314208984375
0.033837890625
0.037060546874999996
0.033032226562499996
0.0314208984375
0.033032226562499996
0.037060546874999996
0.037060546874999996
2.3791259765625
3.0389648437499996
3.0389648437499996
3.0389648437499996
3.0405761718749997
3.0381591796875
3.0389648437499996
3.0349365234374996
3.0389648437499996
3.0429931640624996
3.0413818359375
3.0365478515624997
2.9277832031249997
3.037353515625
3.0397705078125
3.0357421875
3.0365478515624997
3.0397705078125
3.0389648437499996
3.0397705078125
1.3075927734375
0.033837890625
0.033032226562499996
0.033032226562499996
0.033032226562499996
0.033032226562499996
0.0322265625
0.033837890625
0.03544921875
0.0346435546875
0.033837890625
0.033837890625
0.0346435546875
0.0314208984375
0.033032226562499996
0.0322265625
0.0362548828125
0.033837890625
0.0346435546875
0.0394775390625
0.033837890625
0.033837890625
1.6363037109374998
2.8512451171874997
3.0365478515624997
3.043798828125
3.0405761718749997
3.0389648437499996
3.0421875
3.0389648437499996
3.0389648437499996
3.0381591796875
3.0421875
3.037353515625
2.9503417968749996
2.9100585937499996
3.037353515625
3.0421875
3.0389648437499996
3.0365478515624997
3.0381591796875
3.0389648437499996
1.0981201171875
0.033837890625
0.0322265625
0.033032226562499996
0.030615234374999998
0.033032226562499996
0.0346435546875
0.033837890625
0.033837890625
0.033032226562499996
0.0346435546875
0.033032226562499996
0.0362548828125
0.033032226562499996
0.0322265625
0.033032226562499996
0.0362548828125
0.033837890625
0.0322265625
0.033032226562499996
0.03544921875
0.0362548828125
1.42119140625
2.9737060546875
3.0381591796875
3.0397705078125
3.0429931640624996
3.0397705078125
3.037353515625
3.0421875
3.037353515625
3.0405761718749997
3.0389648437499996
3.037353515625
3.0059326171875
2.9108642578125
3.0397705078125
3.0405761718749997
3.0389648437499996
3.0405761718749997
3.0413818359375
3.0349365234374996
3.0381591796875
0.966796875
0.033837890625
0.033837890625
0.033837890625
0.0314208984375
0.0346435546875
0.0346435546875
0.033032226562499996
0.033837890625
0.033032226562499996
0.030615234374999998
0.030615234374999998
0.033837890625
0.0298095703125
0.033032226562499996
0.0298095703125
0.033837890625
0.0298095703125
0.03544921875
0.03544921875
0.033837890625
0.033032226562499996
2.6699707031249997
3.0405761718749997
3.0389648437499996
3.0389648437499996
3.0429931640624996
3.0389648437499996
3.0405761718749997
3.0405761718749997
3.0365478515624997
3.0357421875
3.0429931640624996
3.027685546875
2.9769287109375
3.0389648437499996
3.0397705078125
3.0389648437499996
3.0381591796875
3.0389648437499996
3.0413818359375
3.037353515625
1.173046875
0.0314208984375
0.033032226562499996
0.030615234374999998
0.033837890625
0.0298095703125
0.033032226562499996
0.033837890625
0.0322265625
0.033032226562499996
0.033837890625
0.033837890625
0.033837890625
0.037060546874999996
0.0346435546875
0.0314208984375
0.0314208984375
0.0346435546875
0.033032226562499996
0.033032226562499996
0.033837890625
0.033837890625
2.0536376953124997
3.0397705078125
3.0421875
3.0397705078125
3.0421875
3.0405761718749997
3.0405761718749997
3.0389648437499996
3.0381591796875
3.0429931640624996
3.0365478515624997
3.0405761718749997
2.9825683593749996
2.8673583984374997
3.0470214843749996
3.0405761718749997
3.0397705078125
3.0381591796875
3.0389648437499996
3.0421875
1.264892578125
0.0314208984375
0.033032226562499996
0.033837890625
0.0314208984375
0.033837890625
0.033032226562499996
0.033837890625
0.033032226562499996
0.033032226562499996
0.033032226562499996
0.0322265625
0.0346435546875
0.033837890625
0.033837890625
0.033032226562499996
0.0322265625
0.033837890625
0.033837890625
0.0346435546875
0.02900390625
0.033032226562499996
1.9706542968749998
2.9592041015625
3.0421875
3.0381591796875
3.0381591796875
3.0349365234374996
3.037353515625
3.0397705078125
3.0389648437499996
3.0381591796875
3.0389648437499996
3.037353515625
2.9543701171874996
2.8496337890624996
3.037353515625
3.0381591796875
3.037353515625
3.0389648437499996
3.037353515625
3.0389648437499996
3.0397705078125
0.6405029296875
0.033837890625
0.030615234374999998
0.0378662109375
0.033837890625
0.0346435546875
0.0378662109375
0.0362548828125
0.033032226562499996
0.0314208984375
0.033837890625
0.033837890625
0.033837890625
0.03544921875
0.033837890625
0.033837890625
0.033837890625
0.0322265625
0.0322265625
0.03544921875
0.033032226562499996
0.033837890625
2.6401611328124996
3.0389648437499996
3.0405761718749997
3.0389648437499996
3.0405761718749997
3.0413818359375
3.0429931640624996
3.0317138671875
3.0397705078125
3.037353515625
3.0421875
3.0301025390625
2.9237548828124997
3.0405761718749997
3.0405761718749997
3.0381591796875
3.0381591796875
3.0413818359375
3.037353515625
3.037353515625
0.97646484375
0.033837890625
0.033032226562499996
0.033032226562499996
0.0346435546875
0.0322265625
0.0298095703125
0.0346435546875
0.0314208984375
0.030615234374999998
0.033032226562499996
0.033032226562499996
0.033032226562499996
0.033837890625
0.033837890625
0.033837890625
0.033837890625
0.0362548828125
0.0346435546875
0.033837890625
0.037060546874999996
0.0346435546875
2.0455810546874997
2.9600097656249997
3.0413818359375
3.0421875
3.0397705078125
3.0389648437499996
3.043798828125
3.0405761718749997
3.0397705078125
3.0413818359375
3.0429931640624996
3.0333251953125
2.947119140625
2.85849609375
3.0389648437499996
3.0413818359375
3.0421875
3.0421875
3.0389648437499996
3.0389648437499996
1.4042724609375
0.033032226562499996
0.03544921875
0.037060546874999996
0.033032226562499996
0.0378662109375
0.033032226562499996
0.030615234374999998
0.0346435546875
0.03544921875
0.033032226562499996
0.033032226562499996
0.0346435546875
0.0346435546875
0.033032226562499996
0.0314208984375
0.037060546874999996
0.030615234374999998
0.0314208984375
0.033032226562499996
0.033837890625
0.0378662109375
1.8022705078124999
3.0357421875
3.0389648437499996
3.0381591796875
3.0421875
3.0397705078125
3.0405761718749997
3.0397705078125
3.037353515625
3.037353515625
3.0389648437499996
3.0405761718749997
2.9906249999999996
2.8681640625
3.0405761718749997
3.0397705078125
3.0365478515624997
3.0381591796875
3.037353515625
3.0381591796875
3.0381591796875
0.5244873046874999
0.033837890625
0.033837890625
0.033032226562499996
0.0322265625
0.0322265625
0.033032226562499996
0.030615234374999998
0.033032226562499996
0.0362548828125
0.030615234374999998
0.0322265625
0.037060546874999996
0.033837890625
0.0322265625
0.033032226562499996
0.038671874999999994
0.0362548828125
0.033032226562499996
0.03544921875
0.033837890625
0.0378662109375
2.9841796874999997
3.0405761718749997
3.0365478515624997
3.0397705078125
3.0365478515624997
3.043798828125
3.0405761718749997
3.0389648437499996
3.0365478515624997
3.0397705078125
3.0389648437499996
2.8899169921874996
2.8858886718749996
3.0389648437499996
3.0381591796875
3.0405761718749997
3.0381591796875
3.0397705078125
3.0365478515624997
3.0389648437499996
0.7984130859374999
0.03544921875
0.0362548828125
0.0314208984375
0.033837890625
0.0346435546875
0.0362548828125
0.0322265625
0.033837890625
0.033032226562499996
0.033032226562499996
0.0322265625
0.037060546874999996
0.02900390625
0.030615234374999998
0.033032226562499996
0.033837890625
0.02900390625
0.0314208984375
0.0322265625
0.030615234374999998
0.0346435546875
2.521728515625
3.0397705078125
3.0389648437499996
3.0405761718749997
3.0389648437499996
3.0421875
3.0389648437499996
3.0365478515624997
3.0389648437499996
3.0397705078125
3.0389648437499996
2.9753173828125
2.9817626953125
2.8222412109375
3.0397705078125
3.037353515625
3.0405761718749997
3.0405761718749997
3.0397705078125
3.037353515625
1.5718505859374998
0.030615234374999998
0.0322265625
0.033032226562499996
0.0346435546875
0.033032226562499996
0.033032226562499996
0.02900390625
0.033837890625
0.0346435546875
0.033032226562499996
0.033837890625
0.0346435546875
0.0322265625
0.033032226562499996
0.0362548828125
0.033837890625
0.033032226562499996
0.033837890625
0.0346435546875
0.03544921875
0.0314208984375
1.6572509765624999
3.0357421875
3.037353515625
3.0397705078125
3.037353515625
3.0405761718749997
3.0397705078125
3.043798828125
3.0381591796875
3.0397705078125
3.0381591796875
3.0389648437499996
2.9841796874999997
2.882666015625
3.043798828125
3.0381591796875
3.0389648437499996
3.0421875
3.0389648437499996
3.0365478515624997
2.389599609375
0.262646484375
0.0346435546875
0.037060546874999996
0.0322265625
0.0362548828125
0.0322265625
0.033032226562499996
0.033032226562499996
0.0298095703125
0.033032226562499996
0.02900390625
0.037060546874999996
0.033032226562499996
0.0362548828125
0.0298095703125
0.033837890625
0.033837890625
0.0314208984375
0.037060546874999996
0.0298095703125
0.0322265625
0.033032226562499996
2.2840576171875
3.0389648437499996
3.0389648437499996
3.0381591796875
3.0397705078125
3.0389648437499996
3.0413818359375
3.0397705078125
3.0429931640624996
3.0397705078125
3.0397705078125
3.0405761718749997
2.937451171875
3.0389648437499996
3.0389648437499996
3.0421875
3.0389648437499996
3.0389648437499996
3.0397705078125
3.0429931640624996
1.5106201171875
0.0322265625
0.0322265625
0.0322265625
0.033032226562499996
0.033032226562499996
0.02900390625
0.033032226562499996
0.0322265625
0.033032226562499996
0.033837890625
0.033032226562499996
0.033837890625
0.0322265625
0.0378662109375
0.03544921875
0.0362548828125
0.033032226562499996
0.033837890625
0.0314208984375
0.03544921875
0.033032226562499996
2.1728759765625
3.037353515625
3.0349365234374996
3.0397705078125
3.0389648437499996
3.0389648437499996
3.0357421875
3.0381591796875
3.0397705078125
2.9801513671874997
3.0397705078125
3.0405761718749997
2.8512451171874997
2.6780273437499997
3.0397705078125
3.0397705078125
3.0381591796875
3.0397705078125
3.0389648437499996
3.0421875
0.825
0.0298095703125
0.033032226562499996
0.037060546874999996
0.033032226562499996
0.033032226562499996
0.0346435546875
0.030615234374999998
0.033837890625
0.033837890625
0.033837890625
0.033032226562499996
0.033837890625
0.03544921875
0.033032226562499996
0.030615234374999998
0.0322265625
0.0346435546875
0.033032226562499996
0.033032226562499996
0.0322265625
0.0346435546875
0.6533935546874999
2.4685546874999997
3.0413818359375
3.0381591796875
3.0397705078125
3.0397705078125
3.0397705078125
3.037353515625
3.0381591796875
3.0397705078125
2.9334228515625
3.0397705078125
2.989013671875
3.0252685546875
3.0397705078125
3.0381591796875
3.0421875
3.037353515625
3.0389648437499996
3.037353515625
3.0397705078125
1.4703369140625
0.033032226562499996
0.033032226562499996
0.033837890625
0.0378662109375
0.033837890625
0.033032226562499996
0.033837890625
0.033032226562499996
0.027392578124999997
0.285205078125
0.078955078125
0.0362548828125
0.0362548828125
0.0346435546875
0.033837890625
0.0362548828125
0.033032226562499996
0.033837890625
0.033837890625
0.0362548828125
0.0378662109375
2.673193359375
3.0405761718749997
3.0405761718749997
3.0397705078125
3.0389648437499996
3.0421875
3.0389648437499996
3.0397705078125
3.0397705078125
2.8335205078124996
3.021240234375
3.0397705078125
3.0365478515624997
2.6780273437499997
3.0389648437499996
3.0405761718749997
3.0405761718749997
3.0397705078125
3.0389648437499996
3.0405761718749997
0.87333984375
0.033837890625
0.033837890625
0.033837890625
0.033032226562499996
0.033837890625
0.030615234374999998
0.0346435546875
0.033032226562499996
0.033032226562499996
0.033032226562499996
0.033837890625
0.038671874999999994
0.0322265625
0.033032226562499996
0.0322265625
0.033032226562499996
0.02900390625
0.03544921875
0.033837890625
0.0322265625
0.0378662109375
1.9215087890625
3.0397705078125
3.043798828125
3.0389648437499996
3.0405761718749997
3.0397705078125
3.0365478515624997
3.0381591796875
3.0405761718749997
3.037353515625
3.0381591796875
3.0405761718749997
2.7610107421874996
2.4419677734375
3.0381591796875
3.0381591796875
3.0397705078125
3.0357421875
3.0389648437499996
3.0421875
2.9036132812499997
0.09829101562499999
0.0362548828125
0.037060546874999996
0.033032226562499996
0.033032226562499996
0.0314208984375
0.0346435546875
0.033032226562499996
0.033032226562499996
0.033837890625
0.0346435546875
0.033837890625
0.033032226562499996
0.0362548828125
0.033032226562499996
0.0362548828125
0.033032226562499996
0.033837890625
0.033837890625
0.033032226562499996
0.033837890625
0.5309326171875
3.0429931640624996
3.037353515625
3.0389648437499996
3.0389648437499996
3.0405761718749997
3.0389648437499996
3.0421875
2.4282714843749997
2.9922363281249997
3.04541015625
2.7610107421874996
2.8359375
2.518505859375
2.6965576171874996
3.037353515625
3.037353515625
3.0389648437499996
3.043798828125
3.0397705078125
3.0405761718749997
1.957763671875
0.0346435546875
0.0378662109375
0.033837890625
0.030615234374999998
0.02900390625
0.0322265625
0.037060546874999996
0.033032226562499996
0.033837890625
0.0346435546875
0.033032226562499996
0.037060546874999996
0.0314208984375
0.0378662109375
0.033837890625
0.033837890625
0.033837890625
0.033032226562499996
0.033837890625
0.0378662109375
0.033032226562499996
1.6636962890625
3.043798828125
3.037353515625
3.0397705078125
3.0405761718749997
3.0357421875
3.0349365234374996
3.037353515625
3.0397705078125
3.0389648437499996
3.037353515625
3.0421875
2.9036132812499997
2.8270751953124997
3.0389648437499996
3.0381591796875
3.0405761718749997
3.0389648437499996
3.0397705078125
3.0405761718749997
0.8709228515624999
0.033032226562499996
0.033032226562499996
0.0314208984375
0.03544921875
0.033032226562499996
0.0346435546875
0.0322265625
0.0362548828125
0.0362548828125
0.0298095703125
0.033032226562499996
0.0378662109375
0.0346435546875
0.033032226562499996
0.033837890625
0.0314208984375
0.033837890625
0.033837890625
0.037060546874999996
0.033032226562499996
0.033032226562499996
0.0346435546875
2.13662109375
3.0389648437499996
3.0429931640624996
3.0405761718749997
3.0405761718749997
3.0389648437499996
3.0389648437499996
3.0429931640624996
3.003515625
3.0405761718749997
3.0405761718749997
3.0389648437499996
3.037353515625
3.0429931640624996
3.0389648437499996
3.0389648437499996
3.0381591796875
3.0389648437499996
3.037353515625
3.0405761718749997
1.1657958984374999
0.0346435546875
0.033837890625
0.0346435546875
0.0298095703125
0.037060546874999996
0.033032226562499996
0.033032226562499996
0.03544921875
0.033837890625
0.0314208984375
0.033837890625
0.033032226562499996
0.033837890625
0.0314208984375
0.033032226562499996
0.0322265625
0.0362548828125
0.033837890625
0.0362548828125
0.0362548828125
0.02900390625
1.2568359375
2.6538574218749997
3.0397705078125
3.0397705078125
3.0389648437499996
3.0389648437499996
3.0381591796875
3.0389648437499996
3.0405761718749997
3.0389648437499996
3.0405761718749997
3.037353515625
3.001904296875
2.9108642578125
3.0397705078125
3.0381591796875
3.0429931640624996
3.0421875
3.0413818359375
3.0405761718749997
1.1698242187499999
0.0322265625
0.033032226562499996
0.033032226562499996
0.033837890625
0.033032226562499996
0.033837890625
0.033032226562499996
0.0322265625
0.0378662109375
0.037060546874999996
0.0346435546875
0.0362548828125
0.0346435546875
0.0281982421875
0.033837890625
0.0378662109375
0.033837890625
0.0281982421875
0.033032226562499996
0.0314208984375
0.033837890625
2.0036865234375
2.8858886718749996
3.0397705078125
3.0381591796875
3.0389648437499996
3.0397705078125
3.0397705078125
3.0405761718749997
3.0389648437499996
3.0381591796875
3.0389648437499996
3.037353515625
3.001904296875
2.931005859375
3.0421875
3.0389648437499996
3.0325195312499997
3.0397705078125
3.0429931640624996
3.0357421875
3.037353515625
0.033032226562499996
0.0346435546875
0.0346435546875
0.03544921875
0.0322265625
0.0298095703125
0.033837890625
0.033032226562499996
0.033032226562499996
0.033032226562499996
0.033837890625
0.033837890625
0.0314208984375
0.033032226562499996
0.033837890625
0.0322265625
0.033032226562499996
0.0298095703125
0.0322265625
0.033837890625
0.033837890625
0.033837890625
2.03671875
3.0365478515624997
3.0429931640624996
3.0389648437499996
3.0429931640624996
3.0405761718749997
3.0389648437499996
3.0429931640624996
3.0389648437499996
3.0405761718749997
3.0381591796875
3.0043212890624997
2.9479248046874997
2.8633300781249997
3.0389648437499996
3.0389648437499996
3.0389648437499996
3.037353515625
3.0389648437499996
3.037353515625
1.3478759765625
0.0362548828125
0.0346435546875
0.033032226562499996
0.0346435546875
0.037060546874999996
0.0346435546875
0.0298095703125
0.033032226562499996
0.030615234374999998
0.0362548828125
0.0322265625
0.0298095703125
0.0378662109375
0.033032226562499996
0.0362548828125
0.033837890625
0.0362548828125
0.033032226562499996
0.0378662109375
0.0378662109375
0.0298095703125
1.7829345703125
3.0405761718749997
3.0405761718749997
3.0357421875
3.037353515625
3.0389648437499996
3.0405761718749997
3.0405761718749997
3.037353515625
3.0397705078125
3.0389648437499996
3.0405761718749997
3.011572265625
2.89716796875
3.043798828125
3.0405761718749997
3.0389648437499996
3.0381591796875
3.0349365234374996
3.043798828125
3.0421875
0.0378662109375
0.033837890625
0.033837890625
0.030615234374999998
0.0298095703125
0.0322265625
0.033837890625
0.033837890625
0.03544921875
0.033032226562499996
0.0346435546875
0.0362548828125
0.033837890625
0.0346435546875
0.03544921875
0.033837890625
0.0298095703125
0.0362548828125
0.033837890625
0.0322265625
0.03544921875
0.033837890625
2.8963623046875
3.0397705078125
3.0389648437499996
3.0413818359375
3.0389648437499996
3.0405761718749997
3.0389648437499996
3.0405761718749997
3.0405761718749997
3.0405761718749997
3.0389648437499996
2.98095703125
2.9044189453125
3.0381591796875
3.0397705078125
3.0429931640624996
3.0381591796875
3.0397705078125
3.0397705078125
3.0397705078125
0.539794921875
0.0346435546875
0.0322265625
0.03544921875
0.0346435546875
0.0362548828125
0.0346435546875
0.0346435546875
0.033837890625
0.0346435546875
0.0281982421875
0.03544921875
0.033837890625
0.0378662109375
0.0346435546875
0.0322265625
0.0346435546875
0.0362548828125
0.0346435546875
0.0346435546875
0.0322265625
0.0346435546875
2.357373046875
3.0389648437499996
3.043798828125
3.037353515625
3.0405761718749997
3.0389648437499996
3.0365478515624997
3.037353515625
3.0397705078125
3.0389648437499996
3.0389648437499996
3.0405761718749997
2.9720947265624997
2.9342285156249996
3.037353515625
3.0389648437499996
3.0413818359375
3.0397705078125
3.0397705078125
3.037353515625
1.400244140625
0.033837890625
0.03544921875
0.0322265625
0.033837890625
0.033032226562499996
0.03544921875
0.033837890625
0.033837890625
0.0394775390625
0.0314208984375
0.0322265625
0.0362548828125
0.030615234374999998
0.0378662109375
0.0346435546875
0.0362548828125
0.0346435546875
0.033032226562499996
0.0322265625
0.0322265625
0.033032226562499996
1.9118408203125
2.921337890625
3.0405761718749997
3.0397705078125
3.037353515625
3.0421875
3.0389648437499996
3.0397705078125
3.0421875
3.0405761718749997
3.0357421875
3.0389648437499996
2.9906249999999996
2.8955566406249997
3.0405761718749997
3.0397705078125
3.034130859375
3.0381591796875
3.0405761718749997
3.0405761718749997
2.4282714843749997
0.03544921875
0.0346435546875
0.0346435546875
0.0298095703125
0.033837890625
0.033837890625
0.03544921875
0.0346435546875
0.02578125
0.0346435546875
0.030615234374999998
0.037060546874999996
0.0322265625
0.033837890625
0.0314208984375
0.037060546874999996
0.0346435546875
0.0314208984375
0.033837890625
0.0378662109375
0.03544921875
0.0362548828125
2.6965576171874996
3.0405761718749997
3.043798828125
3.0405761718749997
3.0397705078125
3.0397705078125
3.0421875
3.0429931640624996
3.037353515625
3.0389648437499996
3.0405761718749997
3.0220458984375
2.9092529296875
3.0389648437499996
3.0397705078125
3.0365478515624997
3.0389648437499996
3.043798828125
3.0389648437499996
3.0421875
1.2544189453124999
0.033032226562499996
0.033837890625
0.038671874999999994
0.033837890625
0.0346435546875
0.0346435546875
0.0378662109375
0.0346435546875
0.02900390625
0.0346435546875
0.033837890625
0.033837890625
0.0346435546875
0.033032226562499996
0.0298095703125
0.0346435546875
0.0346435546875
0.033837890625
0.033032226562499996
0.0378662109375
0.030615234374999998
2.07216796875
3.0413818359375
3.0389648437499996
3.0397705078125
3.0405761718749997
3.0421875
3.0357421875
3.037353515625
3.0397705078125
3.037353515625
3.0405761718749997
3.0397705078125
2.9664550781249996
2.8464111328125
3.0389648437499996
3.0389648437499996
3.0389648437499996
3.0381591796875
3.0389648437499996
3.0421875
0.929736328125
0.03544921875
0.0362548828125
0.030615234374999998
0.0322265625
0.0362548828125
0.0322265625
0.033837890625
0.033032226562499996
0.033837890625
0.0346435546875
0.0346435546875
0.033032226562499996
0.033032226562499996
0.0346435546875
0.0362548828125
0.0346435546875
0.033837890625
0.0346435546875
0.033837890625
0.030615234374999998
0.03544921875
2.018994140625
2.771484375
3.0405761718749997
3.043798828125
3.0397705078125
3.0405761718749997
3.0413818359375
3.0365478515624997
3.0413818359375
3.0381591796875
3.0397705078125
3.0405761718749997
2.9519531249999997
2.9100585937499996
3.0397705078125
3.0397705078125
3.0381591796875
3.043798828125
3.0421875
3.0357421875
3.0397705078125
0.6493652343749999
0.033837890625
0.0346435546875
0.033032226562499996
0.033837890625
0.0362548828125
0.0378662109375
0.0346435546875
0.03544921875
0.0346435546875
0.03544921875
0.033837890625
0.0346435546875
0.030615234374999998
0.033837890625
0.0298095703125
0.030615234374999998
0.033837890625
0.033837890625
0.0346435546875
0.0346435546875
0.03544921875
2.21396484375
3.0381591796875
3.0389648437499996
3.0349365234374996
3.0405761718749997
3.0381591796875
3.037353515625
3.0413818359375
3.0397705078125
3.0446044921874997
3.0389648437499996
3.0397705078125
2.9680664062499997
2.840771484375
3.0357421875
3.0397705078125
3.0389648437499996
3.04541015625
3.0405761718749997
3.037353515625
1.4703369140625
0.038671874999999994
0.033837890625
0.030615234374999998
0.0346435546875
0.0378662109375
0.033837890625
0.033837890625
0.033032226562499996
0.0314208984375
0.03544921875
0.030615234374999998
0.03544921875
0.033837890625
0.0314208984375
0.030615234374999998
0.0322265625
0.033032226562499996
0.0346435546875
0.033032226562499996
0.033032226562499996
0.0346435546875
1.9924072265625
2.7424804687499997
3.0413818359375
3.0421875
3.0405761718749997
3.0397705078125
3.0413818359375
3.0389648437499996
3.0405761718749997
3.0397705078125
3.0397705078125
3.0421875
3.027685546875
2.92939453125
3.0413818359375
3.04541015625
3.0446044921874997
3.0405761718749997
3.0389648437499996
3.0357421875
3.0405761718749997
0.1313232421875
0.0362548828125
0.033837890625
0.037060546874999996
0.030615234374999998
0.030615234374999998
0.03544921875
0.0314208984375
0.0346435546875
0.03544921875
0.033032226562499996
0.03544921875
0.030615234374999998
0.033837890625
0.037060546874999996
0.033837890625
0.033837890625
0.0322265625
0.0346435546875
0.033837890625
0.033837890625
0.0346435546875
2.4169921875
3.0397705078125
3.037353515625
3.0413818359375
3.0333251953125
3.0389648437499996
3.043798828125
3.0429931640624996
3.043798828125
3.0413818359375
3.0397705078125
3.0268798828124996
2.9342285156249996
3.0381591796875
3.0397705078125
3.0397705078125
3.043798828125
3.0397705078125
3.0421875
3.0389648437499996
1.3148437499999999
0.030615234374999998
0.033032226562499996
0.033032226562499996
0.033837890625
0.0298095703125
0.033837890625
0.0346435546875
0.033032226562499996
0.033837890625
0.0362548828125
0.0378662109375
0.0378662109375
0.030615234374999998
0.0346435546875
0.030615234374999998
0.0378662109375
0.037060546874999996
0.033837890625
0.033837890625
0.0314208984375
0.037060546874999996
1.4703369140625
2.8939453124999996
3.0357421875
3.0381591796875
3.037353515625
3.0421875
3.0389648437499996
3.0397705078125
3.0421875
3.0397705078125
3.0389648437499996
2.9769287109375
2.8778320312499996
2.860107421875
3.0397705078125
3.0405761718749997
3.0365478515624997
3.0405761718749997
3.0413818359375
3.0405761718749997
1.134375
0.033837890625
0.033837890625
0.030615234374999998
0.030615234374999998
0.033837890625
0.033032226562499996
0.033032226562499996
0.03544921875
0.0314208984375
0.0298095703125
0.0362548828125
0.0346435546875
0.033837890625
0.033032226562499996
0.033837890625
0.033837890625
0.033032226562499996
0.0346435546875
0.0378662109375
0.033032226562499996
0.033837890625
1.3672119140624999
2.9156982421874997
3.0357421875
3.0421875
3.0397705078125
3.0405761718749997
3.037353515625
3.0365478515624997
3.0389648437499996
3.0405761718749997
3.0397705078125
3.0397705078125
3.027685546875
2.91650390625
3.0389648437499996
3.0421875
3.0389648437499996
3.0389648437499996
3.0397705078125
3.0405761718749997
3.0397705078125
0.0958740234375
0.0346435546875
0.0346435546875
0.037060546874999996
0.040283203125
0.033837890625
0.033032226562499996
0.0322265625
0.0346435546875
0.033837890625
0.0322265625
0.033032226562499996
0.033032226562499996
0.038671874999999994
0.033837890625
0.0378662109375
0.0314208984375
0.0322265625
0.033837890625
0.03544921875
0.0322265625
0.037060546874999996
2.7183105468749997
3.0405761718749997
3.0397705078125
3.0421875
3.0389648437499996
3.0397705078125
3.0421875
3.0397705078125
3.0421875
3.0397705078125
3.0405761718749997
3.0381591796875
2.9543701171874996
3.043798828125
3.0397705078125
3.043798828125
3.0413818359375
3.0365478515624997
3.043798828125
3.037353515625
1.1609619140625
0.0346435546875
0.0346435546875
0.030615234374999998
0.0346435546875
0.033837890625
0.0378662109375
0.0314208984375
0.0346435546875
0.0322265625
0.0378662109375
0.0322265625
0.033032226562499996
0.033837890625
0.0322265625
0.033837890625
0.0298095703125
0.02900390625
0.033032226562499996
0.033032226562499996
0.033837890625
0.037060546874999996
2.060888671875
2.9326171875
3.0389648437499996
3.0421875
3.0405761718749997
3.0389648437499996
3.0421875
3.0429931640624996
3.0429931640624996
3.0397705078125
3.0405761718749997
3.0357421875
2.96484375
2.9221435546874996
3.0365478515624997
3.0397705078125
3.0405761718749997
3.0389648437499996
3.0429931640624996
3.0381591796875
2.5152832031249996
0.02900390625
0.033032226562499996
0.0362548828125
0.033032226562499996
0.0322265625
0.037060546874999996
0.0298095703125
0.037060546874999996
0.0322265625
0.033837890625
0.0281982421875
0.03544921875
0.0362548828125
0.033837890625
0.033032226562499996
0.0322265625
0.037060546874999996
0.037060546874999996
0.033837890625
0.033032226562499996
0.033837890625
1.4679199218749999
2.7972656249999996
3.0397705078125
3.0397705078125
3.0381591796875
3.0397705078125
3.0389648437499996
3.0397705078125
3.0389648437499996
3.0397705078125
3.0389648437499996
3.0333251953125
2.9277832031249997
2.8552734374999997
3.0397705078125
3.0381591796875
3.04541015625
3.0389648437499996
3.0397705078125
3.0389648437499996
3.0405761718749997
0.9804931640625
0.0322265625
0.033837890625
0.033032226562499996
0.0314208984375
0.0346435546875
0.03544921875
0.0322265625
0.033837890625
0.0322265625
0.033032226562499996
0.0322265625
0.0314208984375
0.033032226562499996
0.0298095703125
0.033837890625
0.0346435546875
0.0362548828125
0.033837890625
0.0322265625
0.033837890625
0.6727294921875
2.2985595703125
3.037353515625
3.0446044921874997
3.0365478515624997
3.0397705078125
3.0421875
3.0349365234374996
3.0381591796875
3.0389648437499996
3.043798828125
3.0397705078125
2.977734375
2.9269775390625
2.8190185546874997
3.0389648437499996
3.0381591796875
3.0421875
3.0397705078125
3.0405761718749997
3.0381591796875
2.418603515625
0.033032226562499996
0.033032226562499996
0.03544921875
0.033837890625
0.0322265625
0.033032226562499996
0.033032226562499996
0.0298095703125
0.03544921875
0.0298095703125
0.0362548828125
0.033032226562499996
0.033837890625
0.033837890625
0.037060546874999996
0.0322265625
0.033032226562499996
0.0314208984375
0.033032226562499996
0.0346435546875
0.033032226562499996
1.9811279296875
2.8681640625
3.0389648437499996
3.0381591796875
3.0421875
3.0381591796875
3.0413818359375
3.037353515625
3.0413818359375
3.0397705078125
3.0365478515624997
3.0389648437499996
2.9575927734375
2.8794433593749997
3.0381591796875
3.0429931640624996
3.0429931640624996
3.0397705078125
3.0397705078125
3.0397705078125
2.2550537109374997
0.6380859375
0.033032226562499996
0.033032226562499996
0.0322265625
0.033032226562499996
0.033032226562499996
0.033032226562499996
0.0346435546875
0.0322265625
0.0378662109375
0.0298095703125
0.0346435546875
0.0322265625
0.033837890625
0.02900390625
0.033837890625
0.033837890625
0.033837890625
0.03544921875
0.030615234374999998
0.033837890625
1.2238037109375
2.6659423828124997
3.0389648437499996
3.037353515625
3.0397705078125
3.0397705078125
3.0413818359375
3.0389648437499996
3.0405761718749997
3.0397705078125
3.0389648437499996
3.0381591796875
2.96162109375
2.8673583984374997
3.0389648437499996
3.0413818359375
3.0429931640624996
3.0389648437499996
3.037353515625
3.0421875
3.0389648437499996
1.5492919921875
0.0322265625
0.033837890625
0.033837890625
0.033837890625
0.0322265625
0.03544921875
0.033837890625
0.033032226562499996
0.033032226562499996
0.0314208984375
0.033837890625
0.033032226562499996
0.0314208984375
0.02900390625
0.0314208984375
0.033837890625
0.033032226562499996
0.033837890625
0.033032226562499996
0.033837890625
0.033837890625
1.8240234375
3.0397705078125
3.0381591796875
3.0389648437499996
3.034130859375
3.0389648437499996
3.0405761718749997
3.037353515625
3.0381591796875
3.0397705078125
3.0365478515624997
2.9592041015625
2.892333984375
2.8375488281249996
3.0381591796875
3.0381591796875
3.034130859375
3.0389648437499996
3.037353515625
3.0381591796875
1.0175537109375
0.0314208984375
0.0378662109375
0.02900390625
0.0314208984375
0.0298095703125
0.033032226562499996
0.033837890625
0.037060546874999996
0.033032226562499996
0.033837890625
0.0322265625
0.030615234374999998
0.037060546874999996
0.033032226562499996
0.033032226562499996
0.027392578124999997
0.033837890625
0.033032226562499996
0.0322265625
0.0362548828125
0.0314208984375
0.8660888671875
2.744091796875
3.0381591796875
3.0365478515624997
3.0349365234374996
3.0357421875
3.037353515625
3.0413818359375
3.0389648437499996
3.037353515625
3.0357421875
3.0325195312499997
3.0099609375
2.91650390625
3.0389648437499996
3.0389648437499996
3.0389648437499996
3.0397705078125
3.0397705078125
3.0405761718749997
3.0381591796875
0.16274414062499998
0.0322265625
0.0322265625
0.033837890625
0.0322265625
0.030615234374999998
0.033032226562499996
0.0362548828125
0.0322265625
0.033032226562499996
0.030615234374999998
0.0281982421875
0.033837890625
0.033032226562499996
0.033032226562499996
0.033032226562499996
0.0314208984375
0.0298095703125
0.0346435546875
0.0322265625
0.033032226562499996
0.033837890625
2.4911132812499996
3.0381591796875
3.0429931640624996
3.0357421875
3.0397705078125
3.0381591796875
3.0397705078125
3.037353515625
3.0389648437499996
3.0381591796875
3.037353515625
3.034130859375
2.914892578125
2.82626953125
3.037353515625
3.0405761718749997
3.0381591796875
3.0389648437499996
3.0389648437499996
3.0381591796875
1.1029541015625
0.0378662109375
0.033032226562499996
0.03544921875
0.0281982421875
0.033032226562499996
0.033837890625
0.0314208984375
0.033032226562499996
0.0378662109375
0.0346435546875
0.033032226562499996
0.033032226562499996
0.033837890625
0.033032226562499996
0.033837890625
0.03544921875
0.0346435546875
0.0314208984375
0.0378662109375
0.0362548828125
0.033032226562499996
1.8119384765625
2.8794433593749997
3.0405761718749997
3.0397705078125
3.0389648437499996
3.037353515625
3.0389648437499996
3.0381591796875
3.0389648437499996
3.0397705078125
3.0389648437499996
3.0389648437499996
2.9825683593749996
2.8915283203124997
3.0421875
3.0389648437499996
3.037353515625
3.0381591796875
3.037353515625
3.04541015625
3.043798828125
0.033032226562499996
0.033837890625
0.033032226562499996
0.03544921875
0.033032226562499996
0.033032226562499996
0.033032226562499996
0.0322265625
0.033032226562499996
0.033837890625
0.0322265625
0.0298095703125
0.033032226562499996
0.0298095703125
0.033032226562499996
0.033837890625
0.033837890625
0.033837890625
0.033837890625
0.0322265625
0.033032226562499996
0.3391845703125
2.41376953125
3.037353515625
3.0365478515624997
3.0389648437499996
3.0429931640624996
3.0389648437499996
3.0429931640624996
3.0421875
3.0397705078125
3.0381591796875
3.0381591796875
2.96484375
2.905224609375
3.0365478515624997
3.0381591796875
3.037353515625
3.0405761718749997
3.037353515625
3.0389648437499996
3.0365478515624997
0.7702148437499999
0.0322265625
0.0314208984375
0.0298095703125
0.0322265625
0.033032226562499996
0.037060546874999996
0.033837890625
0.033032226562499996
0.033837890625
0.0346435546875
0.0298095703125
0.0346435546875
0.033032226562499996
0.033837890625
0.0346435546875
0.0322265625
0.033837890625
0.030615234374999998
0.033032226562499996
0.033837890625
0.0322265625
2.1374267578125
3.0381591796875
3.0365478515624997
3.0389648437499996
3.0397705078125
3.0365478515624997
3.0413818359375
3.0421875
3.0413818359375
3.0381591796875
3.0389648437499996
3.0389648437499996
2.9680664062499997
2.856884765625
3.0397705078125
3.043798828125
3.0421875
3.0421875
3.037353515625
3.037353515625
1.8876708984375
0.033032226562499996
0.033837890625
0.033837890625
0.033032226562499996
0.033032226562499996
0.0346435546875
0.033837890625
0.0322265625
0.033837890625
0.033837890625
0.033837890625
0.033032226562499996
0.03544921875
0.033837890625
0.033032226562499996
0.037060546874999996
0.0298095703125
0.030615234374999998
0.0322265625
0.0281982421875
0.0346435546875
1.9859619140625
2.8713867187499997
3.0381591796875
3.0357421875
3.0405761718749997
3.0389648437499996
3.037353515625
3.0397705078125
3.0405761718749997
3.0429931640624996
3.0397705078125
3.0397705078125
3.0139892578125
2.9197265624999997
3.0397705078125
3.0413818359375
3.0357421875
3.0389648437499996
3.0413818359375
3.0381591796875
3.0397705078125
0.033032226562499996
0.0362548828125
0.0314208984375
0.033032226562499996
0.02900390625
0.033837890625
0.033837890625
0.033837890625
0.037060546874999996
0.033032226562499996
0.033837890625
0.03544921875
0.0362548828125
0.033032226562499996
0.033837890625
0.033032226562499996
0.033837890625
0.033837890625
0.033032226562499996
0.0314208984375
0.033032226562499996
0.0555908203125
2.4838623046875
3.0397705078125
3.0365478515624997
3.0357421875
3.0389648437499996
3.037353515625
3.0413818359375
3.0381591796875
3.0389648437499996
3.0381591796875
3.0381591796875
2.9656494140625
2.9455078125
3.0405761718749997
3.0429931640624996
3.0389648437499996
3.037353515625
3.0405761718749997
3.0405761718749997
3.0413818359375
0.68642578125
0.0314208984375
0.033837890625
0.033032226562499996
0.0322265625
0.0298095703125
0.037060546874999996
0.033032226562499996
0.033032226562499996
0.0346435546875
0.0322265625
0.033837890625
0.0346435546875
0.033837890625
0.03544921875
0.033032226562499996
0.0346435546875
0.033837890625
0.033837890625
0.0314208984375
0.030615234374999998
0.033032226562499996
2.0044921875
2.8947509765625
3.0389648437499996
3.037353515625
3.0405761718749997
3.037353515625
3.0405761718749997
3.0365478515624997
3.0389648437499996
3.0413818359375
3.0389648437499996
3.0381591796875
3.027685546875
2.9366455078125
3.0389648437499996
3.0381591796875
3.0397705078125
3.0389648437499996
3.0389648437499996
3.037353515625
1.4219970703125
0.030615234374999998
0.033032226562499996
0.033837890625
0.033837890625
0.033837890625
0.0322265625
0.0346435546875
0.037060546874999996
0.030615234374999998
0.0298095703125
0.037060546874999996
0.0394775390625
0.033032226562499996
0.03544921875
0.033837890625
0.0362548828125
0.0322265625
0.033837890625
0.0362548828125
0.033837890625
0.0362548828125
1.748291015625
2.8834716796874997
3.0405761718749997
3.043798828125
3.0421875
3.037353515625
3.0365478515624997
3.0397705078125
3.037353515625
3.0381591796875
3.0405761718749997
3.0357421875
3.034130859375
2.9817626953125
3.0365478515624997
3.0389648437499996
3.0405761718749997
3.0397705078125
3.043798828125
3.0365478515624997
2.8874999999999997
0.28037109374999997
0.033032226562499996
0.0322265625
0.033837890625
0.037060546874999996
0.033837890625
0.0322265625
0.0322265625
0.0298095703125
0.033032226562499996
0.033837890625
0.033032226562499996
0.0346435546875
0.033837890625
0.030615234374999998
0.033837890625
0.0322265625
0.033837890625
0.037060546874999996
0.0346435546875
0.033837890625
0.033032226562499996
2.502392578125
3.037353515625
3.0389648437499996
3.0405761718749997
3.0510498046874996
3.037353515625
3.0381591796875
3.0389648437499996
3.0381591796875
3.0389648437499996
3.0357421875
3.0091552734375
2.9930419921875
3.0389648437499996
3.0397705078125
3.0397705078125
3.0381591796875
3.0421875
3.0421875
3.0389648437499996
0.4833984375
0.03544921875
0.030615234374999998
0.033837890625
0.033032226562499996
0.033837890625
0.03544921875
0.0322265625
0.0322265625
0.030615234374999998
0.033837890625
0.033837890625
0.0322265625
0.0314208984375
0.033837890625
0.033032226562499996
0.03544921875
0.03544921875
0.0362548828125
0.0322265625
0.033837890625
0.0314208984375
2.25263671875
3.0389648437499996
3.0381591796875
3.037353515625
3.0405761718749997
3.0413818359375
3.0381591796875
3.0405761718749997
3.0381591796875
3.0389648437499996
3.0389648437499996
3.037353515625
2.9108642578125
3.0365478515624997
3.0397705078125
3.0397705078125
3.0389648437499996
3.0389648437499996
3.0381591796875
3.037353515625
1.529150390625
0.03544921875
0.0322265625
0.033837890625
0.033837890625
0.033032226562499996
0.033032226562499996
0.033032226562499996
0.0298095703125
0.0322265625
0.033032226562499996
0.033032226562499996
0.033032226562499996
0.0322265625
0.033837890625
0.033837890625
0.033032226562499996
0.0322265625
0.0314208984375
0.033032226562499996
0.033032226562499996
0.0314208984375
1.574267578125
2.9600097656249997
3.0413818359375
3.0389648437499996
3.0389648437499996
3.043798828125
3.0397705078125
3.0397705078125
3.0389648437499996
3.0389648437499996
3.04541015625
3.0389648437499996
2.96162109375
2.8931396484375
3.0397705078125
3.037353515625
3.0397705078125
3.0365478515624997
3.0349365234374996
3.0389648437499996
1.9376220703125
0.033032226562499996
0.033032226562499996
0.033837890625
0.03544921875
0.033032226562499996
0.033032226562499996
0.033032226562499996
0.033837890625
0.0322265625
0.0298095703125
0.033032226562499996
0.0362548828125
0.030615234374999998
0.0362548828125
0.033837890625
0.033032226562499996
0.033032226562499996
0.033032226562499996
0.033837890625
0.0362548828125
0.0362548828125
0.033837890625
2.6176025390624997
3.0365478515624997
3.0357421875
3.0389648437499996
3.037353515625
3.037353515625
3.0397705078125
3.0389648437499996
3.0381591796875
3.0397705078125
3.037353515625
3.0075439453125
2.9608154296875
3.0357421875
3.0325195312499997
3.0381591796875
3.0389648437499996
3.037353515625
3.0357421875
3.0421875
0.23283691406249998
0.033837890625
0.033032226562499996
0.033837890625
0.030615234374999998
0.033032226562499996
0.033837890625
0.0322265625
0.033837890625
0.030615234374999998
0.0322265625
0.0322265625
0.033032226562499996
0.033837890625
0.037060546874999996
0.033032226562499996
0.0322265625
0.033837890625
0.0322265625
0.033032226562499996
0.0362548828125
0.033837890625
2.3960449218749997
3.0421875
3.037353515625
3.0397705078125
3.0389648437499996
3.0389648437499996
3.0381591796875
3.0397705078125
3.0389648437499996
3.0421875
3.0365478515624997
3.0389648437499996
2.9680664062499997
3.0389648437499996
3.0389648437499996
3.0421875
3.0397705078125
3.0389648437499996
3.0381591796875
3.0301025390625
1.3462646484374998
0.0362548828125
0.033837890625
0.033837890625
0.033032226562499996
0.033032226562499996
0.033837890625
0.033837890625
0.033032226562499996
0.033032226562499996
0.0314208984375
0.0362548828125
0.033032226562499996
0.0322265625
0.0298095703125
0.033032226562499996
0.030615234374999998
0.0346435546875
0.033032226562499996
0.033032226562499996
0.0346435546875
0.0322265625
1.5082031249999999
2.96162109375
3.0397705078125
3.0389648437499996
3.0389648437499996
3.0389648437499996
3.0389648437499996
3.0397705078125
3.0397705078125
3.0381591796875
3.0397705078125
3.0389648437499996
3.0172119140625
2.8955566406249997
3.037353515625
3.0389648437499996
3.0405761718749997
3.0365478515624997
3.0389648437499996
3.0405761718749997
1.039306640625
0.0346435546875
0.033032226562499996
0.020947265625
0.033837890625
0.033032226562499996
0.033837890625
0.0314208984375
0.0314208984375
0.033032226562499996
0.033837890625
0.033837890625
0.0314208984375
0.030615234374999998
0.0322265625
0.033837890625
0.0298095703125
0.033032226562499996
0.0362548828125
0.033837890625
0.0314208984375
0.033032226562499996
0.0322265625
2.5491210937499997
3.0389648437499996
3.0389648437499996
3.0389648437499996
3.0397705078125
3.037353515625
3.0421875
3.0381591796875
3.0429931640624996
3.0389648437499996
3.0397705078125
3.0357421875
2.9753173828125
3.037353515625
3.0413818359375
3.0397705078125
3.0389648437499996
3.0381591796875
3.0349365234374996
3.0389648437499996
0.033032226562499996
0.033837890625
0.030615234374999998
0.0346435546875
0.033032226562499996
0.0362548828125
0.033032226562499996
0.03544921875
0.033032226562499996
0.0314208984375
0.0322265625
0.033032226562499996
0.033032226562499996
0.033837890625
0.033032226562499996
0.03544921875
0.0346435546875
0.0314208984375
0.0322265625
0.0362548828125
0.033032226562499996
0.0362548828125
2.2179931640625
3.0325195312499997
3.0397705078125
3.0365478515624997
3.037353515625
3.0389648437499996
3.0381591796875
3.0413818359375
3.0389648437499996
3.0397705078125
3.0421875
2.995458984375
3.021240234375
3.037353515625
3.0389648437499996
3.037353515625
3.037353515625
3.0357421875
3.0381591796875
3.037353515625
0.9796874999999999
0.0298095703125
0.033032226562499996
0.033032226562499996
0.0314208984375
0.0314208984375
0.033032226562499996
0.033032226562499996
0.033032226562499996
0.033032226562499996
0.0346435546875
0.033032226562499996
0.033032226562499996
0.033032226562499996
0.033837890625
0.033837890625
0.033032226562499996
0.03544921875
0.033837890625
0.033032226562499996
0.033032226562499996
0.0322265625
1.7740722656249999
2.856884765625
3.0381591796875
3.0389648437499996
3.0421875
3.0397705078125
3.0397705078125
3.037353515625
3.0365478515624997
3.0397705078125
3.0381591796875
3.0381591796875
3.021240234375
2.9197265624999997
3.0397705078125
3.0397705078125
3.037353515625
3.0349365234374996
3.0405761718749997
3.0397705078125
1.0191650390625
0.037060546874999996
0.033837890625
0.0362548828125
0.033032226562499996
0.033837890625
0.0362548828125
0.033032226562499996
0.037060546874999996
0.033032226562499996
0.033032226562499996
0.033032226562499996
0.033837890625
0.033837890625
0.0298095703125
0.0362548828125
0.0346435546875
0.0298095703125
0.0362548828125
0.033032226562499996
0.033032226562499996
0.0322265625
1.1279296875
2.776318359375
3.0357421875
3.0381591796875
3.0405761718749997
3.0389648437499996
3.0357421875
3.0381591796875
3.0413818359375
3.037353515625
3.0397705078125
3.037353515625
3.0357421875
2.96484375
3.0421875
3.0389648437499996
3.0405761718749997
3.0389648437499996
3.0389648437499996
3.0389648437499996
3.0365478515624997
0.033032226562499996
0.033032226562499996
0.030615234374999998
0.0346435546875
0.033837890625
0.0314208984375
0.033032226562499996
0.033837890625
0.033032226562499996
0.0298095703125
0.033032226562499996
0.0378662109375
0.0322265625
0.033837890625
0.033032226562499996
0.0346435546875
0.033032226562499996
0.0362548828125
0.033837890625
0.033032226562499996
0.033837890625
0.033837890625
2.1704589843749997
3.0381591796875
3.0421875
3.0397705078125
3.0421875
3.0381591796875
3.0389648437499996
3.0429931640624996
3.037353515625
3.0381591796875
3.0397705078125
2.9527587890625
2.9302001953124996
3.0389648437499996
3.0397705078125
3.0397705078125
3.0397705078125
3.0421875
3.0389648437499996
3.0381591796875
0.7339599609374999
0.033837890625
0.033032226562499996
0.033032226562499996
0.033032226562499996
0.0281982421875
0.033837890625
0.033032226562499996
0.033837890625
0.03544921875
0.0346435546875
0.033032226562499996
0.0322265625
0.0362548828125
0.0362548828125
0.033032226562499996
0.033032226562499996
0.033837890625
0.033837890625
0.033837890625
0.033837890625
0.033837890625
1.9021728515624998
2.9302001953124996
3.0405761718749997
3.0381591796875
3.0357421875
3.0389648437499996
3.0413818359375
3.0381591796875
3.0381591796875
3.0389648437499996
3.0397705078125
3.0188232421874996
2.9463134765624996
2.9100585937499996
3.0381591796875
3.0389648437499996
3.0389648437499996
3.0405761718749997
3.0421875
3.0413818359375
1.4961181640624999
0.033837890625
0.033837890625
0.033837890625
0.033032226562499996
0.0314208984375
0.0362548828125
0.0346435546875
0.0322265625
0.037060546874999996
0.033032226562499996
0.033032226562499996
0.0362548828125
0.0346435546875
0.033032226562499996
0.033032226562499996
0.033837890625
0.033032226562499996
0.033837890625
0.033032226562499996
0.033032226562499996
0.033032226562499996
1.7313720703125
2.8190185546874997
3.037353515625
3.0381591796875
3.0349365234374996
3.0381591796875
3.0397705078125
3.0429931640624996
3.0397705078125
3.0421875
3.0397705078125
3.037353515625
3.0188232421874996
2.9922363281249997
3.0381591796875
3.0421875
3.0389648437499996
3.0397705078125
3.0405761718749997
3.0397705078125
3.0381591796875
0.033032226562499996
0.033837890625
0.033837890625
0.033837890625
0.0346435546875
0.033837890625
0.033032226562499996
0.033032226562499996
0.033837890625
0.0322265625
0.033837890625
0.0362548828125
0.030615234374999998
0.033837890625
0.033837890625
0.030615234374999998
0.0314208984375
0.0346435546875
0.0314208984375
0.033032226562499996
0.02900390625
0.8572265625
2.4169921875
3.0413818359375
3.0421875
3.0365478515624997
3.0405761718749997
3.0389648437499996
3.0365478515624997
3.0389648437499996
3.0389648437499996
3.0397705078125
3.0349365234374996
3.0333251953125
2.96484375
3.0357421875
3.0405761718749997
3.0381591796875
3.0421875
3.034130859375
3.0405761718749997
3.0421875
0.5551025390625
0.0314208984375
0.0362548828125
0.033032226562499996
0.033032226562499996
0.033032226562499996
0.0322265625
0.033837890625
0.0298095703125
0.033032226562499996
0.033837890625
0.033032226562499996
0.033837890625
0.033032226562499996
0.033032226562499996
0.0298095703125
0.0322265625
0.0346435546875
0.033032226562499996
0.0298095703125
0.033837890625
0.030615234374999998
2.0326904296875
2.8770263671875
3.0397705078125
3.0389648437499996
3.0429931640624996
3.0389648437499996
3.0389648437499996
3.0381591796875
3.0365478515624997
3.0405761718749997
3.0397705078125
3.0365478515624997
2.947119140625
3.0349365234374996
3.0405761718749997
3.0365478515624997
3.037353515625
3.0397705078125
3.0381591796875
3.0397705078125
1.6161621093749998
0.0322265625
0.033837890625
0.033032226562499996
0.0314208984375
0.033837890625
0.033032226562499996
0.033032226562499996
0.0322265625
0.033032226562499996
0.033837890625
0.033837890625
0.033032226562499996
0.046728515624999994
0.026586914062499998
0.033032226562499996
0.030615234374999998
0.0314208984375
0.033032226562499996
0.033837890625
0.033837890625
0.0346435546875
1.635498046875
2.7489257812499996
3.0357421875
3.0397705078125
3.0357421875
3.0389648437499996
3.0397705078125
3.034130859375
3.0405761718749997
3.0389648437499996
3.0397705078125
3.0397705078125
2.9922363281249997
2.9382568359374996
3.0397705078125
3.0381591796875
3.0397705078125
3.0381591796875
3.0381591796875
3.0381591796875
2.7585937499999997
0.033837890625
0.033837890625
0.0322265625
0.033032226562499996
0.0322265625
0.033837890625
0.033032226562499996
0.0322265625
0.0322265625
0.033032226562499996
0.033032226562499996
0.0362548828125
0.033837890625
0.033837890625
0.0298095703125
0.037060546874999996
0.033837890625
0.033837890625
0.0322265625
0.0362548828125
0.033837890625
1.6451660156249999
2.5853759765624997
3.0421875
3.0365478515624997
3.0397705078125
3.0381591796875
3.0381591796875
3.0381591796875
3.0397705078125
3.0397705078125
3.0389648437499996
3.0405761718749997
3.0389648437499996
2.9608154296875
3.0389648437499996
3.0421875
3.043798828125
3.0389648437499996
3.0389648437499996
3.0381591796875
3.0349365234374996
0.4189453125
0.03544921875
0.0362548828125
0.033837890625
0.0298095703125
0.0322265625
0.033837890625
0.033032226562499996
0.033032226562499996
0.037060546874999996
0.0346435546875
0.033837890625
0.0298095703125
0.033032226562499996
0.03544921875
0.0298095703125
0.0322265625
0.0298095703125
0.033837890625
0.037060546874999996
0.0322265625
0.033837890625
2.1809326171875
3.0139892578125
3.0397705078125
3.0405761718749997
3.0365478515624997
3.0389648437499996
3.0381591796875
3.0357421875
3.0397705078125
3.0397705078125
3.0389648437499996
3.0381591796875
2.995458984375
3.037353515625
3.0397705078125
3.037353515625
3.0389648437499996
3.0365478515624997
3.0389648437499996
3.0397705078125
1.50498046875
0.03544921875
0.033032226562499996
0.0346435546875
0.033837890625
0.033032226562499996
0.033837890625
0.033032226562499996
0.022558593749999998
0.033032226562499996
0.033032226562499996
0.0322265625
0.03544921875
0.033032226562499996
0.033032226562499996
0.030615234374999998
0.0322265625
0.033837890625
0.033032226562499996
0.037060546874999996
0.033032226562499996
0.033837890625
1.4655029296875
2.8415771484374996
3.0381591796875
3.0413818359375
3.0413818359375
3.0381591796875
3.0405761718749997
3.0397705078125
3.0389648437499996
3.0357421875
3.0389648437499996
3.0429931640624996
3.0067382812499996
2.963232421875
3.0397705078125
3.0389648437499996
3.0357421875
3.0389648437499996
3.0365478515624997
3.0397705078125
2.2510253906249997
0.033837890625
0.0322265625
0.033032226562499996
0.0314208984375
0.0394775390625
0.033032226562499996
0.033837890625
0.033837890625
0.0346435546875
0.033032226562499996
0.03544921875
0.033032226562499996
0.0322265625
0.0322265625
0.033032226562499996
0.03544921875
0.037060546874999996
0.037060546874999996
0.033837890625
0.0362548828125
0.033032226562499996
1.7781005859374999
2.67158203125
3.0405761718749997
3.0421875
3.0389648437499996
3.0381591796875
3.0397705078125
3.0405761718749997
3.037353515625
3.0381591796875
3.0421875
3.0381591796875
3.02607421875
2.92294921875
3.0429931640624996
3.0365478515624997
3.0389648437499996
3.0405761718749997
3.0421875
3.0381591796875
2.9124755859375
0.1506591796875
0.033032226562499996
0.0346435546875
0.033032226562499996
0.0298095703125
0.03544921875
0.0322265625
0.033837890625
0.02900390625
0.033837890625
0.0346435546875
0.0322265625
0.033032226562499996
0.033837890625
0.033837890625
0.033032226562499996
0.0314208984375
0.03544921875
0.030615234374999998
0.0298095703125
0.0298095703125
0.0322265625
2.07861328125
2.9503417968749996
3.0397705078125
3.0381591796875
3.0397705078125
3.0349365234374996
3.0389648437499996
3.0413818359375
3.0397705078125
3.0389648437499996
3.0397705078125
3.0405761718749997
2.9745117187499996
3.0397705078125
3.0381591796875
3.0389648437499996
3.0405761718749997
3.037353515625
3.0397705078125
3.0389648437499996
1.200439453125
0.0314208984375
0.0378662109375
0.02900390625
0.0298095703125
0.0378662109375
0.033032226562499996
0.033032226562499996
0.033032226562499996
0.033837890625
0.0322265625
0.0314208984375
0.03544921875
0.033032226562499996
0.033837890625
0.0322265625
0.0378662109375
0.033837890625
0.037060546874999996
0.0362548828125
0.033837890625
0.033837890625
1.5033691406249998
3.0099609375
3.0389648437499996
3.0381591796875
3.043798828125
3.0389648437499996
3.0389648437499996
3.0421875
3.0397705078125
3.0397705078125
3.037353515625
3.037353515625
2.9761230468749997
2.931005859375
3.037353515625
3.0365478515624997
3.037353515625
3.037353515625
3.0381591796875
3.0389648437499996
1.04736328125
0.033032226562499996
0.0346435546875
0.0362548828125
0.033032226562499996
0.0298095703125
0.030615234374999998
0.0322265625
0.0298095703125
0.033032226562499996
0.033032226562499996
0.030615234374999998
0.0362548828125
0.033837890625
0.033032226562499996
0.033032226562499996
0.033837890625
0.0362548828125
0.0322265625
0.0322265625
0.033837890625
0.033032226562499996
1.4598632812499999
2.6449951171875
3.0462158203125
3.0413818359375
3.0381591796875
3.0397705078125
3.0405761718749997
3.0397705078125
3.037353515625
3.0381591796875
3.0357421875
3.0389648437499996
3.0139892578125
2.9511474609375
3.0389648437499996
3.0349365234374996
3.037353515625
3.0397705078125
3.0357421875
3.0389648437499996
1.972265625
0.033837890625
0.033032226562499996
0.033032226562499996
0.033032226562499996
0.0322265625
0.033837890625
0.0314208984375
0.0322265625
0.02900390625
0.0346435546875
0.0298095703125
0.0322265625
0.033032226562499996
0.033032226562499996
0.0322265625
0.033032226562499996
0.033837890625
0.037060546874999996
0.033032226562499996
0.0322265625
0.033837890625
0.033837890625
2.270361328125
3.0357421875
3.0389648437499996
3.0429931640624996
3.0389648437499996
3.0365478515624997
3.0397705078125
3.0389648437499996
3.0365478515624997
3.037353515625
3.0389648437499996
3.0325195312499997
2.969677734375
3.0413818359375
3.043798828125
3.0389648437499996
3.037353515625
3.0365478515624997
3.0381591796875
3.0405761718749997
0.958740234375
0.033032226562499996
0.03544921875
0.0314208984375
0.033032226562499996
0.033032226562499996
0.0314208984375
0.03544921875
0.033837890625
0.033032226562499996
0.0346435546875
0.02900390625
0.0322265625
0.037060546874999996
0.030615234374999998
0.033032226562499996
0.033032226562499996
0.0362548828125
0.0322265625
0.033837890625
0.033032226562499996
0.033837890625
1.58232421875
3.003515625
3.0421875
3.0381591796875
3.0357421875
3.0389648437499996
3.0389648437499996
3.0381591796875
3.0365478515624997
3.0365478515624997
3.0389648437499996
3.0357421875
2.9922363281249997
2.9600097656249997
3.0421875
3.037353515625
3.0365478515624997
3.0365478515624997
3.0349365234374996
3.0389648437499996
1.0046630859374999
0.033837890625
0.033837890625
0.033837890625
0.02900390625
0.033837890625
0.0362548828125
0.037060546874999996
0.0362548828125
0.030615234374999998
0.0322265625
0.033032226562499996
0.0322265625
0.0298095703125
0.033032226562499996
0.033032226562499996
0.0322265625
0.0346435546875
0.033032226562499996
0.0362548828125
0.033032226562499996
0.033837890625
1.43408203125
2.6691650390625
3.0389648437499996
3.0405761718749997
3.0365478515624997
3.0381591796875
3.0397705078125
3.0397705078125
3.037353515625
3.0389648437499996
3.0405761718749997
3.0381591796875
2.9970703125
2.9342285156249996
3.0421875
3.0397705078125
3.0405761718749997
3.0397705078125
3.0389648437499996
3.0381591796875
1.1996337890625
0.033032226562499996
0.03544921875
0.033837890625
0.033837890625
0.033837890625
0.033032226562499996
0.033032226562499996
0.0314208984375
0.02900390625
0.0346435546875
0.0362548828125
0.0322265625
0.033032226562499996
0.0314208984375
0.0322265625
0.033837890625
0.033837890625
0.0346435546875
0.030615234374999998
0.0298095703125
0.03544921875
0.033837890625
2.1438720703125
3.0405761718749997
3.0381591796875
3.0405761718749997
3.0421875
3.0413818359375
3.0421875
3.0333251953125
3.0421875
3.0397705078125
3.0397705078125
3.0156005859375
2.9672607421875
3.0397705078125
3.0381591796875
3.0381591796875
3.0389648437499996
3.0389648437499996
3.0389648437499996
3.0365478515624997
0.6952880859374999
0.0362548828125
0.02900390625
0.033032226562499996
0.033032226562499996
0.033032226562499996
