1.9215087890625
2.8738037109374996
3.0365478515624997
3.0389648437499996
3.0405761718749997
3.0413818359375
3.0389648437499996
3.037353515625
3.0357421875
3.0397705078125
3.0405761718749997
3.037353515625
2.9189208984375
2.874609375
3.0413818359375
3.0397705078125
3.0389648437499996
3.037353515625
3.0389648437499996
3.0389648437499996
2.07216796875
0.1426025390625
0.0362548828125
0.0298095703125
0.033837890625
0.033837890625
0.0362548828125
0.033032226562499996
0.0346435546875
0.033837890625
0.033032226562499996
0.0322265625
0.0322265625
0.02900390625
0.0322265625
0.0322265625
0.033032226562499996
0.0322265625
0.033032226562499996
0.0298095703125
0.0322265625
0.0314208984375
0.033032226562499996
2.534619140625
3.0405761718749997
3.0405761718749997
3.0389648437499996
3.0405761718749997
3.0405761718749997
3.0397705078125
3.0389648437499996
3.0381591796875
3.0389648437499996
3.0389648437499996
3.029296875
2.9600097656249997
3.037353515625
3.0389648437499996
3.0357421875
3.0405761718749997
3.0397705078125
3.0397705078125
3.0405761718749997
1.3639892578125
0.0322265625
0.033032226562499996
0.033032226562499996
0.033032226562499996
0.033032226562499996
0.033837890625
0.033837890625
0.0298095703125
0.033032226562499996
0.030615234374999998
0.03544921875
0.033032226562499996
0.0322265625
0.033032226562499996
0.033032226562499996
0.027392578124999997
0.0298095703125
0.0298095703125
0.033837890625
0.033032226562499996
0.030615234374999998
2.4041015624999997
3.0389648437499996
3.0397705078125
3.0365478515624997
3.034130859375
3.0357421875
3.034130859375
3.0413818359375
3.0357421875
3.037353515625
3.0421875
3.0309082031249996
2.985791015625
3.0397705078125
3.0389648437499996
3.0381591796875
3.0429931640624996
3.037353515625
3.0389648437499996
3.0389648437499996
1.706396484375
0.030615234374999998
0.033032226562499996
0.033032226562499996
0.0362548828125
0.033032226562499996
0.030615234374999998
0.033837890625
0.0322265625
0.033032226562499996
0.0362548828125
0.033837890625
0.033032226562499996
0.033032226562499996
0.0314208984375
0.0322265625
0.0346435546875
0.033837890625
0.033032226562499996
0.02900390625
0.0322265625
0.033032226562499996
1.4912841796874998
2.6014892578124997
3.0357421875
3.037353515625
3.0389648437499996
3.0421875
3.0389648437499996
3.0381591796875
3.0389648437499996
3.037353515625
3.0381591796875
3.0349365234374996
3.0139892578125
2.9285888671875
3.0381591796875
3.0357421875
3.0357421875
3.0365478515624997
3.0389648437499996
3.0349365234374996
1.6765869140624998
0.02900390625
0.0322265625
0.0322265625
0.033837890625
0.0322265625
0.033837890625
0.033032226562499996
0.0362548828125
0.02900390625
0.033032226562499996
0.033032226562499996
0.033032226562499996
0.0362548828125
0.0362548828125
0.0322265625
0.033837890625
0.0346435546875
0.0322265625
0.033032226562499996
0.0322265625
0.0322265625
0.323876953125
2.5813476562499997
3.0381591796875
3.037353515625
3.0397705078125
3.0365478515624997
3.0381591796875
3.037353515625
3.037353515625
3.0397705078125
3.0381591796875
3.0389648437499996
3.0325195312499997
2.931005859375
3.0389648437499996
3.0381591796875
3.037353515625
3.0413818359375
3.0421875
3.0397705078125
3.037353515625
0.2537841796875
0.033032226562499996
0.0322265625
0.0322265625
0.0322265625
0.03544921875
0.033032226562499996
0.037060546874999996
0.033032226562499996
0.0362548828125
0.0322265625
0.02900390625
0.0298095703125
0.03544921875
0.0314208984375
0.033032226562499996
0.033032226562499996
0.033032226562499996
0.033032226562499996
0.0281982421875
0.033837890625
0.033032226562499996
2.2389404296874997
3.0107666015624996
3.0405761718749997
3.0389648437499996
3.0421875
3.0397705078125
3.0397705078125
3.037353515625
3.0357421875
3.0365478515624997
3.0397705078125
3.037353515625
2.9817626953125
3.037353515625
3.0381591796875
3.0405761718749997
3.0397705078125
3.0381591796875
3.0413818359375
3.0405761718749997
1.458251953125
0.0362548828125
0.033032226562499996
0.033032226562499996
0.0298095703125
0.033032226562499996
0.0322265625
0.0378662109375
0.033032226562499996
0.0346435546875
0.03544921875
0.026586914062499998
0.0322265625
0.0281982421875
0.0322265625
0.0298095703125
0.033032226562499996
0.0314208984375
0.03544921875
0.033837890625
0.0346435546875
0.0322265625
1.6604736328124998
3.0357421875
3.0397705078125
3.0405761718749997
3.037353515625
3.0405761718749997
3.0397705078125
3.0365478515624997
3.0381591796875
3.0397705078125
3.0389648437499996
3.037353515625
2.9994873046875
2.9414794921875
3.0349365234374996
3.0381591796875
3.0405761718749997
3.0333251953125
3.037353515625
3.0365478515624997
1.5428466796875
0.0298095703125
0.033032226562499996
0.033032226562499996
0.033837890625
0.033032226562499996
0.033032226562499996
0.0314208984375
0.0362548828125
0.0362548828125
0.033837890625
0.0322265625
0.0362548828125
0.0362548828125
0.0298095703125
0.033837890625
0.03544921875
0.0314208984375
0.033837890625
0.0322265625
0.0322265625
0.0322265625
0.78955078125
2.6321044921874996
3.0421875
3.0389648437499996
3.0365478515624997
3.0381591796875
3.0381591796875
3.0429931640624996
3.0413818359375
3.0429931640624996
3.0405761718749997
3.0389648437499996
3.037353515625
3.0067382812499996
3.0389648437499996
3.0405761718749997
3.0381591796875
3.037353515625
3.037353515625
3.0381591796875
3.0389648437499996
0.078955078125
0.033032226562499996
0.033032226562499996
0.033032226562499996
0.02900390625
0.033032226562499996
0.0314208984375
0.02900390625
0.0346435546875
0.0362548828125
0.0322265625
0.0314208984375
0.0322265625
0.033032226562499996
0.0314208984375
0.0314208984375
0.0322265625
0.033032226562499996
0.033032226562499996
0.033837890625
0.037060546874999996
0.033032226562499996
2.3098388671875
3.0365478515624997
3.0397705078125
3.0405761718749997
3.0389648437499996
3.0405761718749997
3.0381591796875
3.0421875
3.0389648437499996
3.0421875
3.0397705078125
3.037353515625
2.972900390625
3.0389648437499996
3.0405761718749997
3.043798828125
3.0349365234374996
3.0381591796875
3.0389648437499996
3.0421875
1.0046630859374999
0.033032226562499996
0.033032226562499996
0.0322265625
0.0322265625
0.0281982421875
0.0322265625
0.03544921875
0.03544921875
0.033032226562499996
0.0322265625
0.0322265625
0.0314208984375
0.0362548828125
0.033032226562499996
0.0298095703125
0.02900390625
0.033032226562499996
0.033032226562499996
0.033837890625
0.033032226562499996
0.033032226562499996
1.6588623046875
3.011572265625
3.0405761718749997
3.0381591796875
3.0397705078125
3.0405761718749997
3.0349365234374996
3.037353515625
3.0381591796875
3.0405761718749997
3.0397705078125
3.027685546875
2.9801513671874997
2.866552734375
3.0365478515624997
3.0397705078125
3.0365478515624997
3.0389648437499996
3.0389648437499996
3.0413818359375
1.4622802734375
0.0322265625
0.033032226562499996
0.033032226562499996
0.030615234374999998
0.033032226562499996
0.0322265625
0.0298095703125
0.0346435546875
0.037060546874999996
0.033837890625
0.02900390625
0.030615234374999998
0.0322265625
0.033032226562499996
0.033837890625
0.033032226562499996
0.0322265625
0.033032226562499996
0.037060546874999996
0.0322265625
0.0362548828125
1.58232421875
2.760205078125
3.0421875
3.0357421875
3.0365478515624997
3.0381591796875
3.0389648437499996
3.0405761718749997
3.0389648437499996
3.0397705078125
3.0405761718749997
3.0397705078125
3.037353515625
2.9712890625
3.037353515625
3.0365478515624997
3.0357421875
3.0365478515624997
3.037353515625
3.0357421875
3.0381591796875
0.0314208984375
0.03544921875
0.033032226562499996
0.033032226562499996
0.0362548828125
0.0298095703125
0.033032226562499996
0.0346435546875
0.0298095703125
0.033837890625
0.033032226562499996
0.0322265625
0.0322265625
0.0322265625
0.0362548828125
0.033032226562499996
0.0322265625
0.0322265625
0.0298095703125
0.033032226562499996
0.0298095703125
1.2028564453125
2.3452880859375
3.0413818359375
3.0429931640624996
3.0365478515624997
3.0405761718749997
3.0413818359375
3.0357421875
3.0365478515624997
3.0397705078125
3.0405761718749997
3.0381591796875
3.0123779296874997
2.9986816406249996
3.037353515625
3.0397705078125
3.0389648437499996
3.0389648437499996
3.0389648437499996
3.037353515625
3.0397705078125
0.8926757812499999
0.033032226562499996
0.033032226562499996
0.033837890625
0.02900390625
0.033032226562499996
0.033032226562499996
0.033837890625
0.033837890625
0.0314208984375
0.0322265625
0.033032226562499996
0.0322265625
0.0298095703125
0.030615234374999998
0.033032226562499996
0.0322265625
0.033837890625
0.0322265625
0.033032226562499996
0.03544921875
0.0322265625
2.0633056640625
3.0405761718749997
3.0413818359375
3.0397705078125
3.0365478515624997
3.0381591796875
3.0389648437499996
3.027685546875
3.0365478515624997
3.0397705078125
3.0381591796875
3.0059326171875
2.99384765625
3.0357421875
3.037353515625
3.0365478515624997
3.0397705078125
3.0381591796875
3.0413818359375
3.0357421875
1.6290527343749999
0.0322265625
0.030615234374999998
0.033032226562499996
0.0322265625
0.033032226562499996
0.033032226562499996
0.033032226562499996
0.033837890625
0.033837890625
0.0362548828125
0.0322265625
0.033032226562499996
0.0322265625
0.0346435546875
0.033032226562499996
0.0322265625
0.033032226562499996
0.033032226562499996
0.02900390625
0.0281982421875
0.0298095703125
1.5541259765625
2.776318359375
3.0381591796875
3.0397705078125
3.0429931640624996
3.0413818359375
3.0405761718749997
3.0421875
3.037353515625
3.0389648437499996
3.0413818359375
3.0421875
3.0349365234374996
2.9640380859374997
3.0397705078125
3.0389648437499996
3.0381591796875
3.037353515625
3.0349365234374996
3.0381591796875
3.0397705078125
0.0322265625
0.0346435546875
0.02900390625
0.02900390625
0.030615234374999998
0.033032226562499996
0.037060546874999996
0.0362548828125
0.033837890625
0.0322265625
0.030615234374999998
0.033837890625
0.03544921875
0.033032226562499996
0.033032226562499996
0.033032226562499996
0.033032226562499996
0.0322265625
0.0314208984375
0.033032226562499996
0.0298095703125
1.611328125
2.53623046875
3.0357421875
3.0405761718749997
3.0389648437499996
3.0381591796875
3.0405761718749997
3.0381591796875
3.037353515625
3.0381591796875
3.0357421875
3.0381591796875
2.995458984375
2.9600097656249997
3.0389648437499996
3.0349365234374996
3.0397705078125
3.0397705078125
3.0405761718749997
3.037353515625
3.0389648437499996
0.5631591796875
0.0322265625
0.033032226562499996
0.0314208984375
0.0314208984375
0.0298095703125
0.0298095703125
0.033032226562499996
0.0362548828125
0.033032226562499996
0.0322265625
0.0346435546875
0.0322265625
0.0322265625
0.0346435546875
0.033032226562499996
0.02900390625
0.0314208984375
0.033032226562499996
0.0362548828125
0.0346435546875
0.03544921875
2.199462890625
3.0389648437499996
3.0381591796875
3.0389648437499996
3.0421875
3.0397705078125
3.0405761718749997
3.037353515625
3.0405761718749997
3.0389648437499996
3.0381591796875
3.0365478515624997
2.98740234375
3.037353515625
3.0389648437499996
3.037353515625
3.0349365234374996
3.037353515625
3.037353515625
3.037353515625
1.7184814453125
0.033837890625
0.033032226562499996
0.0322265625
0.0322265625
0.03544921875
0.03544921875
0.033032226562499996
0.0322265625
0.0346435546875
0.033032226562499996
0.0346435546875
0.0322265625
0.0322265625
0.030615234374999998
0.0322265625
0.033032226562499996
0.0346435546875
0.0314208984375
0.033032226562499996
0.03544921875
0.033032226562499996
1.9303710937499998
2.8230468749999997
3.0365478515624997
3.0381591796875
3.0381591796875
3.0389648437499996
3.037353515625
3.0397705078125
3.0381591796875
3.037353515625
3.0389648437499996
3.0405761718749997
3.0349365234374996
2.989013671875
3.0389648437499996
3.0389648437499996
3.037353515625
3.0357421875
3.0357421875
3.0333251953125
3.0349365234374996
0.0322265625
0.033032226562499996
0.033032226562499996
0.033032226562499996
0.03544921875
0.0322265625
0.0322265625
0.033032226562499996
0.033032226562499996
0.033032226562499996
0.0322265625
0.033032226562499996
0.0346435546875
0.0378662109375
0.0362548828125
0.033032226562499996
0.03544921875
0.0322265625
0.030615234374999998
0.033837890625
0.033032226562499996
1.609716796875
2.6135742187499997
3.0405761718749997
3.037353515625
3.037353515625
3.037353515625
3.037353515625
3.0421875
3.0349365234374996
3.0357421875
3.037353515625
3.037353515625
3.0156005859375
2.9970703125
3.0381591796875
3.037353515625
3.0381591796875
3.0357421875
3.037353515625
3.0389648437499996
3.0397705078125
0.41733398437499997
0.033032226562499996
0.033032226562499996
0.033032226562499996
0.033032226562499996
0.0322265625
0.0322265625
0.0314208984375
0.033032226562499996
0.033837890625
0.033837890625
0.033837890625
0.033837890625
0.033032226562499996
0.0298095703125
0.033837890625
0.0314208984375
0.0322265625
0.0322265625
0.030615234374999998
0.03544921875
0.0322265625
2.1938232421875
3.0381591796875
3.0381591796875
3.0365478515624997
3.0413818359375
3.0389648437499996
3.037353515625
3.037353515625
3.0349365234374996
3.0389648437499996
3.0381591796875
3.0252685546875
2.9986816406249996
3.037353515625
3.0389648437499996
3.0405761718749997
3.0349365234374996
3.0405761718749997
3.0397705078125
3.0357421875
1.4510009765624998
0.026586914062499998
0.0322265625
0.0322265625
0.0362548828125
0.033032226562499996
0.033032226562499996
0.033032226562499996
0.0322265625
0.02900390625
0.0322265625
0.0314208984375
0.0322265625
0.037060546874999996
0.0322265625
0.033032226562499996
0.0322265625
0.033032226562499996
0.033837890625
0.033032226562499996
0.033032226562499996
0.033032226562499996
2.1100341796874997
2.8939453124999996
3.0405761718749997
3.0397705078125
3.0397705078125
3.0381591796875
3.0389648437499996
3.0365478515624997
3.0389648437499996
3.0405761718749997
3.0397705078125
3.0421875
3.037353515625
2.9664550781249996
3.0365478515624997
3.037353515625
3.0389648437499996
3.0397705078125
3.0381591796875
3.0421875
1.9360107421875
0.02900390625
0.0322265625
0.0314208984375
0.0322265625
0.033032226562499996
0.0322265625
0.033032226562499996
0.0322265625
0.0322265625
0.0298095703125
0.0314208984375
0.0362548828125
0.033837890625
0.03544921875
0.0362548828125
0.033032226562499996
0.02900390625
0.033837890625
0.0322265625
0.0322265625
0.033032226562499996
1.405078125
2.4580810546875
3.0421875
3.0381591796875
3.0365478515624997
3.0405761718749997
3.0397705078125
3.0397705078125
3.0421875
3.0389648437499996
3.0357421875
3.0389648437499996
3.0164062499999997
2.94873046875
3.0397705078125
3.0429931640624996
3.0405761718749997
3.0405761718749997
3.0389648437499996
3.0381591796875
2.47822265625
0.1490478515625
0.033837890625
0.033032226562499996
0.0322265625
0.033837890625
0.033837890625
0.033032226562499996
0.030615234374999998
0.0314208984375
0.0322265625
0.033032226562499996
0.030615234374999998
0.033032226562499996
0.0281982421875
0.033837890625
0.0346435546875
0.033032226562499996
0.0322265625
0.02900390625
0.0314208984375
0.0322265625
0.033837890625
2.386376953125
3.0365478515624997
3.0397705078125
3.037353515625
3.0389648437499996
3.0389648437499996
3.0413818359375
3.0389648437499996
3.0405761718749997
3.0397705078125
3.0397705078125
3.005126953125
2.9761230468749997
3.034130859375
3.0397705078125
3.0389648437499996
3.0349365234374996
3.0381591796875
3.0405761718749997
3.0389648437499996
1.300341796875
0.033032226562499996
0.0322265625
0.0314208984375
0.033032226562499996
0.033032226562499996
0.033837890625
0.030615234374999998
0.033837890625
0.033032226562499996
0.0362548828125
0.0322265625
0.0322265625
0.033032226562499996
0.02900390625
0.037060546874999996
0.0298095703125
0.0281982421875
0.0314208984375
0.0322265625
0.033032226562499996
0.0322265625
1.8143554687499999
3.037353515625
3.0405761718749997
3.0357421875
3.0389648437499996
3.0381591796875
3.0405761718749997
3.0405761718749997
3.0381591796875
3.0397705078125
3.0381591796875
3.0357421875
2.98740234375
2.9463134765624996
3.037353515625
3.0365478515624997
3.037353515625
3.0389648437499996
3.0397705078125
3.037353515625
2.244580078125
0.033032226562499996
0.0322265625
0.0322265625
0.02900390625
0.02900390625
0.033032226562499996
0.033032226562499996
0.033032226562499996
0.0322265625
0.0322265625
0.0322265625
0.0298095703125
0.0322265625
0.033032226562499996
0.0314208984375
0.03544921875
0.0322265625
0.0322265625
0.0322265625
0.0298095703125
0.0346435546875
1.3954101562499999
2.6401611328124996
3.0397705078125
3.0381591796875
3.0397705078125
3.0389648437499996
3.037353515625
3.0446044921874997
3.0381591796875
3.037353515625
3.0397705078125
3.0389648437499996
3.0244628906249997
2.9197265624999997
3.0397705078125
3.037353515625
3.0365478515624997
3.0397705078125
3.0397705078125
3.0389648437499996
1.5895751953125
0.033032226562499996
0.0322265625
0.03544921875
0.033032226562499996
0.0322265625
0.037060546874999996
0.0322265625
0.0314208984375
0.033032226562499996
0.0322265625
0.033837890625
0.033032226562499996
0.0322265625
0.0322265625
0.0322265625
0.0322265625
0.02900390625
0.033032226562499996
0.038671874999999994
0.0322265625
0.03544921875
0.033032226562499996
2.3243408203125
3.0413818359375
3.037353515625
3.037353515625
3.0357421875
3.0381591796875
3.037353515625
3.0389648437499996
3.0397705078125
3.0357421875
3.0381591796875
3.0365478515624997
2.9865966796874996
3.0389648437499996
3.0389648437499996
3.0381591796875
3.0389648437499996
3.037353515625
3.0381591796875
3.0365478515624997
1.0328613281249999
0.0314208984375
0.033032226562499996
0.0322265625
0.0298095703125
0.0362548828125
0.0298095703125
0.0322265625
0.0322265625
0.0314208984375
0.033837890625
0.0346435546875
0.033032226562499996
0.0314208984375
0.03544921875
0.033032226562499996
0.0362548828125
0.0322265625
0.030615234374999998
0.033032226562499996
0.033032226562499996
0.033837890625
2.3154785156249997
3.0397705078125
3.0357421875
3.0389648437499996
3.0405761718749997
3.0381591796875
3.0413818359375
3.0397705078125
3.0357421875
3.0381591796875
3.0421875
3.0139892578125
2.953564453125
2.9745117187499996
3.037353515625
3.0381591796875
3.0381591796875
3.037353515625
3.037353515625
3.0357421875
1.5605712890624999
0.0346435546875
0.033032226562499996
0.030615234374999998
0.0322265625
0.03544921875
0.0322265625
0.0322265625
0.030615234374999998
0.0314208984375
0.033032226562499996
0.0362548828125
0.03544921875
0.0362548828125
0.033032226562499996
0.033837890625
0.033032226562499996
0.033032226562499996
0.033837890625
0.033032226562499996
0.0322265625
0.02900390625
1.4219970703125
2.776318359375
3.0421875
3.0421875
3.037353515625
3.034130859375
3.0365478515624997
3.0389648437499996
3.0389648437499996
3.0389648437499996
3.0365478515624997
3.0389648437499996
3.0309082031249996
2.9583984374999996
3.0421875
3.0365478515624997
3.0365478515624997
3.0405761718749997
3.037353515625
3.0405761718749997
1.2447509765625
0.033837890625
0.0322265625
0.0314208984375
0.0322265625
0.033032226562499996
0.0322265625
0.033032226562499996
0.0322265625
0.033032226562499996
0.0346435546875
0.0322265625
0.033032226562499996
0.033032226562499996
0.0322265625
0.033837890625
0.0314208984375
0.033032226562499996
0.033032226562499996
0.0298095703125
0.0322265625
0.033032226562499996
0.7839111328124999
2.418603515625
3.0333251953125
3.0413818359375
3.0381591796875
3.037353515625
3.0389648437499996
3.0381591796875
3.0381591796875
3.037353515625
3.0405761718749997
3.0389648437499996
3.037353515625
2.953564453125
3.0389648437499996
3.0389648437499996
3.037353515625
3.037353515625
3.0365478515624997
3.0405761718749997
3.0365478515624997
0.6678955078125
0.0298095703125
0.033032226562499996
0.0362548828125
0.033032226562499996
0.030615234374999998
0.033032226562499996
0.0298095703125
0.033032226562499996
0.0322265625
0.033837890625
0.0298095703125
0.03544921875
0.0378662109375
0.033837890625
0.033032226562499996
0.033032226562499996
0.0298095703125
0.03544921875
0.033032226562499996
0.0362548828125
0.0322265625
1.9787109374999998
2.731201171875
3.037353515625
3.0397705078125
3.037353515625
3.0405761718749997
3.0389648437499996
3.0389648437499996
3.037353515625
3.0389648437499996
3.034130859375
3.0357421875
3.027685546875
3.0381591796875
3.037353515625
3.0389648437499996
3.0381591796875
3.0357421875
3.0365478515624997
3.037353515625
1.5090087890625
0.0346435546875
0.0322265625
0.0322265625
0.0362548828125
0.033032226562499996
0.033837890625
0.0322265625
0.0322265625
0.030615234374999998
0.0314208984375
0.033837890625
0.0322265625
0.033032226562499996
0.0298095703125
0.0346435546875
0.0322265625
0.0322265625
0.033032226562499996
0.030615234374999998
0.033837890625
0.033032226562499996
1.4066894531249998
2.6280761718749996
3.0397705078125
3.0381591796875
3.0389648437499996
3.0365478515624997
3.037353515625
3.0381591796875
3.0381591796875
3.0389648437499996
3.0381591796875
3.0405761718749997
3.037353515625
3.0002929687499997
3.0357421875
3.0389648437499996
3.0389648437499996
3.037353515625
3.0381591796875
3.0405761718749997
1.4574462890625
0.0322265625
0.033032226562499996
0.033837890625
0.033032226562499996
0.02900390625
0.033032226562499996
0.0322265625
0.0346435546875
0.033032226562499996
0.02900390625
0.0322265625
0.0346435546875
0.014501953125
0.0314208984375
0.0298095703125
0.03544921875
0.0314208984375
0.0322265625
0.033837890625
0.033032226562499996
0.0322265625
0.24895019531249998
2.21396484375
3.0405761718749997
3.037353515625
3.034130859375
3.027685546875
3.0405761718749997
3.0389648437499996
3.0381591796875
3.037353515625
3.037353515625
3.0381591796875
3.001904296875
2.9519531249999997
3.0389648437499996
3.0381591796875
3.0381591796875
3.037353515625
3.034130859375
3.0397705078125
3.0357421875
0.562353515625
0.033032226562499996
0.033032226562499996
0.0322265625
0.033032226562499996
0.03544921875
0.0322265625
0.033032226562499996
0.030615234374999998
0.033032226562499996
0.033032226562499996
0.030615234374999998
0.0314208984375
0.033837890625
0.033837890625
0.0322265625
0.033032226562499996
0.033032226562499996
0.0322265625
0.033837890625
0.0298095703125
0.033837890625
1.6765869140624998
3.01318359375
3.0421875
3.0405761718749997
3.0389648437499996
3.0381591796875
3.037353515625
3.0389648437499996
3.0397705078125
3.0381591796875
3.037353515625
3.0357421875
3.0002929687499997
3.0365478515624997
3.0381591796875
3.0357421875
3.037353515625
3.037353515625
3.034130859375
3.037353515625
1.62744140625
0.033032226562499996
0.0322265625
0.030615234374999998
0.0322265625
0.0322265625
0.041088867187499996
0.033032226562499996
0.0362548828125
0.033032226562499996
0.033032226562499996
0.0322265625
0.0346435546875
0.033032226562499996
0.033032226562499996
0.033032226562499996
0.0378662109375
0.033032226562499996
0.03544921875
0.0281982421875
0.0298095703125
0.030615234374999998
1.8369140625
2.85205078125
3.0381591796875
3.034130859375
3.0381591796875
3.0389648437499996
3.0389648437499996
3.0365478515624997
3.037353515625
3.0389648437499996
3.0389648437499996
3.0389648437499996
3.037353515625
3.0381591796875
3.0389648437499996
3.0381591796875
3.0405761718749997
3.0357421875
3.0389648437499996
3.0357421875
1.5025634765625
0.02900390625
0.033837890625
0.033032226562499996
0.030615234374999998
0.037060546874999996
0.033837890625
0.03544921875
0.033032226562499996
0.0362548828125
0.033032226562499996
0.033032226562499996
0.033032226562499996
0.033032226562499996
0.033837890625
0.0346435546875
0.0314208984375
0.0346435546875
0.0322265625
0.0298095703125
0.0298095703125
0.037060546874999996
1.33740234375
2.3807373046875
3.037353515625
3.0381591796875
3.0413818359375
3.0389648437499996
3.0381591796875
3.0389648437499996
3.0389648437499996
3.037353515625
3.0381591796875
3.0381591796875
2.99384765625
2.9503417968749996
3.0397705078125
3.037353515625
3.0397705078125
3.0389648437499996
3.0357421875
3.0429931640624996
3.0397705078125
0.22316894531249998
0.033032226562499996
0.0322265625
0.033032226562499996
0.02900390625
0.0322265625
0.02900390625
0.0362548828125
0.0322265625
0.033032226562499996
0.0281982421875
0.033032226562499996
0.033032226562499996
0.03544921875
0.033032226562499996
0.03544921875
0.0314208984375
0.0314208984375
0.0322265625
0.03544921875
0.0322265625
0.0322265625
2.3162841796875
3.0405761718749997
3.037353515625
3.037353515625
3.037353515625
3.0381591796875
3.0397705078125
3.0381591796875
3.0381591796875
3.0397705078125
3.0381591796875
3.0349365234374996
2.9543701171874996
3.0365478515624997
3.0381591796875
3.0381591796875
3.0357421875
3.0365478515624997
3.0365478515624997
3.0389648437499996
1.5323730468749999
0.0322265625
0.033032226562499996
0.0322265625
0.0322265625
0.0346435546875
0.0322265625
0.030615234374999998
0.02900390625
0.02900390625
0.0314208984375
0.033032226562499996
0.02900390625
0.02900390625
0.0346435546875
0.0322265625
0.02900390625
0.0314208984375
0.0362548828125
0.033837890625
0.02900390625
0.033032226562499996
1.9102294921874998
2.8222412109375
3.0365478515624997
3.0365478515624997
3.0357421875
3.0429931640624996
3.0204345703124997
3.0381591796875
3.0381591796875
3.0381591796875
3.0381591796875
3.0389648437499996
3.0309082031249996
3.0389648437499996
3.0381591796875
3.0389648437499996
3.0389648437499996
3.0413818359375
3.0389648437499996
3.0381591796875
1.6266357421875
0.033032226562499996
0.0322265625
0.0322265625
0.033837890625
0.0298095703125
0.03544921875
0.0362548828125
0.0322265625
0.0298095703125
0.02900390625
0.033032226562499996
0.0298095703125
0.0322265625
0.030615234374999998
0.033837890625
0.033032226562499996
0.0314208984375
0.033032226562499996
0.0322265625
0.0322265625
0.0322265625
1.3664062499999998
2.5354248046874996
3.0389648437499996
3.0389648437499996
3.0389648437499996
3.0389648437499996
3.0357421875
3.0389648437499996
3.0349365234374996
3.0405761718749997
3.0357421875
3.0389648437499996
3.02607421875
2.9608154296875
3.0421875
3.0389648437499996
3.0397705078125
3.0421875
3.034130859375
3.037353515625
3.0381591796875
0.08620605468749999
0.033032226562499996
0.0322265625
0.033032226562499996
0.033032226562499996
0.0346435546875
0.033032226562499996
0.033032226562499996
0.0298095703125
0.0362548828125
0.0346435546875
0.0314208984375
0.0322265625
0.033837890625
0.033032226562499996
0.0322265625
0.0322265625
0.033837890625
0.03544921875
0.0298095703125
0.033032226562499996
0.0346435546875
2.26552734375
3.0397705078125
3.0381591796875
3.0413818359375
3.0421875
3.0357421875
3.0429931640624996
3.0389648437499996
3.0389648437499996
3.0333251953125
3.0381591796875
3.0123779296874997
2.9422851562499996
3.0389648437499996
3.0397705078125
3.0389648437499996
3.0357421875
3.0397705078125
3.037353515625
3.0486328124999997
0.945849609375
0.033032226562499996
0.033837890625
0.0362548828125
0.0346435546875
0.033032226562499996
0.030615234374999998
0.0298095703125
0.033837890625
0.033032226562499996
0.033032226562499996
0.033837890625
0.0346435546875
0.0346435546875
0.033032226562499996
0.02900390625
0.033032226562499996
0.0298095703125
0.0346435546875
0.033032226562499996
0.033837890625
0.033837890625
2.0552490234375
2.8721923828125
3.0421875
3.0405761718749997
3.0365478515624997
3.0381591796875
3.037353515625
3.037353515625
3.043798828125
3.0284912109374997
3.0389648437499996
3.0188232421874996
2.99384765625
3.0405761718749997
3.0397705078125
3.0381591796875
3.0381591796875
3.0381591796875
3.037353515625
3.0421875
1.2938964843749998
0.033032226562499996
0.0322265625
0.033032226562499996
0.0346435546875
0.033032226562499996
0.033837890625
0.02900390625
0.033837890625
0.0362548828125
0.038671874999999994
0.033032226562499996
0.0314208984375
0.030615234374999998
0.033837890625
0.033837890625
0.033837890625
0.033032226562499996
0.0362548828125
0.0322265625
0.033032226562499996
0.033837890625
1.4671142578124998
2.8174072265624996
3.0397705078125
3.0397705078125
3.0381591796875
3.0381591796875
3.0381591796875
3.0389648437499996
3.0389648437499996
3.0421875
3.0397705078125
3.0397705078125
3.011572265625
2.9592041015625
3.0389648437499996
3.0365478515624997
3.037353515625
3.0421875
3.0421875
3.0397705078125
1.5944091796875
0.033032226562499996
0.033837890625
0.0346435546875
0.033032226562499996
0.0314208984375
0.037060546874999996
0.033032226562499996
0.0346435546875
0.0322265625
0.03544921875
0.033837890625
0.0362548828125
0.033032226562499996
0.030615234374999998
0.03544921875
0.033837890625
0.033032226562499996
0.0322265625
0.033032226562499996
0.033032226562499996
0.0322265625
1.1657958984374999
2.3759033203124997
3.037353515625
3.0389648437499996
3.0421875
3.0381591796875
3.0397705078125
3.0389648437499996
3.0389648437499996
3.0421875
3.0389648437499996
3.0421875
3.0099609375
2.9197265624999997
3.0389648437499996
3.0413818359375
3.0365478515624997
3.0405761718749997
3.034130859375
3.0405761718749997
3.0397705078125
0.6767578125
0.0314208984375
0.0322265625
0.033837890625
0.0314208984375
0.0322265625
0.0378662109375
0.033032226562499996
0.0322265625
0.033032226562499996
0.0314208984375
0.03544921875
0.033032226562499996
0.0298095703125
0.0314208984375
0.0322265625
0.033032226562499996
0.0322265625
0.033837890625
0.0322265625
0.033032226562499996
0.0281982421875
1.9062011718749998
3.0389648437499996
3.0365478515624997
3.0397705078125
3.0397705078125
3.0405761718749997
3.0389648437499996
3.0389648437499996
3.0349365234374996
3.0389648437499996
3.0357421875
2.9930419921875
2.9841796874999997
3.0405761718749997
3.0357421875
3.0413818359375
3.0357421875
3.0365478515624997
3.0429931640624996
3.0389648437499996
1.18271484375
0.033837890625
0.0298095703125
0.033837890625
0.03544921875
0.0362548828125
0.033032226562499996
0.033837890625
0.0322265625
0.0322265625
0.037060546874999996
0.0362548828125
0.0314208984375
0.0346435546875
0.0281982421875
0.033032226562499996
0.033837890625
0.0281982421875
0.033837890625
0.033032226562499996
0.033837890625
0.0298095703125
2.0375244140624997
2.9543701171874996
3.0365478515624997
3.0389648437499996
3.0405761718749997
3.0397705078125
3.0389648437499996
3.0429931640624996
3.0389648437499996
3.0381591796875
3.0389648437499996
3.0389648437499996
3.037353515625
2.9398681640624997
3.0405761718749997
3.0397705078125
3.0421875
3.0349365234374996
3.0333251953125
3.0397705078125
3.034130859375
0.32065429687499997
0.033032226562499996
0.0314208984375
0.0362548828125
0.030615234374999998
0.0281982421875
0.0314208984375
0.0475341796875
0.033032226562499996
0.0362548828125
0.0346435546875
0.0346435546875
0.02900390625
0.0322265625
0.033837890625
0.0322265625
0.0322265625
0.033837890625
0.0298095703125
0.0322265625
0.030615234374999998
0.033837890625
2.0657226562499997
3.0389648437499996
3.0357421875
3.0413818359375
3.0421875
3.037353515625
3.0381591796875
3.0421875
3.037353515625
3.0381591796875
3.0389648437499996
3.0381591796875
2.989013671875
3.043798828125
3.037353515625
3.0381591796875
3.0389648437499996
3.0421875
3.0405761718749997
3.037353515625
1.4437499999999999
0.033837890625
0.04189453125
0.033032226562499996
0.0314208984375
0.033032226562499996
0.0378662109375
0.033032226562499996
0.0314208984375
0.0314208984375
0.033032226562499996
0.033032226562499996
0.033032226562499996
0.033032226562499996
0.033837890625
0.0322265625
0.0322265625
0.0314208984375
0.0362548828125
0.030615234374999998
0.033032226562499996
0.033837890625
1.5533203125
3.0010986328125
3.034130859375
3.0397705078125
3.0389648437499996
3.0405761718749997
3.0389648437499996
3.0389648437499996
3.0349365234374996
3.037353515625
3.0381591796875
3.0397705078125
3.0421875
2.9592041015625
3.0381591796875
3.0381591796875
3.0421875
3.034130859375
3.0413818359375
3.0389648437499996
1.77890625
0.037060546874999996
0.0322265625
0.0322265625
0.02900390625
0.0362548828125
0.0362548828125
0.033032226562499996
0.033032226562499996
0.033032226562499996
0.0322265625
0.033837890625
0.0362548828125
0.0346435546875
0.033032226562499996
0.033032226562499996
0.03544921875
0.033837890625
0.033837890625
0.0314208984375
0.037060546874999996
0.033032226562499996
0.033032226562499996
2.6498291015624997
3.0397705078125
3.0389648437499996
3.0405761718749997
3.043798828125
3.0381591796875
3.037353515625
3.0421875
3.0397705078125
3.0389648437499996
3.0389648437499996
3.0268798828124996
2.9898193359375
3.037353515625
3.034130859375
3.0389648437499996
3.0381591796875
3.0405761718749997
3.037353515625
3.0381591796875
0.130517578125
0.033032226562499996
0.033032226562499996
0.0322265625
0.037060546874999996
0.030615234374999998
0.037060546874999996
0.02900390625
0.0378662109375
0.0322265625
0.033032226562499996
0.033837890625
0.033032226562499996
0.0346435546875
0.0322265625
0.0322265625
0.033032226562499996
0.0322265625
0.02900390625
0.0362548828125
0.033032226562499996
0.030615234374999998
2.1535400390625
2.9664550781249996
3.0389648437499996
3.0381591796875
3.0381591796875
3.0429931640624996
3.043798828125
3.0381591796875
3.0389648437499996
3.0429931640624996
3.037353515625
3.0349365234374996
3.0365478515624997
2.953564453125
3.0381591796875
3.0413818359375
3.0365478515624997
3.0397705078125
3.0365478515624997
3.0389648437499996
1.29228515625
0.0322265625
0.033837890625
0.033032226562499996
0.037060546874999996
0.033032226562499996
0.0322265625
0.033837890625
0.0322265625
0.033032226562499996
0.033032226562499996
0.0322265625
0.033837890625
0.033032226562499996
0.033032226562499996
0.0322265625
0.0298095703125
0.0322265625
0.030615234374999998
0.0281982421875
0.0322265625
0.0314208984375
1.416357421875
2.6723876953124996
3.0397705078125
3.0421875
3.0397705078125
3.0381591796875
3.0397705078125
3.0389648437499996
3.0381591796875
3.0397705078125
3.0389648437499996
3.0421875
3.018017578125
3.0027099609374996
3.037353515625
3.0413818359375
3.0357421875
3.0389648437499996
3.0349365234374996
3.037353515625
1.0248046874999999
0.02900390625
0.0322265625
0.033032226562499996
0.033837890625
0.0314208984375
0.03544921875
0.0346435546875
0.033032226562499996
0.0314208984375
0.0322265625
0.033837890625
0.0322265625
0.0314208984375
0.0322265625
0.03544921875
0.0298095703125
0.033032226562499996
0.0346435546875
0.02900390625
0.0322265625
0.02900390625
0.0362548828125
2.260693359375
3.0389648437499996
3.0405761718749997
3.0381591796875
3.0389648437499996
3.0389648437499996
3.0397705078125
3.0389648437499996
3.0413818359375
3.0397705078125
3.0389648437499996
3.037353515625
2.989013671875
3.037353515625
3.0389648437499996
3.0389648437499996
3.0357421875
3.0349365234374996
3.0365478515624997
3.0381591796875
0.7968017578125
0.0322265625
0.0281982421875
0.033032226562499996
0.033032226562499996
0.033032226562499996
0.0346435546875
0.0322265625
0.0298095703125
0.033032226562499996
0.02900390625
0.0322265625
0.033032226562499996
0.033032226562499996
0.03544921875
0.033032226562499996
0.0322265625
0.02900390625
0.033032226562499996
0.0322265625
0.0281982421875
0.0322265625
1.9182861328124998
2.8294921874999996
3.0381591796875
3.0389648437499996
3.0405761718749997
3.0381591796875
3.0405761718749997
3.037353515625
3.0389648437499996
3.0397705078125
3.043798828125
3.037353515625
2.9914306640625
3.0389648437499996
3.037353515625
3.0389648437499996
3.0413818359375
3.0389648437499996
3.0381591796875
3.0349365234374996
1.7152587890625
0.033032226562499996
0.0362548828125
0.0281982421875
0.033032226562499996
0.0281982421875
0.0362548828125
0.02900390625
0.0362548828125
0.0362548828125
0.0362548828125
0.033032226562499996
0.0322265625
0.0298095703125
0.033837890625
0.0362548828125
0.033032226562499996
0.033032226562499996
0.0314208984375
0.02900390625
0.0298095703125
0.0362548828125
1.62744140625
2.5193115234374996
3.037353515625
3.0381591796875
3.0389648437499996
3.037353515625
3.0405761718749997
3.0389648437499996
3.0413818359375
3.037353515625
3.0357421875
3.0389648437499996
3.0349365234374996
2.9503417968749996
3.037353515625
3.0389648437499996
3.0389648437499996
3.0397705078125
3.037353515625
3.0381591796875
3.037353515625
0.485009765625
0.030615234374999998
0.033032226562499996
0.033032226562499996
0.037060546874999996
0.0314208984375
0.0314208984375
0.0322265625
0.0314208984375
0.0322265625
0.0362548828125
0.0298095703125
0.0322265625
0.033032226562499996
0.033837890625
0.033837890625
0.033837890625
0.0322265625
0.0314208984375
0.02900390625
0.0322265625
0.033837890625
2.1535400390625
2.9970703125
3.0413818359375
3.0405761718749997
3.0405761718749997
3.0397705078125
3.0397705078125
3.0397705078125
3.0252685546875
3.0397705078125
3.0381591796875
3.0333251953125
2.96484375
3.0389648437499996
3.0421875
3.0421875
3.0389648437499996
3.0365478515624997
3.037353515625
3.0389648437499996
1.6346923828125
0.030615234374999998
0.0346435546875
0.033032226562499996
0.0322265625
0.03544921875
0.033032226562499996
0.03544921875
0.0322265625
0.0322265625
0.033032226562499996
0.033032226562499996
0.033837890625
0.033032226562499996
0.0322265625
0.033032226562499996
0.0314208984375
0.0346435546875
0.030615234374999998
0.02900390625
0.03544921875
0.0346435546875
1.393798828125
2.657080078125
3.0389648437499996
3.0389648437499996
3.037353515625
3.0389648437499996
3.0381591796875
3.0405761718749997
3.0389648437499996
3.0381591796875
3.0389648437499996
3.0365478515624997
3.0099609375
2.9527587890625
3.0357421875
3.0413818359375
3.0365478515624997
3.034130859375
3.037353515625
3.0389648437499996
2.6272705078125
0.0362548828125
0.033032226562499996
0.0362548828125
0.0314208984375
0.033032226562499996
0.0346435546875
0.033032226562499996
0.033032226562499996
0.0322265625
0.0314208984375
0.030615234374999998
0.030615234374999998
0.03544921875
0.0362548828125
0.033032226562499996
0.0322265625
0.033032226562499996
0.0322265625
0.030615234374999998
0.0298095703125
0.030615234374999998
0.0322265625
2.1068115234375
3.0397705078125
3.0349365234374996
3.0397705078125
3.0397705078125
3.0381591796875
3.0381591796875
3.0365478515624997
3.0349365234374996
3.0389648437499996
3.0397705078125
3.01962890625
2.969677734375
3.0357421875
3.0389648437499996
3.0389648437499996
3.0389648437499996
3.0365478515624997
3.0421875
3.037353515625
1.200439453125
0.0362548828125
0.0314208984375
0.0314208984375
0.033032226562499996
0.033837890625
0.033032226562499996
0.0298095703125
0.02900390625
0.033032226562499996
0.0322265625
0.0314208984375
0.033032226562499996
0.033032226562499996
0.0322265625
0.033032226562499996
0.0322265625
0.033032226562499996
0.0322265625
0.0298095703125
0.0322265625
0.037060546874999996
2.0302734375
2.9036132812499997
3.037353515625
3.0413818359375
3.0421875
3.0357421875
3.0357421875
3.0357421875
3.0413818359375
3.0381591796875
3.0381591796875
3.0381591796875
2.98740234375
3.0389648437499996
3.0357421875
3.0397705078125
3.0397705078125
3.0381591796875
3.037353515625
3.0389648437499996
1.461474609375
0.02900390625
0.0314208984375
0.033032226562499996
0.033837890625
0.033837890625
0.0322265625
0.033032226562499996
0.02900390625
0.033032226562499996
0.0322265625
0.033032226562499996
0.030615234374999998
0.0298095703125
0.033032226562499996
0.0314208984375
0.0314208984375
0.0322265625
0.033032226562499996
0.033837890625
0.033032226562499996
0.0346435546875
1.4719482421874999
2.711865234375
3.037353515625
3.0413818359375
3.0357421875
3.0397705078125
3.0421875
3.0381591796875
3.0381591796875
3.0397705078125
3.037353515625
3.0405761718749997
3.0365478515624997
2.9833740234375
3.0421875
3.0389648437499996
3.0381591796875
3.0349365234374996
3.0389648437499996
3.0333251953125
1.574267578125
0.03544921875
0.030615234374999998
0.0322265625
0.0346435546875
0.033032226562499996
0.033032226562499996
0.0322265625
0.0322265625
0.033032226562499996
0.0346435546875
0.02900390625
0.033032226562499996
0.0322265625
0.033032226562499996
0.0322265625
0.03544921875
0.033032226562499996
0.033032226562499996
0.030615234374999998
0.02900390625
0.033032226562499996
0.0346435546875
2.2437744140625
3.0397705078125
3.0381591796875
3.0405761718749997
3.0381591796875
3.0357421875
3.037353515625
3.037353515625
3.0389648437499996
3.0405761718749997
3.0429931640624996
3.0381591796875
2.9825683593749996
3.0389648437499996
3.037353515625
3.0389648437499996
3.0389648437499996
3.0381591796875
3.0381591796875
3.0397705078125
1.0014404296875
0.030615234374999998
0.027392578124999997
0.033837890625
0.0322265625
0.030615234374999998
0.033837890625
0.0314208984375
0.0322265625
0.030615234374999998
0.0322265625
0.0322265625
0.0314208984375
0.033837890625
0.033837890625
0.0314208984375
0.0314208984375
0.0298095703125
0.0346435546875
0.033032226562499996
0.0322265625
0.0322265625
2.19140625
3.0381591796875
3.037353515625
3.0405761718749997
3.037353515625
3.037353515625
3.0333251953125
3.0381591796875
3.0357421875
3.0365478515624997
3.0381591796875
3.0325195312499997
2.9906249999999996
3.0365478515624997
3.0421875
3.037353515625
3.0389648437499996
3.0365478515624997
3.0397705078125
3.0381591796875
1.1931884765625
0.0322265625
0.033032226562499996
0.0298095703125
0.0362548828125
0.0378662109375
0.0314208984375
0.0322265625
0.033032226562499996
0.0322265625
0.0346435546875
0.0298095703125
0.0322265625
0.033837890625
0.0362548828125
0.0314208984375
0.033837890625
0.033032226562499996
0.033032226562499996
0.0298095703125
0.033032226562499996
0.033837890625
1.4364990234375
2.5467041015625
3.0389648437499996
3.0421875
3.034130859375
3.0381591796875
3.0357421875
3.0381591796875
3.0389648437499996
3.0381591796875
3.0413818359375
3.037353515625
3.0405761718749997
2.9785400390624996
3.0389648437499996
3.0405761718749997
3.0365478515624997
3.034130859375
3.0365478515624997
3.0389648437499996
1.0497802734375
0.037060546874999996
0.033032226562499996
0.033032226562499996
0.0314208984375
0.033032226562499996
0.033032226562499996
0.0362548828125
0.0362548828125
0.033032226562499996
0.0322265625
0.033837890625
0.033837890625
0.0314208984375
0.033032226562499996
0.0322265625
0.033032226562499996
0.0346435546875
0.0322265625
0.0322265625
0.033032226562499996
0.0314208984375
0.5067626953125
2.3162841796875
3.0421875
3.0381591796875
3.0397705078125
3.037353515625
3.0405761718749997
3.0381591796875
3.0357421875
3.034130859375
3.034130859375
3.0389648437499996
3.0365478515624997
2.9906249999999996
3.037353515625
3.0357421875
3.0381591796875
3.0389648437499996
3.0389648437499996
3.0365478515624997
3.0381591796875
0.742822265625
0.0298095703125
0.0322265625
0.033837890625
0.0314208984375
0.033032226562499996
0.0322265625
0.030615234374999998
0.033837890625
0.030615234374999998
0.0298095703125
0.0322265625
0.030615234374999998
0.033837890625
0.0314208984375
0.0322265625
0.033032226562499996
0.0346435546875
0.03544921875
0.033032226562499996
0.033032226562499996
0.0298095703125
2.1148681640625
3.0405761718749997
3.0421875
3.0381591796875
3.0397705078125
3.0389648437499996
3.0413818359375
3.0349365234374996
3.0389648437499996
3.037353515625
3.0413818359375
3.034130859375
2.99384765625
3.0421875
3.0389648437499996
3.0349365234374996
3.037353515625
3.0413818359375
3.0405761718749997
3.0357421875
1.50498046875
0.0346435546875
0.033032226562499996
0.030615234374999998
0.033032226562499996
0.033032226562499996
0.0298095703125
0.0322265625
0.037060546874999996
0.0322265625
0.037060546874999996
0.02900390625
0.033032226562499996
0.0378662109375
0.0322265625
0.030615234374999998
0.0314208984375
0.0298095703125
0.0322265625
0.0346435546875
0.0378662109375
0.033837890625
1.6669189453125
2.7988769531249997
3.037353515625
3.0389648437499996
3.0389648437499996
3.0413818359375
3.0349365234374996
3.0421875
3.0389648437499996
3.0397705078125
3.0389648437499996
3.0397705078125
3.037353515625
2.9761230468749997
3.037353515625
3.0413818359375
3.0389648437499996
3.0405761718749997
3.0397705078125
3.0421875
3.0405761718749997
0.033837890625
0.0346435546875
0.033032226562499996
0.030615234374999998
0.0322265625
0.033032226562499996
0.02900390625
0.033032226562499996
0.02900390625
0.0346435546875
0.0314208984375
0.033837890625
0.033837890625
0.033032226562499996
0.0281982421875
0.033032226562499996
0.0322265625
0.0322265625
0.033837890625
0.0322265625
0.030615234374999998
1.71123046875
2.56845703125
3.037353515625
3.0381591796875
3.0357421875
3.0389648437499996
3.0381591796875
3.0357421875
3.0389648437499996
3.0429931640624996
3.0381591796875
3.037353515625
3.0389648437499996
2.972900390625
3.034130859375
3.0397705078125
3.0397705078125
3.0389648437499996
3.034130859375
3.0421875
3.0397705078125
0.5325439453124999
0.030615234374999998
0.033032226562499996
0.033837890625
0.037060546874999996
0.0314208984375
0.033837890625
0.0362548828125
0.033837890625
0.0362548828125
0.033837890625
0.033837890625
0.0314208984375
0.0322265625
0.02900390625
0.0346435546875
0.0322265625
0.03544921875
0.033837890625
0.033032226562499996
0.0322265625
0.033032226562499996
1.7450683593749998
2.73603515625
3.0389648437499996
3.037353515625
3.0413818359375
3.0421875
3.0413818359375
3.037353515625
3.0405761718749997
3.034130859375
3.037353515625
3.0381591796875
3.0333251953125
3.037353515625
3.0413818359375
3.0397705078125
3.037353515625
3.0381591796875
3.037353515625
3.037353515625
1.6604736328124998
0.033837890625
0.033032226562499996
0.0322265625
0.033032226562499996
0.033032226562499996
0.033032226562499996
0.038671874999999994
0.0322265625
0.0346435546875
0.0322265625
0.0281982421875
0.033032226562499996
0.033032226562499996
0.033032226562499996
0.033032226562499996
0.0314208984375
0.0322265625
0.0362548828125
0.037060546874999996
0.033837890625
0.02900390625
1.445361328125
2.4427734375
3.0397705078125
3.0429931640624996
3.0397705078125
3.0389648437499996
3.0405761718749997
3.0381591796875
3.037353515625
3.0397705078125
3.037353515625
3.037353515625
3.0365478515624997
2.9398681640624997
3.0349365234374996
3.0389648437499996
3.0381591796875
3.037353515625
3.037353515625
3.037353515625
2.4604980468749997
0.17080078124999998
0.0314208984375
0.033032226562499996
0.0322265625
0.0346435546875
0.03544921875
0.0322265625
0.0346435546875
0.0314208984375
0.0281982421875
0.0322265625
0.0378662109375
0.033032226562499996
0.033837890625
0.0314208984375
0.0322265625
0.0346435546875
0.0322265625
0.033032226562499996
0.0322265625
0.038671874999999994
0.033032226562499996
2.4500244140625
3.0389648437499996
3.0381591796875
3.037353515625
3.037353515625
3.034130859375
3.0405761718749997
3.0389648437499996
3.0413818359375
3.0381591796875
3.0413818359375
3.0413818359375
3.0010986328125
3.0397705078125
3.0365478515624997
3.0349365234374996
3.037353515625
3.0389648437499996
3.0365478515624997
3.037353515625
0.3955810546875
0.02900390625
0.030615234374999998
0.0322265625
0.0314208984375
0.033837890625
0.030615234374999998
0.033032226562499996
0.0322265625
0.0322265625
0.033032226562499996
0.033032226562499996
0.0322265625
0.02900390625
0.0314208984375
0.0322265625
0.0322265625
0.0322265625
0.0322265625
0.033837890625
0.033032226562499996
0.0322265625
2.101171875
2.92294921875
3.0405761718749997
3.0381591796875
3.0405761718749997
3.0397705078125
3.0389648437499996
3.0365478515624997
3.0389648437499996
3.0421875
3.0381591796875
3.0365478515624997
3.029296875
3.0389648437499996
3.0405761718749997
3.0357421875
3.0381591796875
3.037353515625
3.037353515625
3.0389648437499996
1.4437499999999999
0.0314208984375
0.033032226562499996
0.033032226562499996
0.02900390625
0.0362548828125
0.02900390625
0.0322265625
0.0322265625
0.033032226562499996
0.0322265625
0.0362548828125
0.033032226562499996
0.0298095703125
0.0298095703125
0.0362548828125
0.03544921875
0.0314208984375
0.033032226562499996
0.030615234374999998
0.030615234374999998
0.0322265625
1.3414306640625
2.463720703125
3.034130859375
3.0397705078125
3.0397705078125
3.0389648437499996
3.037353515625
3.0389648437499996
3.037353515625
3.037353515625
3.0381591796875
3.0357421875
3.0252685546875
2.977734375
3.0405761718749997
3.0357421875
3.0389648437499996
3.0381591796875
3.0389648437499996
3.0381591796875
1.703173828125
0.033032226562499996
0.0298095703125
0.0298095703125
0.033837890625
0.0322265625
0.0346435546875
0.033032226562499996
0.033032226562499996
0.0322265625
0.033837890625
0.0314208984375
0.033032226562499996
0.0322265625
0.033032226562499996
0.033032226562499996
0.02900390625
0.0346435546875
0.0322265625
0.0322265625
0.0362548828125
0.033837890625
0.030615234374999998
2.5853759765624997
3.0389648437499996
3.0381591796875
3.0381591796875
3.0365478515624997
3.037353515625
3.0381591796875
3.0405761718749997
3.0389648437499996
3.0365478515624997
3.0357421875
3.0389648437499996
2.9761230468749997
3.0381591796875
3.0389648437499996
3.037353515625
3.0405761718749997
3.034130859375
3.0381591796875
3.0381591796875
0.0322265625
0.033032226562499996
0.0322265625
0.033032226562499996
0.0362548828125
0.0322265625
0.033837890625
0.0314208984375
0.0322265625
0.0346435546875
0.033032226562499996
0.0322265625
0.033837890625
0.0322265625
0.0322265625
0.033032226562499996
0.033032226562499996
0.033837890625
0.030615234374999998
0.0298095703125
0.0378662109375
0.02900390625
2.3114501953124997
3.037353515625
3.0413818359375
3.0357421875
3.0381591796875
3.0357421875
3.043798828125
3.0405761718749997
3.0389648437499996
3.0389648437499996
3.0357421875
3.034130859375
2.9882080078124997
3.037353515625
3.0389648437499996
3.037353515625
3.0381591796875
3.0405761718749997
3.0357421875
3.0389648437499996
1.0594482421875
0.0322265625
0.03544921875
0.033837890625
0.033032226562499996
0.0322265625
0.0322265625
0.0322265625
0.030615234374999998
0.03544921875
0.0314208984375
0.033032226562499996
0.0322265625
0.0322265625
0.03544921875
0.0322265625
0.033837890625
0.0362548828125
0.0346435546875
0.0322265625
0.0362548828125
0.030615234374999998
1.474365234375
2.6176025390624997
3.0381591796875
3.0397705078125
3.037353515625
3.0381591796875
3.037353515625
3.0397705078125
3.0389648437499996
3.0357421875
3.0389648437499996
3.0397705078125
2.9801513671874997
2.914892578125
3.0381591796875
3.0365478515624997
3.0357421875
3.0389648437499996
3.0389648437499996
3.0381591796875
1.1303466796875
0.0346435546875
0.0298095703125
0.0281982421875
0.0346435546875
0.030615234374999998
0.0322265625
0.033032226562499996
0.030615234374999998
0.0322265625
0.0322265625
0.0298095703125
0.0322265625
0.033837890625
0.0322265625
0.0322265625
0.0322265625
0.0322265625
0.0322265625
0.030615234374999998
0.0322265625
0.033837890625
1.8022705078124999
2.8544677734375
3.037353515625
3.0389648437499996
3.0389648437499996
3.0381591796875
3.037353515625
3.0397705078125
3.0365478515624997
3.0405761718749997
3.0381591796875
3.0389648437499996
3.003515625
2.9358398437499997
3.037353515625
3.0349365234374996
3.0397705078125
3.037353515625
3.037353515625
3.037353515625
3.0381591796875
0.0322265625
0.0322265625
0.033032226562499996
0.0322265625
0.0362548828125
0.0362548828125
0.0322265625
0.0322265625
0.0298095703125
0.0322265625
0.033032226562499996
0.0314208984375
0.0298095703125
0.0314208984375
0.033032226562499996
0.0362548828125
0.0298095703125
0.0322265625
0.02900390625
0.0298095703125
0.033032226562499996
0.0024169921874999997
2.2776123046875
3.0389648437499996
3.0405761718749997
3.0389648437499996
3.037353515625
3.0389648437499996
3.037353515625
3.0389648437499996
3.037353515625
3.0365478515624997
3.0389648437499996
3.050244140625
3.01962890625
3.0365478515624997
3.0397705078125
3.0389648437499996
3.0389648437499996
3.0365478515624997
3.0389648437499996
3.0381591796875
0.9176513671875
0.033837890625
0.0322265625
0.0322265625
0.0322265625
0.033032226562499996
0.037060546874999996
0.033032226562499996
0.0322265625
0.033032226562499996
0.0322265625
0.0314208984375
0.0314208984375
0.0322265625
0.033032226562499996
0.0322265625
0.0314208984375
0.033837890625
0.03544921875
0.033032226562499996
0.030615234374999998
0.033032226562499996
1.6371093749999999
2.6804443359374996
3.0397705078125
3.037353515625
3.0389648437499996
3.0389648437499996
3.0357421875
3.037353515625
3.0381591796875
3.0381591796875
3.0397705078125
3.037353515625
2.9769287109375
3.037353515625
3.0421875
3.0365478515624997
3.0349365234374996
3.0381591796875
3.037353515625
3.0389648437499996
1.3728515625
0.0298095703125
0.0322265625
0.0362548828125
0.0298095703125
0.0322265625
0.033032226562499996
0.0322265625
0.02900390625
0.0298095703125
0.0322265625
0.0322265625
0.033837890625
0.0322265625
0.0314208984375
0.033032226562499996
0.033032226562499996
0.033837890625
0.0314208984375
0.0314208984375
0.030615234374999998
0.0322265625
1.2528076171875
2.642578125
3.0389648437499996
3.037353515625
3.037353515625
3.037353515625
3.0333251953125
3.0381591796875
3.0381591796875
3.0381591796875
3.0389648437499996
3.0389648437499996
3.0099609375
2.9986816406249996
3.0397705078125
3.0389648437499996
3.0357421875
3.037353515625
3.0389648437499996
3.0389648437499996
3.0389648437499996
0.543017578125
0.033032226562499996
0.0346435546875
0.0362548828125
0.037060546874999996
0.0346435546875
0.0298095703125
0.0322265625
0.0298095703125
0.030615234374999998
0.0322265625
0.0322265625
0.0322265625
0.0322265625
0.0322265625
0.0346435546875
0.03544921875
0.0322265625
0.0322265625
0.0322265625
0.0281982421875
0.037060546874999996
2.2614990234375
3.0397705078125
3.0381591796875
3.0397705078125
3.0365478515624997
3.0381591796875
3.0397705078125
3.0397705078125
3.0397705078125
3.0381591796875
3.0389648437499996
2.9785400390624996
2.9447021484375
3.0405761718749997
3.0381591796875
3.037353515625
3.0413818359375
3.0389648437499996
3.037353515625
3.043798828125
0.5526855468749999
0.02900390625
0.02900390625
0.0322265625
0.0298095703125
0.0322265625
0.0322265625
0.0322265625
0.0314208984375
0.0346435546875
0.0322265625
0.0322265625
0.033837890625
0.033032226562499996
0.0322265625
0.0322265625
0.033032226562499996
0.033032226562499996
0.0298095703125
0.0346435546875
0.0322265625
0.03544921875
1.920703125
2.8536621093749996
3.0381591796875
3.0381591796875
3.034130859375
3.0405761718749997
3.0381591796875
3.0389648437499996
3.0389648437499996
3.0381591796875
3.0381591796875
3.0397705078125
3.0083496093749997
3.0365478515624997
3.0365478515624997
3.0357421875
3.0405761718749997
3.0389648437499996
3.0365478515624997
3.0397705078125
1.5436523437499998
0.0314208984375
0.0322265625
0.033032226562499996
0.0314208984375
0.0362548828125
0.0322265625
0.0314208984375
0.0322265625
0.033032226562499996
0.033837890625
0.0322265625
0.0322265625
0.0322265625
0.0314208984375
0.033032226562499996
0.0322265625
0.0298095703125
0.033032226562499996
0.0314208984375
0.033032226562499996
0.0322265625
1.748291015625
2.5571777343749997
3.0365478515624997
3.0389648437499996
3.0397705078125
3.0389648437499996
3.037353515625
3.0397705078125
3.0365478515624997
3.0389648437499996
3.0389648437499996
3.0381591796875
3.0365478515624997
2.977734375
3.0389648437499996
3.0357421875
3.037353515625
3.0381591796875
3.0381591796875
3.0413818359375
2.6876953125
0.10554199218749999
0.0322265625
0.0322265625
0.0322265625
0.0322265625
0.0322265625
0.033032226562499996
0.02900390625
0.0314208984375
0.033837890625
0.0322265625
0.0314208984375
0.0322265625
0.0322265625
0.0322265625
0.0281982421875
0.033032226562499996
0.0314208984375
0.033032226562499996
0.0322265625
0.0346435546875
0.0298095703125
2.5177001953125
3.037353515625
3.0389648437499996
3.0397705078125
3.0389648437499996
3.0381591796875
3.0413818359375
3.0349365234374996
3.0389648437499996
3.0413818359375
3.0381591796875
3.0325195312499997
2.9592041015625
3.0365478515624997
3.0381591796875
3.0381591796875
3.0365478515624997
3.0389648437499996
3.0389648437499996
3.0381591796875
0.40605468749999996
0.0322265625
0.0322265625
0.033032226562499996
0.030615234374999998
0.033032226562499996
0.033032226562499996
0.0322265625
0.033837890625
0.0322265625
0.0322265625
0.0298095703125
0.0322265625
0.033032226562499996
0.03544921875
0.0322265625
0.033837890625
0.03544921875
0.0362548828125
0.033837890625
0.0362548828125
0.0322265625
1.980322265625
2.8286865234375
3.0389648437499996
3.0397705078125
3.0389648437499996
3.0333251953125
3.0381591796875
3.0413818359375
3.0357421875
3.0389648437499996
3.0389648437499996
3.0365478515624997
2.9906249999999996
3.037353515625
3.037353515625
3.0381591796875
3.0389648437499996
3.0405761718749997
3.0381591796875
3.0357421875
1.397021484375
0.0322265625
0.0298095703125
0.0298095703125
0.0322265625
0.0322265625
0.033837890625
0.02900390625
0.0322265625
0.033032226562499996
0.0322265625
0.033032226562499996
0.033837890625
0.033032226562499996
0.0322265625
0.0322265625
0.033032226562499996
0.033032226562499996
0.0314208984375
0.0322265625
0.0322265625
0.0322265625
1.5380126953125
2.8689697265625
3.0397705078125
3.0389648437499996
3.0397705078125
3.0365478515624997
3.0397705078125
3.0381591796875
3.0389648437499996
3.0317138671875
3.0381591796875
3.037353515625
3.027685546875
2.9761230468749997
3.0381591796875
3.0365478515624997
3.0381591796875
3.037353515625
3.0381591796875
3.037353515625
1.6685302734374998
0.0322265625
0.0322265625
0.0346435546875
0.0346435546875
0.0322265625
0.033032226562499996
0.0322265625
0.0322265625
0.033032226562499996
0.02900390625
0.0314208984375
0.0322265625
0.037060546874999996
0.033032226562499996
0.0322265625
0.033032226562499996
0.0322265625
0.0322265625
0.0314208984375
0.0346435546875
0.033032226562499996
1.748291015625
2.6739990234374997
3.0397705078125
3.037353515625
3.0405761718749997
3.037353515625
3.0421875
3.0413818359375
3.0389648437499996
3.034130859375
3.0405761718749997
3.0389648437499996
3.037353515625
2.9882080078124997
3.0389648437499996
3.0421875
3.0397705078125
3.0413818359375
3.0413818359375
3.0389648437499996
3.037353515625
0.18288574218749998
0.0314208984375
0.0322265625
0.0314208984375
0.0322265625
0.0322265625
0.033032226562499996
0.0322265625
0.0322265625
0.033032226562499996
0.0322265625
0.0322265625
0.0362548828125
0.033032226562499996
0.0322265625
0.0322265625
0.033837890625
0.0314208984375
0.0281982421875
0.0322265625
0.0322265625
0.0322265625
2.0874755859375
2.8915283203124997
3.0397705078125
3.0381591796875
3.0381591796875
3.043798828125
3.0405761718749997
3.0381591796875
3.0413818359375
3.0389648437499996
3.0413818359375
3.0228515624999996
2.9922363281249997
3.0389648437499996
3.0421875
3.037353515625
3.037353515625
3.037353515625
3.037353515625
3.0405761718749997
1.0820068359375
0.0322265625
0.0346435546875
0.033032226562499996
0.02900390625
0.03544921875
0.02900390625
0.033032226562499996
0.0314208984375
0.033032226562499996
0.0322265625
0.02900390625
0.0314208984375
0.02900390625
0.0346435546875
0.0322265625
0.033032226562499996
0.03544921875
0.0322265625
0.02900390625
0.033032226562499996
0.033837890625
1.49853515625
2.9624267578124996
3.0381591796875
3.037353515625
3.037353515625
3.0389648437499996
3.0365478515624997
3.0381591796875
3.0397705078125
3.037353515625
3.0365478515624997
3.0357421875
2.9527587890625
2.8963623046875
3.037353515625
3.0381591796875
3.037353515625
3.0389648437499996
3.037353515625
3.0421875
1.061865234375
0.030615234374999998
0.0322265625
0.0362548828125
0.0322265625
0.0322265625
0.033032226562499996
0.033032226562499996
0.0322265625
0.0322265625
0.0322265625
0.0314208984375
0.0322265625
0.033032226562499996
0.033032226562499996
0.0298095703125
0.033837890625
0.0346435546875
0.033032226562499996
0.0322265625
0.02900390625
0.033032226562499996
0.07734374999999999
2.5354248046874996
3.0405761718749997
3.037353515625
3.037353515625
3.0421875
3.0397705078125
3.0389648437499996
3.0381591796875
3.037353515625
3.0389648437499996
3.0357421875
3.0236572265625
2.9801513671874997
3.0397705078125
3.037353515625
3.0349365234374996
3.0357421875
3.037353515625
3.0365478515624997
3.0389648437499996
0.0362548828125
0.0281982421875
0.0298095703125
0.0322265625
0.033032226562499996
0.0314208984375
0.033032226562499996
0.0314208984375
0.0314208984375
0.0314208984375
0.027392578124999997
0.033837890625
0.0322265625
0.02900390625
0.0314208984375
0.0322265625
0.033032226562499996
0.0314208984375
0.0314208984375
0.027392578124999997
0.033032226562499996
0.0322265625
2.2824462890625
3.0405761718749997
3.0421875
3.0381591796875
3.0357421875
3.0357421875
3.0405761718749997
3.0405761718749997
3.037353515625
3.0389648437499996
3.0389648437499996
2.979345703125
2.972900390625
3.0365478515624997
3.0357421875
3.0389648437499996
3.0365478515624997
3.037353515625
3.037353515625
3.037353515625
0.8507812499999999
0.0298095703125
0.0346435546875
0.0298095703125
0.0346435546875
0.0322265625
0.0322265625
0.0298095703125
0.033032226562499996
0.0322265625
0.0362548828125
0.0322265625
0.030615234374999998
0.0314208984375
0.033837890625
0.033032226562499996
0.0322265625
0.02900390625
0.033837890625
0.0346435546875
0.03544921875
0.033032226562499996
1.56298828125
3.0067382812499996
3.0421875
3.037353515625
3.0389648437499996
3.0389648437499996
3.0357421875
3.0381591796875
3.0381591796875
3.043798828125
3.037353515625
3.0389648437499996
3.0365478515624997
2.9414794921875
3.0389648437499996
3.0389648437499996
3.037353515625
3.0413818359375
3.0357421875
3.0397705078125
1.2568359375
0.03544921875
0.0346435546875
0.0281982421875
0.033032226562499996
0.0322265625
0.0322265625
0.033837890625
0.0322265625
0.0322265625
0.033837890625
0.02900390625
0.0314208984375
0.0346435546875
0.0314208984375
0.0298095703125
0.033032226562499996
0.0322265625
0.0298095703125
0.0314208984375
0.02900390625
0.033032226562499996
1.625830078125
2.73603515625
3.0365478515624997
3.037353515625
3.037353515625
3.0389648437499996
3.0381591796875
3.037353515625
3.0381591796875
3.0389648437499996
3.0381591796875
3.0389648437499996
3.0188232421874996
2.9745117187499996
3.0365478515624997
3.0405761718749997
3.0357421875
3.0365478515624997
3.0381591796875
3.0381591796875
3.0381591796875
0.0322265625
0.033032226562499996
0.03544921875
0.033032226562499996
0.0346435546875
0.033837890625
0.0322265625
0.0362548828125
0.0322265625
0.0322265625
0.0298095703125
0.0314208984375
0.0314208984375
0.0322265625
0.0346435546875
0.02900390625
0.03544921875
0.033837890625
0.033837890625
0.0314208984375
0.0322265625
0.34562988281249996
2.3178955078125
3.0389648437499996
3.0397705078125
3.0405761718749997
3.037353515625
3.0389648437499996
3.0421875
3.0381591796875
3.0421875
3.0389648437499996
3.0389648437499996
3.005126953125
2.969677734375
3.0381591796875
3.034130859375
3.0413818359375
3.0381591796875
3.0349365234374996
3.0389648437499996
3.037353515625
0.7073730468749999
0.0314208984375
0.0346435546875
0.0314208984375
0.033032226562499996
0.0346435546875
0.0322265625
0.033032226562499996
0.033032226562499996
0.0298095703125
0.0322265625
0.0322265625
0.02900390625
0.0298095703125
0.0322265625
0.02900390625
0.0314208984375
0.033837890625
0.0322265625
0.033837890625
0.0298095703125
0.0322265625
1.93359375
3.0365478515624997
3.0381591796875
3.0389648437499996
3.037353515625
3.0389648437499996
3.0389648437499996
3.0397705078125
3.0357421875
3.0381591796875
3.037353515625
3.0381591796875
3.0107666015624996
3.037353515625
3.02607421875
3.0381591796875
3.0413818359375
3.0389648437499996
3.0405761718749997
3.0397705078125
1.9078125
0.0322265625
0.03544921875
0.0322265625
0.033032226562499996
0.0314208984375
0.033837890625
0.0322265625
0.0322265625
0.0314208984375
0.02900390625
0.0362548828125
0.0322265625
0.0314208984375
0.033032226562499996
0.030615234374999998
0.0298095703125
0.0322265625
0.0322265625
0.033032226562499996
0.02900390625
0.033837890625
1.7265380859375
2.80048828125
3.037353515625
3.0357421875
3.0381591796875
3.0357421875
3.037353515625
3.0381591796875
3.0389648437499996
3.034130859375
3.0389648437499996
3.037353515625
3.037353515625
2.985791015625
3.0357421875
3.037353515625
3.0381591796875
3.0365478515624997
3.0494384765625
3.0389648437499996
3.0381591796875
0.033032226562499996
0.033032226562499996
0.0322265625
0.0322265625
0.0322265625
0.0322265625
0.0322265625
0.03544921875
0.0322265625
0.0322265625
0.040283203125
0.0322265625
0.0322265625
0.0346435546875
0.0362548828125
0.033837890625
0.0322265625
0.0298095703125
0.0322265625
0.033837890625
0.02900390625
0.7637695312499999
2.309033203125
3.0365478515624997
3.0365478515624997
3.0389648437499996
3.037353515625
3.0389648437499996
3.0389648437499996
3.0405761718749997
3.037353515625
3.0365478515624997
3.0381591796875
3.0349365234374996
3.0349365234374996
3.037353515625
3.0381591796875
3.0397705078125
3.037353515625
3.0389648437499996
3.0381591796875
3.0381591796875
0.436669921875
0.033032226562499996
0.033032226562499996
0.0362548828125
0.0322265625
0.0322265625
0.0314208984375
0.0362548828125
0.0298095703125
0.0346435546875
0.0322265625
0.033032226562499996
0.030615234374999998
0.033032226562499996
0.033032226562499996
0.0322265625
0.033032226562499996
0.030615234374999998
0.02900390625
0.0314208984375
0.0322265625
0.033032226562499996
2.1309814453125
3.0413818359375
3.0357421875
3.0381591796875
3.0365478515624997
3.0413818359375
3.037353515625
3.0389648437499996
3.037353515625
3.0389648437499996
3.037353515625
3.0301025390625
2.956787109375
3.034130859375
3.0421875
3.0357421875
3.0365478515624997
3.0381591796875
3.037353515625
3.0397705078125
1.4461669921875
0.0322265625
0.033032226562499996
0.033032226562499996
0.0362548828125
0.033837890625
0.0362548828125
0.0346435546875
0.0322265625
0.033032226562499996
0.033032226562499996
0.0322265625
0.0322265625
0.033837890625
0.0314208984375
0.0314208984375
0.03544921875
0.0314208984375
0.0378662109375
0.0322265625
0.033032226562499996
0.0322265625
1.4912841796874998
2.7988769531249997
3.0349365234374996
3.0381591796875
3.0381591796875
3.037353515625
3.0389648437499996
3.0381591796875
3.037353515625
3.037353515625
3.0365478515624997
3.0421875
2.9978759765625
2.979345703125
3.034130859375
3.0389648437499996
3.0381591796875
3.0405761718749997
3.0357421875
3.0381591796875
1.8941162109374998
0.0322265625
0.0298095703125
0.0322265625
0.033032226562499996
0.033837890625
0.0322265625
0.033837890625
0.033032226562499996
0.0346435546875
0.033032226562499996
0.0314208984375
0.0314208984375
0.030615234374999998
0.0322265625
0.0322265625
0.0314208984375
0.0322265625
0.03544921875
0.0281982421875
0.0314208984375
0.033032226562499996
1.5637939453124998
2.4427734375
3.037353515625
3.0413818359375
3.0421875
3.0349365234374996
3.0421875
3.0381591796875
3.0397705078125
3.0381591796875
3.0381591796875
3.0357421875
3.0236572265625
2.947119140625
3.0381591796875
3.037353515625
3.0389648437499996
3.0389648437499996
3.0365478515624997
3.0381591796875
2.7432861328125
0.240087890625
0.033032226562499996
0.033032226562499996
0.0346435546875
0.0322265625
0.0314208984375
0.033032226562499996
0.033837890625
0.033837890625
0.0314208984375
0.0298095703125
0.0322265625
0.0322265625
0.0322265625
0.0281982421875
0.0298095703125
0.0314208984375
0.0322265625
0.0362548828125
0.0298095703125
0.033032226562499996
0.0314208984375
2.20107421875
3.0389648437499996
3.0397705078125
3.037353515625
3.037353515625
3.0357421875
3.0381591796875
3.0397705078125
3.0405761718749997
3.0389648437499996
3.0389648437499996
3.0365478515624997
3.0357421875
3.034130859375
3.0389648437499996
3.0381591796875
3.0349365234374996
3.037353515625
3.0389648437499996
3.0389648437499996
1.3583496093749998
0.0322265625
0.033032226562499996
0.033032226562499996
0.033837890625
0.0314208984375
0.0314208984375
0.02900390625
0.0314208984375
0.033837890625
0.0314208984375
0.0322265625
0.0322265625
0.0322265625
0.0298095703125
0.033837890625
0.033837890625
0.0314208984375
0.0314208984375
0.030615234374999998
0.0322265625
0.030615234374999998
2.1229248046875
2.8931396484375
3.0389648437499996
3.0389648437499996
3.037353515625
3.0397705078125
3.0389648437499996
3.0389648437499996
3.0365478515624997
3.0389648437499996
3.0397705078125
3.034130859375
3.001904296875
2.9583984374999996
3.0389648437499996
3.0389648437499996
3.0389648437499996
3.0381591796875
3.0389648437499996
3.0381591796875
1.12470703125
0.033837890625
0.033032226562499996
0.0322265625
0.0322265625
0.0322265625
0.033032226562499996
0.033032226562499996
0.0362548828125
0.02900390625
0.0322265625
0.0322265625
0.0314208984375
0.02900390625
0.0281982421875
0.030615234374999998
0.033032226562499996
