3.0429931640624996
3.0413818359375
0.5091796875
0.03544921875
0.0378662109375
0.03544921875
0.0362548828125
0.0346435546875
0.03544921875
0.033837890625
0.03544921875
0.0362548828125
0.03544921875
0.033032226562499996
0.03544921875
0.0362548828125
0.0322265625
0.0346435546875
0.03544921875
0.03544921875
0.03544921875
0.033837890625
0.03544921875
0.0346435546875
2.260693359375
3.0301025390625
3.0397705078125
3.0413818359375
3.0405761718749997
3.0421875
3.0413818359375
3.0397705078125
3.0421875
3.0421875
3.0421875
3.0389648437499996
2.947119140625
3.0429931640624996
3.0405761718749997
3.043798828125
3.043798828125
3.043798828125
3.0413818359375
3.0429931640624996
1.4268310546874998
0.0346435546875
0.0362548828125
0.0378662109375
0.0362548828125
0.0362548828125
0.03544921875
0.033032226562499996
0.0346435546875
0.0394775390625
0.03544921875
0.0314208984375
0.0322265625
0.0346435546875
0.033032226562499996
0.030615234374999998
0.037060546874999996
0.03544921875
0.037060546874999996
0.0362548828125
0.038671874999999994
0.038671874999999994
1.40185546875
2.7932373046874996
3.0421875
3.0421875
3.0421875
3.0446044921874997
3.0413818359375
3.0421875
3.0389648437499996
3.0405761718749997
3.0413818359375
3.043798828125
2.9680664062499997
2.8810546875
3.0381591796875
3.043798828125
3.0389648437499996
3.0421875
3.043798828125
3.037353515625
1.5090087890625
0.0314208984375
0.0362548828125
0.033837890625
0.033837890625
0.0346435546875
0.0346435546875
0.038671874999999994
0.0362548828125
0.033837890625
0.03544921875
0.0378662109375
0.0362548828125
0.033032226562499996
0.0362548828125
0.0322265625
0.0346435546875
0.033032226562499996
0.037060546874999996
0.041088867187499996
0.033032226562499996
0.0362548828125
0.47050781249999996
2.5483154296875
3.0421875
3.0421875
3.0397705078125
3.0413818359375
3.037353515625
3.043798828125
3.0421875
3.0405761718749997
3.0446044921874997
3.04541015625
3.0381591796875
2.9922363281249997
3.0413818359375
3.0397705078125
3.0429931640624996
3.043798828125
3.0333251953125
3.0429931640624996
3.0405761718749997
0.1474365234375
0.03544921875
0.033032226562499996
0.038671874999999994
0.03544921875
0.0346435546875
0.040283203125
0.03544921875
0.0362548828125
0.0322265625
0.038671874999999994
0.03544921875
0.03544921875
0.0394775390625
0.03544921875
0.0362548828125
0.0346435546875
0.0362548828125
0.03544921875
0.03544921875
0.038671874999999994
0.5631591796875
2.441162109375
3.0421875
3.0397705078125
3.0429931640624996
3.0389648437499996
3.0405761718749997
3.0405761718749997
3.0397705078125
3.0413818359375
3.0413818359375
3.0405761718749997
3.0405761718749997
2.969677734375
3.0397705078125
3.0421875
3.0421875
3.0421875
3.043798828125
3.0405761718749997
3.0413818359375
1.171435546875
0.03544921875
0.033032226562499996
0.037060546874999996
0.0362548828125
0.033837890625
0.03544921875
0.03544921875
0.033032226562499996
0.03544921875
0.03544921875
0.033837890625
0.0362548828125
0.0346435546875
0.0378662109375
0.0346435546875
0.0346435546875
0.038671874999999994
0.033837890625
0.0394775390625
0.03544921875
0.0362548828125
1.8457763671874998
3.0397705078125
3.0429931640624996
3.0429931640624996
3.04541015625
3.0429931640624996
3.0421875
3.0413818359375
3.043798828125
3.0429931640624996
3.0421875
3.0389648437499996
3.0083496093749997
2.9269775390625
3.043798828125
3.0389648437499996
3.0421875
3.0405761718749997
3.0405761718749997
3.0397705078125
1.48564453125
0.033837890625
0.033032226562499996
0.03544921875
0.03544921875
0.0346435546875
0.0378662109375
0.033032226562499996
0.03544921875
0.0362548828125
0.033837890625
0.0346435546875
0.03544921875
0.03544921875
0.0322265625
0.03544921875
0.03544921875
0.03544921875
0.033837890625
0.0362548828125
0.038671874999999994
0.0346435546875
0.9007324218749999
2.5031982421874996
3.043798828125
3.0421875
3.0397705078125
3.0429931640624996
3.0397705078125
3.0421875
3.0405761718749997
3.0462158203125
3.0421875
3.0429931640624996
3.01318359375
2.9414794921875
3.0421875
3.0381591796875
3.0389648437499996
3.0421875
3.0446044921874997
3.0421875
3.0381591796875
0.0314208984375
0.03544921875
0.03544921875
0.037060546874999996
0.037060546874999996
0.0394775390625
0.0378662109375
0.03544921875
0.033032226562499996
0.0314208984375
0.0314208984375
0.0362548828125
0.0281982421875
0.03544921875
0.037060546874999996
0.033837890625
0.03544921875
0.0346435546875
0.03544921875
0.037060546874999996
0.0394775390625
0.6421142578125
2.4556640625
3.0397705078125
3.043798828125
3.0405761718749997
3.0397705078125
3.0397705078125
3.0389648437499996
3.0413818359375
3.0413818359375
3.0405761718749997
3.0389648437499996
3.01318359375
2.9390625
3.0421875
3.0421875
3.0421875
3.0446044921874997
3.0421875
3.0389648437499996
3.0389648437499996
0.8564208984374999
0.0346435546875
0.0346435546875
0.037060546874999996
0.03544921875
0.0346435546875
0.037060546874999996
0.0362548828125
0.03544921875
0.033837890625
0.03544921875
0.033032226562499996
0.03544921875
0.0362548828125
0.0362548828125
0.0346435546875
0.0314208984375
0.0346435546875
0.033032226562499996
0.03544921875
0.0378662109375
0.0362548828125
1.7337890624999999
3.0381591796875
3.0421875
3.0413818359375
3.043798828125
3.0413818359375
3.0397705078125
3.0421875
3.0405761718749997
3.0429931640624996
3.0397705078125
3.0429931640624996
2.9841796874999997
3.0421875
3.043798828125
3.0421875
3.0381591796875
3.0421875
3.0429931640624996
3.0413818359375
1.5944091796875
0.03544921875
0.0394775390625
0.03544921875
0.03544921875
0.03544921875
0.040283203125
0.03544921875
0.03544921875
0.0346435546875
0.038671874999999994
0.0362548828125
0.0394775390625
0.03544921875
0.038671874999999994
0.03544921875
0.033032226562499996
0.0362548828125
0.03544921875
0.0346435546875
0.0362548828125
0.033032226562499996
1.2608642578125
2.592626953125
3.0413818359375
3.0413818359375
3.0405761718749997
3.0381591796875
3.0421875
3.0446044921874997
3.0421875
3.04541015625
3.0413818359375
3.0462158203125
3.005126953125
2.9882080078124997
3.0413818359375
3.0421875
3.0421875
3.0421875
3.0421875
3.0405761718749997
3.0429931640624996
0.0362548828125
0.0394775390625
0.0362548828125
0.033837890625
0.0362548828125
0.038671874999999994
0.0362548828125
0.03544921875
0.0362548828125
0.0378662109375
0.03544921875
0.03544921875
0.0362548828125
0.0362548828125
0.03544921875
0.038671874999999994
0.0362548828125
0.0322265625
0.0346435546875
0.0346435546875
0.038671874999999994
1.27939453125
2.4443847656249997
3.0421875
3.04541015625
3.0397705078125
3.043798828125
3.0389648437499996
3.0389648437499996
3.0413818359375
3.0389648437499996
3.0405761718749997
3.0421875
3.005126953125
2.9068359375
3.0462158203125
3.0413818359375
3.0421875
3.0413818359375
3.0405761718749997
3.0413818359375
3.0389648437499996
0.5422119140625
0.038671874999999994
0.0378662109375
0.033837890625
0.0362548828125
0.037060546874999996
0.0346435546875
0.0346435546875
0.03544921875
0.03544921875
0.0362548828125
0.0362548828125
0.033837890625
0.0362548828125
0.03544921875
0.0362548828125
0.0322265625
0.03544921875
0.03544921875
0.03544921875
0.0378662109375
0.0362548828125
2.083447265625
3.0421875
3.0446044921874997
3.0429931640624996
3.0429931640624996
3.0405761718749997
3.0405761718749997
3.0429931640624996
3.0405761718749997
3.0446044921874997
3.0429931640624996
3.0309082031249996
2.9922363281249997
3.0413818359375
3.0421875
3.0429931640624996
3.0389648437499996
3.0405761718749997
3.037353515625
3.0389648437499996
1.464697265625
0.033032226562499996
0.0394775390625
0.0362548828125
0.0346435546875
0.03544921875
0.038671874999999994
0.03544921875
0.03544921875
0.0378662109375
0.037060546874999996
0.0394775390625
0.0362548828125
0.033032226562499996
0.03544921875
0.03544921875
0.0362548828125
0.0322265625
0.03544921875
0.0346435546875
0.03544921875
0.033032226562499996
1.5686279296874999
2.9656494140625
3.043798828125
3.0413818359375
3.0405761718749997
3.0413818359375
3.0421875
3.0413818359375
3.0429931640624996
3.0446044921874997
3.0405761718749997
3.0413818359375
3.0244628906249997
2.9463134765624996
3.0405761718749997
3.0413818359375
3.0389648437499996
3.0397705078125
3.0421875
3.0429931640624996
1.9948242187499998
0.0378662109375
0.038671874999999994
0.0362548828125
0.03544921875
0.03544921875
0.03544921875
0.03544921875
0.03544921875
0.038671874999999994
0.0362548828125
0.037060546874999996
0.033837890625
0.0362548828125
0.033837890625
0.0362548828125
0.0378662109375
0.0362548828125
0.03544921875
0.0394775390625
0.03544921875
0.037060546874999996
1.3768798828125
2.3340087890625
3.0405761718749997
3.0389648437499996
3.0421875
3.0381591796875
3.0405761718749997
3.0397705078125
3.043798828125
3.0413818359375
3.0405761718749997
3.043798828125
3.0349365234374996
2.9785400390624996
3.0421875
3.0413818359375
3.0421875
3.0429931640624996
3.0413818359375
3.0405761718749997
2.1938232421875
0.26103515625
0.03544921875
0.0322265625
0.03544921875
0.03544921875
0.038671874999999994
0.0362548828125
0.03544921875
0.037060546874999996
0.03544921875
0.0378662109375
0.0346435546875
0.0346435546875
0.03544921875
0.03544921875
0.037060546874999996
0.033032226562499996
0.03544921875
0.0362548828125
0.03544921875
0.037060546874999996
0.03544921875
2.2590820312499997
3.0429931640624996
3.043798828125
3.043798828125
3.0421875
3.0429931640624996
3.0421875
3.0413818359375
3.0397705078125
3.0413818359375
3.0429931640624996
3.0228515624999996
2.979345703125
3.0446044921874997
3.0421875
3.0421875
3.0413818359375
3.0397705078125
3.0413818359375
3.04541015625
1.184326171875
0.033837890625
0.0362548828125
0.0322265625
0.0346435546875
0.03544921875
0.0362548828125
0.0322265625
0.037060546874999996
0.037060546874999996
0.0378662109375
0.03544921875
0.0362548828125
0.0394775390625
0.0362548828125
0.033837890625
0.0346435546875
0.033032226562499996
0.033032226562499996
0.0346435546875
0.0346435546875
0.03544921875
1.6209960937499999
3.0421875
3.0413818359375
3.0429931640624996
3.0397705078125
3.0389648437499996
3.0389648437499996
3.0421875
3.043798828125
3.0421875
3.0413818359375
3.0397705078125
3.001904296875
2.9640380859374997
3.0397705078125
3.0421875
3.0413818359375
3.0405761718749997
3.0389648437499996
3.0421875
1.1384033203125
0.0322265625
0.0322265625
0.0346435546875
0.033032226562499996
0.03544921875
0.03544921875
0.0378662109375
0.0362548828125
0.0362548828125
0.033032226562499996
0.0394775390625
0.037060546874999996
0.0378662109375
0.03544921875
0.03544921875
0.03544921875
0.03544921875
0.0362548828125
0.03544921875
0.037060546874999996
0.03544921875
1.5073974609374998
2.6111572265625
3.0381591796875
3.0405761718749997
3.0421875
3.0397705078125
3.0421875
3.0429931640624996
3.0405761718749997
3.0421875
3.0413818359375
3.0421875
3.0421875
2.9882080078124997
3.0413818359375
3.0405761718749997
3.037353515625
3.0421875
3.0421875
3.0389648437499996
1.513037109375
0.03544921875
0.0346435546875
0.03544921875
0.0346435546875
0.0362548828125
0.0362548828125
0.0322265625
0.03544921875
0.0346435546875
0.0362548828125
0.03544921875
0.0362548828125
0.033032226562499996
0.03544921875
0.03544921875
0.0362548828125
0.0362548828125
0.03544921875
0.033032226562499996
0.038671874999999994
0.0346435546875
0.03544921875
2.1438720703125
3.0365478515624997
3.0421875
3.0397705078125
3.0421875
3.0381591796875
3.0421875
3.0389648437499996
3.0429931640624996
3.0381591796875
3.0397705078125
3.0389648437499996
2.9946533203124996
3.0429931640624996
3.0405761718749997
3.0413818359375
3.0381591796875
3.0397705078125
3.0413818359375
3.0413818359375
0.8507812499999999
0.037060546874999996
0.037060546874999996
0.0346435546875
0.0346435546875
0.0394775390625
0.0362548828125
0.033837890625
0.03544921875
0.03544921875
0.03544921875
0.03544921875
0.0362548828125
0.03544921875
0.0362548828125
0.03544921875
0.03544921875
0.0346435546875
0.0362548828125
0.037060546874999996
0.03544921875
0.0378662109375
1.4356933593749999
2.8617187499999996
3.0429931640624996
3.0397705078125
3.0405761718749997
3.043798828125
3.0421875
3.0405761718749997
3.0413818359375
3.0397705078125
3.0413818359375
3.0099609375
2.9962646484374997
2.9350341796875
3.0421875
3.0405761718749997
3.0389648437499996
3.0405761718749997
3.0429931640624996
3.0413818359375
1.287451171875
0.0362548828125
0.0362548828125
0.0362548828125
0.03544921875
0.033837890625
0.0362548828125
0.033032226562499996
0.033032226562499996
0.03544921875
0.0322265625
0.037060546874999996
0.0362548828125
0.037060546874999996
0.0346435546875
0.0362548828125
0.0322265625
0.037060546874999996
0.037060546874999996
0.0346435546875
0.038671874999999994
0.0362548828125
1.67900390625
2.7497314453125
3.0413818359375
3.0429931640624996
3.0421875
3.0478271484375
3.0421875
3.0462158203125
3.0421875
3.0421875
3.0429931640624996
3.0429931640624996
3.0365478515624997
2.9745117187499996
3.0413818359375
3.0446044921874997
3.0421875
3.0397705078125
3.0405761718749997
3.0413818359375
3.043798828125
0.03544921875
0.0362548828125
0.03544921875
0.0362548828125
0.03544921875
0.03544921875
0.03544921875
0.038671874999999994
0.038671874999999994
0.0346435546875
0.033837890625
0.0378662109375
0.0346435546875
0.0322265625
0.033032226562499996
0.03544921875
0.0346435546875
0.038671874999999994
0.0322265625
0.03544921875
0.0346435546875
1.3865478515624998
2.4749999999999996
3.0421875
3.0429931640624996
3.0413818359375
3.0405761718749997
3.0429931640624996
3.0397705078125
3.0421875
3.0446044921874997
3.0413818359375
3.0421875
2.989013671875
2.9769287109375
3.0413818359375
3.0381591796875
3.0413818359375
3.0405761718749997
3.0429931640624996
3.0381591796875
3.0405761718749997
0.7903564453124999
0.0346435546875
0.0362548828125
0.03544921875
0.0314208984375
0.0362548828125
0.0362548828125
0.0322265625
0.0298095703125
0.0362548828125
0.03544921875
0.03544921875
0.03544921875
0.03544921875
0.033837890625
0.0362548828125
0.0346435546875
0.033837890625
0.03544921875
0.03544921875
0.03544921875
0.0362548828125
1.98193359375
3.0429931640624996
3.0429931640624996
3.043798828125
3.0413818359375
3.0421875
3.0421875
3.0405761718749997
3.0429931640624996
3.0405761718749997
3.043798828125
3.0244628906249997
2.9882080078124997
3.0429931640624996
3.0413818359375
3.0421875
3.0421875
3.0413818359375
3.0405761718749997
3.0413818359375
2.1422607421874997
0.03544921875
0.03544921875
0.0362548828125
0.03544921875
0.038671874999999994
0.033032226562499996
0.0362548828125
0.03544921875
0.03544921875
0.03544921875
0.03544921875
0.0362548828125
0.037060546874999996
0.0322265625
0.0362548828125
0.0378662109375
0.03544921875
0.037060546874999996
0.037060546874999996
0.033837890625
0.0362548828125
1.90458984375
2.8931396484375
3.0421875
3.0405761718749997
3.0421875
3.0429931640624996
3.0413818359375
3.0397705078125
3.0389648437499996
3.0421875
3.0413818359375
3.0421875
2.9962646484374997
3.01962890625
3.0405761718749997
3.0405761718749997
3.043798828125
3.0421875
3.0405761718749997
3.0421875
1.786962890625
0.0346435546875
0.03544921875
0.0362548828125
0.033837890625
0.03544921875
0.037060546874999996
0.03544921875
0.03544921875
0.03544921875
0.03544921875
0.0346435546875
0.037060546874999996
0.03544921875
0.038671874999999994
0.03544921875
0.03544921875
0.03544921875
0.03544921875
0.03544921875
0.0362548828125
0.03544921875
1.5073974609374998
2.3759033203124997
3.0421875
3.0429931640624996
3.0397705078125
3.0421875
3.0421875
3.0413818359375
3.0405761718749997
3.043798828125
3.043798828125
3.0446044921874997
3.0381591796875
3.0421875
3.0421875
3.0413818359375
3.0413818359375
3.0381591796875
3.0405761718749997
3.0365478515624997
3.0405761718749997
0.5132080078125
0.037060546874999996
0.0378662109375
0.0362548828125
0.0362548828125
0.0346435546875
0.03544921875
0.033837890625
0.0322265625
0.03544921875
0.0378662109375
0.03544921875
0.037060546874999996
0.033032226562499996
0.0346435546875
0.038671874999999994
0.0314208984375
0.03544921875
0.037060546874999996
0.03544921875
0.03544921875
0.0394775390625
2.1140624999999997
3.0413818359375
3.0405761718749997
3.0421875
3.0413818359375
3.0413818359375
3.0429931640624996
3.043798828125
3.0413818359375
3.0405761718749997
3.0421875
2.9986816406249996
2.931005859375
3.043798828125
3.0405761718749997
3.0421875
3.0413818359375
3.0421875
3.0405761718749997
3.043798828125
1.5380126953125
0.0362548828125
0.0378662109375
0.033837890625
0.03544921875
0.0322265625
0.0314208984375
0.0346435546875
0.0346435546875
0.03544921875
0.037060546874999996
0.033032226562499996
0.03544921875
0.03544921875
0.03544921875
0.03544921875
0.03544921875
0.0362548828125
0.03544921875
0.0346435546875
0.033032226562499996
0.0346435546875
1.8860595703124998
2.8012939453124996
3.0429931640624996
3.0413818359375
3.0389648437499996
3.0381591796875
3.0421875
3.0421875
3.0421875
3.0413818359375
3.0389648437499996
3.043798828125
2.96162109375
3.0405761718749997
3.0413818359375
3.0397705078125
3.0413818359375
3.0405761718749997
3.0397705078125
3.0365478515624997
1.5968261718749999
0.0346435546875
0.0362548828125
0.03544921875
0.0362548828125
0.0362548828125
0.03544921875
0.03544921875
0.033837890625
0.0314208984375
0.0394775390625
0.03544921875
0.03544921875
0.03544921875
0.03544921875
0.03544921875
0.03544921875
0.0394775390625
0.0322265625
0.033837890625
0.030615234374999998
0.0362548828125
1.6161621093749998
2.5934326171874997
3.04541015625
3.0397705078125
3.0421875
3.043798828125
3.0413818359375
3.0405761718749997
3.0405761718749997
3.0381591796875
3.0413818359375
3.0413818359375
2.9994873046875
2.9575927734375
3.0421875
3.0389648437499996
3.0421875
3.0333251953125
3.0397705078125
3.0446044921874997
2.437939453125
0.045117187499999996
0.03544921875
0.0346435546875
0.03544921875
0.0346435546875
0.0346435546875
0.0378662109375
0.0362548828125
0.037060546874999996
0.033032226562499996
0.03544921875
0.033837890625
0.03544921875
0.033837890625
0.0346435546875
0.0362548828125
0.0378662109375
0.04189453125
0.0378662109375
0.038671874999999994
0.040283203125
0.0346435546875
2.1116455078125
3.0405761718749997
3.0397705078125
3.0421875
3.0381591796875
3.0405761718749997
3.0397705078125
3.0413818359375
3.0421875
3.0429931640624996
3.04541015625
3.0413818359375
2.985791015625
3.0429931640624996
3.0405761718749997
3.0405761718749997
3.0389648437499996
3.0421875
3.0405761718749997
3.0421875
1.1214843749999999
0.03544921875
0.038671874999999994
0.0378662109375
0.038671874999999994
0.03544921875
0.033032226562499996
0.03544921875
0.0346435546875
0.033032226562499996
0.0346435546875
0.0346435546875
0.0346435546875
0.040283203125
0.03544921875
0.03544921875
0.03544921875
0.0394775390625
0.037060546874999996
0.0346435546875
0.0362548828125
0.03544921875
2.3259521484375
3.0413818359375
3.0381591796875
3.04541015625
3.0421875
3.0421875
3.0413818359375
3.0429931640624996
3.0381591796875
3.0429931640624996
3.0413818359375
3.0421875
2.99384765625
3.0421875
3.0389648437499996
3.037353515625
3.043798828125
3.0397705078125
3.0429931640624996
3.0397705078125
1.35673828125
0.0362548828125
0.0322265625
0.033032226562499996
0.0322265625
0.03544921875
0.03544921875
0.03544921875
0.03544921875
0.0322265625
0.0346435546875
0.03544921875
0.037060546874999996
0.0322265625
0.0362548828125
0.0346435546875
0.03544921875
0.0378662109375
0.03544921875
0.0346435546875
0.0322265625
0.0394775390625
1.4711425781249998
2.640966796875
3.0421875
3.0413818359375
3.043798828125
3.0421875
3.0405761718749997
3.0405761718749997
3.0381591796875
3.0421875
3.0389648437499996
3.0421875
3.0236572265625
2.9672607421875
3.0405761718749997
3.0389648437499996
3.0405761718749997
3.0421875
3.0421875
3.037353515625
1.3285400390625
0.033032226562499996
0.0378662109375
0.0346435546875
0.033837890625
0.0346435546875
0.03544921875
0.03544921875
0.03544921875
0.0362548828125
0.0346435546875
0.033837890625
0.0362548828125
0.03544921875
0.037060546874999996
0.03544921875
0.038671874999999994
0.03544921875
0.0346435546875
0.03544921875
0.0378662109375
0.0394775390625
0.3907470703125
2.5974609374999997
3.0413818359375
3.0381591796875
3.0446044921874997
3.0413818359375
3.0397705078125
3.0421875
3.0397705078125
3.0405761718749997
3.0421875
3.0421875
3.0397705078125
2.9680664062499997
3.043798828125
3.0405761718749997
3.0397705078125
3.043798828125
3.0389648437499996
3.0413818359375
3.0421875
0.8604492187499999
0.0362548828125
0.0322265625
0.03544921875
0.03544921875
0.0346435546875
0.03544921875
0.0346435546875
0.0378662109375
0.03544921875
0.037060546874999996
0.0346435546875
0.03544921875
0.03544921875
0.033837890625
0.038671874999999994
0.0362548828125
0.0314208984375
0.03544921875
0.0362548828125
0.0346435546875
0.03544921875
2.1084228515625
3.0349365234374996
3.0405761718749997
3.0397705078125
3.0397705078125
3.0429931640624996
3.0429931640624996
3.0446044921874997
3.0429931640624996
3.0389648437499996
3.0405761718749997
3.0429931640624996
3.0075439453125
3.043798828125
3.0413818359375
3.0405761718749997
3.0405761718749997
3.0429931640624996
3.037353515625
3.0405761718749997
0.9160400390625
0.038671874999999994
0.03544921875
0.0362548828125
0.0362548828125
0.038671874999999994
0.03544921875
0.0346435546875
0.03544921875
0.0378662109375
0.0346435546875
0.03544921875
0.03544921875
0.03544921875
0.037060546874999996
0.0346435546875
0.0346435546875
0.03544921875
0.033032226562499996
0.0362548828125
0.0346435546875
0.0378662109375
1.464697265625
2.6176025390624997
3.043798828125
3.0405761718749997
3.0357421875
3.0389648437499996
3.0421875
3.0405761718749997
3.0421875
3.0413818359375
3.043798828125
3.0405761718749997
3.0325195312499997
2.995458984375
3.04541015625
3.0446044921874997
3.0421875
3.0405761718749997
3.0397705078125
3.0389648437499996
1.42119140625
0.038671874999999994
0.0362548828125
0.0346435546875
0.03544921875
0.0346435546875
0.0378662109375
0.033837890625
0.033032226562499996
0.0362548828125
0.038671874999999994
0.0314208984375
0.0346435546875
0.03544921875
0.033837890625
0.0322265625
0.033837890625
0.0346435546875
0.0394775390625
0.038671874999999994
0.0346435546875
0.033837890625
1.3720458984375
2.616796875
3.0397705078125
3.0413818359375
3.0397705078125
3.0421875
3.0413818359375
3.0421875
3.0413818359375
3.0429931640624996
3.0405761718749997
3.0389648437499996
3.01318359375
2.9785400390624996
3.0446044921874997
3.0405761718749997
3.0421875
3.0421875
3.0397705078125
3.0421875
3.0421875
0.404443359375
0.0346435546875
0.038671874999999994
0.037060546874999996
0.0346435546875
0.03544921875
0.0322265625
0.0346435546875
0.0362548828125
0.0314208984375
0.03544921875
0.033032226562499996
0.03544921875
0.033837890625
0.033837890625
0.033837890625
0.0394775390625
0.033837890625
0.030615234374999998
0.0314208984375
0.033032226562499996
0.0322265625
2.2429687499999997
3.0397705078125
3.0397705078125
3.0397705078125
3.0405761718749997
3.0429931640624996
3.0421875
3.0405761718749997
3.0381591796875
3.043798828125
3.0421875
3.0397705078125
3.0091552734375
3.0389648437499996
3.0421875
3.0405761718749997
3.0397705078125
3.0389648437499996
3.0413818359375
3.0389648437499996
1.7507080078125
0.03544921875
0.0362548828125
0.033032226562499996
0.033837890625
0.0346435546875
0.0394775390625
0.03544921875
0.0346435546875
0.03544921875
0.0346435546875
0.033837890625
0.0346435546875
0.0362548828125
0.0346435546875
0.0346435546875
0.03544921875
0.0314208984375
0.0346435546875
0.03544921875
0.0314208984375
0.03544921875
1.4791992187499998
2.9543701171874996
3.0397705078125
3.0421875
3.0389648437499996
3.0413818359375
3.0413818359375
3.0413818359375
3.0397705078125
3.0421875
3.0421875
3.0389648437499996
3.0413818359375
2.985791015625
3.0446044921874997
3.0413818359375
3.037353515625
3.0413818359375
3.0421875
3.0365478515624997
1.6685302734374998
0.0362548828125
0.0314208984375
0.0378662109375
0.0378662109375
0.0362548828125
0.0378662109375
0.03544921875
0.030615234374999998
0.03544921875
0.0346435546875
0.0346435546875
0.0362548828125
0.03544921875
0.03544921875
0.038671874999999994
0.0378662109375
0.0362548828125
0.0346435546875
0.037060546874999996
0.037060546874999996
0.03544921875
0.17885742187499998
2.695751953125
3.0429931640624996
3.0413818359375
3.0421875
3.0397705078125
3.0421875
3.0421875
3.0389648437499996
3.0397705078125
3.0389648437499996
3.0421875
3.0244628906249997
2.9664550781249996
3.0429931640624996
3.043798828125
3.0429931640624996
3.0405761718749997
3.0413818359375
3.0389648437499996
3.0421875
0.103125
0.0378662109375
0.03544921875
0.0346435546875
0.0346435546875
0.033032226562499996
0.033837890625
0.03544921875
0.0346435546875
0.0378662109375
0.0346435546875
0.033837890625
0.03544921875
0.033032226562499996
0.033032226562499996
0.0346435546875
0.03544921875
0.03544921875
0.038671874999999994
0.03544921875
0.0362548828125
0.03544921875
2.4016845703125
3.037353515625
3.0405761718749997
3.0357421875
3.0397705078125
3.0429931640624996
3.043798828125
3.0389648437499996
3.037353515625
3.0413818359375
3.0397705078125
3.0365478515624997
2.9688720703125
2.908447265625
3.037353515625
3.043798828125
3.04541015625
3.0421875
3.0405761718749997
3.0429931640624996
1.2439453125
0.03544921875
0.038671874999999994
0.0346435546875
0.038671874999999994
0.0346435546875
0.033032226562499996
0.0346435546875
0.0346435546875
0.0394775390625
0.038671874999999994
0.037060546874999996
0.0378662109375
0.033837890625
0.03544921875
0.0362548828125
0.0346435546875
0.0346435546875
0.03544921875
0.033837890625
0.033837890625
0.0378662109375
1.46630859375
2.62646484375
3.0405761718749997
3.0389648437499996
3.0405761718749997
3.037353515625
3.04541015625
3.0421875
3.0429931640624996
3.0381591796875
3.0421875
3.037353515625
3.0381591796875
2.9833740234375
3.0421875
3.0397705078125
3.043798828125
3.037353515625
3.0413818359375
3.0397705078125
3.0421875
0.038671874999999994
0.033837890625
0.0314208984375
0.0346435546875
0.0394775390625
0.0346435546875
0.037060546874999996
0.037060546874999996
0.038671874999999994
0.0322265625
0.03544921875
0.03544921875
0.0346435546875
0.0346435546875
0.03544921875
0.03544921875
0.0346435546875
0.0362548828125
0.0378662109375
0.03544921875
0.03544921875
0.0362548828125
2.5257568359375
3.0365478515624997
3.0405761718749997
3.0389648437499996
3.0413818359375
3.0405761718749997
3.0397705078125
3.0405761718749997
3.0405761718749997
3.0397705078125
3.0413818359375
3.0333251953125
2.9994873046875
3.0413818359375
3.0397705078125
3.0413818359375
3.0462158203125
3.0413818359375
3.0397705078125
3.0413818359375
0.65419921875
0.0346435546875
0.033837890625
0.0362548828125
0.0346435546875
0.03544921875
0.0362548828125
0.038671874999999994
0.033837890625
0.0362548828125
0.03544921875
0.0346435546875
0.033837890625
0.0362548828125
0.0346435546875
0.0346435546875
0.0346435546875
0.0314208984375
0.03544921875
0.03544921875
0.0394775390625
0.033837890625
2.1487060546875
2.8423828125
3.0413818359375
3.0421875
3.0397705078125
3.0413818359375
3.0405761718749997
3.0397705078125
3.0421875
3.0421875
3.0397705078125
3.0397705078125
3.0325195312499997
3.0204345703124997
3.0413818359375
3.0405761718749997
3.0381591796875
3.0405761718749997
3.04541015625
3.0397705078125
1.7652099609374998
0.0362548828125
0.0346435546875
0.03544921875
0.0322265625
0.0346435546875
0.03544921875
0.03544921875
0.03544921875
0.0346435546875
0.03544921875
0.033837890625
0.03544921875
0.0314208984375
0.0346435546875
0.0322265625
0.03544921875
0.0346435546875
0.033032226562499996
0.03544921875
0.027392578124999997
0.0346435546875
1.674169921875
2.698974609375
3.0429931640624996
3.0405761718749997
3.0405761718749997
3.043798828125
3.043798828125
3.0389648437499996
3.0413818359375
3.0389648437499996
3.0397705078125
3.0397705078125
3.0123779296874997
2.9745117187499996
3.0413818359375
3.0397705078125
3.0381591796875
3.0421875
3.0413818359375
3.0405761718749997
3.0405761718749997
0.2360595703125
0.037060546874999996
0.033837890625
0.0346435546875
0.0378662109375
0.0346435546875
0.0346435546875
0.03544921875
0.03544921875
0.033032226562499996
0.0362548828125
0.0362548828125
0.0346435546875
0.0346435546875
0.0346435546875
0.033032226562499996
0.033837890625
0.03544921875
0.0314208984375
0.0346435546875
0.0346435546875
0.0346435546875
2.0689453125
2.8939453124999996
3.0405761718749997
3.0397705078125
3.0389648437499996
3.0429931640624996
3.0413818359375
3.0413818359375
3.0421875
3.0413818359375
3.0421875
3.0389648437499996
3.0381591796875
3.0429931640624996
3.0421875
3.0413818359375
3.0421875
3.0413818359375
3.043798828125
3.0421875
1.2431396484375
0.038671874999999994
0.030615234374999998
0.030615234374999998
0.03544921875
0.0378662109375
0.03544921875
0.0346435546875
0.0378662109375
0.0346435546875
0.0322265625
0.0378662109375
0.03544921875
0.03544921875
0.030615234374999998
0.03544921875
0.0459228515625
0.03544921875
0.0362548828125
0.0346435546875
0.0314208984375
0.040283203125
1.48564453125
2.6603027343749996
3.043798828125
3.0397705078125
3.0405761718749997
3.0397705078125
3.0413818359375
3.0413818359375
3.0389648437499996
3.0413818359375
3.0421875
3.0188232421874996
2.9785400390624996
2.9527587890625
3.0413818359375
3.0397705078125
3.0421875
3.0405761718749997
3.0397705078125
3.04541015625
1.22138671875
0.03544921875
0.03544921875
0.033032226562499996
0.03544921875
0.0346435546875
0.0346435546875
0.0346435546875
0.03544921875
0.03544921875
0.038671874999999994
0.03544921875
0.0378662109375
0.03544921875
0.0362548828125
0.0346435546875
0.0346435546875
0.0314208984375
0.0346435546875
0.033032226562499996
0.0362548828125
0.0362548828125
0.5277099609375
2.3533447265625
3.0405761718749997
3.0421875
3.0421875
3.0421875
3.0413818359375
3.0397705078125
3.0405761718749997
3.0421875
3.0421875
3.0421875
3.0381591796875
2.9978759765625
3.0405761718749997
3.04541015625
3.0421875
3.0421875
3.0357421875
3.0405761718749997
3.0429931640624996
0.74443359375
0.0314208984375
0.0346435546875
0.0346435546875
0.03544921875
0.040283203125
0.03544921875
0.03544921875
0.0362548828125
0.0298095703125
0.033837890625
0.0346435546875
0.03544921875
0.0346435546875
0.03544921875
0.033032226562499996
0.0362548828125
0.040283203125
0.03544921875
0.03544921875
0.0362548828125
0.033837890625
1.9295654296875
2.6836669921875
3.0405761718749997
3.0381591796875
3.0421875
3.0421875
3.0413818359375
3.0421875
3.037353515625
3.0405761718749997
3.0413818359375
3.0389648437499996
3.0405761718749997
3.0397705078125
3.04541015625
3.0405761718749997
3.0462158203125
3.043798828125
3.04541015625
3.04541015625
1.7813232421874998
0.0394775390625
0.037060546874999996
0.033837890625
0.0346435546875
0.0346435546875
0.0314208984375
0.0322265625
0.037060546874999996
0.033032226562499996
0.038671874999999994
0.03544921875
0.0346435546875
0.0322265625
0.033837890625
0.0346435546875
0.038671874999999994
0.0314208984375
0.03544921875
0.03544921875
0.0346435546875
0.0346435546875
1.7764892578125
2.586181640625
3.0397705078125
3.0397705078125
3.0413818359375
3.0446044921874997
3.0413818359375
3.0405761718749997
3.0413818359375
3.0405761718749997
3.0421875
3.0421875
3.0172119140625
2.956787109375
3.0397705078125
3.0421875
3.04541015625
3.0421875
3.0421875
3.0397705078125
2.9559814453124997
0.18046874999999998
0.03544921875
0.03544921875
0.0378662109375
0.0346435546875
0.0346435546875
0.0346435546875
0.0346435546875
0.03544921875
0.040283203125
0.030615234374999998
0.03544921875
0.0378662109375
0.0346435546875
0.03544921875
0.033837890625
0.037060546874999996
0.033837890625
0.03544921875
0.033837890625
0.030615234374999998
0.037060546874999996
2.2018798828125
2.9277832031249997
3.04541015625
3.0413818359375
3.0405761718749997
3.0421875
3.0405761718749997
3.04541015625
3.0405761718749997
3.0405761718749997
3.0405761718749997
3.0365478515624997
2.9495361328125
3.0429931640624996
3.0397705078125
3.0389648437499996
3.0421875
3.0357421875
3.0446044921874997
3.0389648437499996
1.3422363281249998
0.038671874999999994
0.0346435546875
0.037060546874999996
0.0322265625
0.033032226562499996
0.03544921875
0.0346435546875
0.0362548828125
0.038671874999999994
0.03544921875
0.0346435546875
0.0322265625
0.03544921875
0.0378662109375
0.033032226562499996
0.03544921875
0.0322265625
0.037060546874999996
0.033837890625
0.0378662109375
0.0362548828125
1.5460693359375
2.7505371093749997
3.0397705078125
3.0421875
3.0421875
3.043798828125
3.0421875
3.0421875
3.0421875
3.0421875
3.04541015625
3.0405761718749997
3.0397705078125
2.9600097656249997
3.0405761718749997
3.0413818359375
3.037353515625
3.0397705078125
3.0397705078125
3.0397705078125
1.1214843749999999
0.0314208984375
0.0346435546875
0.0314208984375
0.033837890625
0.03544921875
0.0346435546875
0.037060546874999996
0.033837890625
0.033032226562499996
0.033837890625
0.033837890625
0.033032226562499996
0.03544921875
0.0346435546875
0.03544921875
0.0322265625
0.0322265625
0.0362548828125
0.0346435546875
0.0346435546875
0.0346435546875
0.0346435546875
1.9948242187499998
2.8915283203124997
3.043798828125
3.0397705078125
3.0429931640624996
3.0421875
3.0413818359375
3.0421875
3.0397705078125
3.0421875
3.0413818359375
3.0405761718749997
2.9970703125
3.0421875
3.043798828125
3.0421875
3.0405761718749997
3.0421875
3.0397705078125
3.0397705078125
0.7242919921875
0.0346435546875
0.03544921875
0.0346435546875
0.03544921875
0.0346435546875
0.03544921875
0.037060546874999996
0.033837890625
0.03544921875
0.03544921875
0.0346435546875
0.0346435546875
0.0346435546875
0.0346435546875
0.0346435546875
0.0322265625
0.033837890625
0.0346435546875
0.0346435546875
0.0346435546875
0.0362548828125
2.1180908203124997
2.8609130859375
3.0397705078125
3.0413818359375
3.0421875
3.0357421875
3.0421875
3.0397705078125
3.0397705078125
3.0429931640624996
3.0397705078125
3.0413818359375
2.98095703125
3.0421875
3.0421875
3.0421875
3.0446044921874997
3.0421875
3.0421875
3.0389648437499996
1.7716552734375
0.03544921875
0.0362548828125
0.038671874999999994
0.0362548828125
0.0362548828125
0.0346435546875
0.0322265625
0.0346435546875
0.03544921875
0.0394775390625
0.0346435546875
0.030615234374999998
0.033837890625
0.038671874999999994
0.0346435546875
0.03544921875
0.0346435546875
0.03544921875
0.038671874999999994
0.033837890625
0.0346435546875
1.9352050781249999
2.53623046875
3.0413818359375
3.0397705078125
3.04541015625
3.0421875
3.0365478515624997
3.043798828125
3.043798828125
3.0421875
3.0421875
3.0389648437499996
2.953564453125
2.977734375
3.0397705078125
3.0389648437499996
3.0405761718749997
3.0413818359375
3.0429931640624996
3.0421875
3.0397705078125
0.391552734375
0.03544921875
0.038671874999999994
0.0346435546875
0.03544921875
0.033837890625
0.0378662109375
0.03544921875
0.03544921875
0.0346435546875
0.0346435546875
0.037060546874999996
0.037060546874999996
0.0346435546875
0.0346435546875
0.0346435546875
0.0314208984375
0.033837890625
0.033837890625
0.0346435546875
0.030615234374999998
0.0362548828125
2.1744873046874997
3.0421875
3.0413818359375
3.04541015625
3.0421875
3.0421875
3.0421875
3.0389648437499996
3.043798828125
3.0413818359375
3.0405761718749997
3.0429931640624996
3.0365478515624997
3.043798828125
3.043798828125
3.0397705078125
3.0397705078125
3.0405761718749997
3.0413818359375
3.0389648437499996
1.3784912109374998
0.0346435546875
0.03544921875
0.0378662109375
0.0378662109375
0.0322265625
0.03544921875
0.033032226562499996
0.03544921875
0.037060546874999996
0.033837890625
0.03544921875
0.03544921875
0.0394775390625
0.0362548828125
0.0346435546875
0.038671874999999994
0.037060546874999996
0.0362548828125
0.0322265625
0.0346435546875
0.03544921875
1.461474609375
2.9302001953124996
3.04541015625
3.0389648437499996
3.0413818359375
3.0421875
3.0405761718749997
3.0389648437499996
3.0429931640624996
3.037353515625
3.034130859375
3.0413818359375
3.027685546875
2.94873046875
3.0389648437499996
3.0365478515624997
3.043798828125
3.0421875
3.0389648437499996
3.0413818359375
1.2447509765625
0.0346435546875
0.03544921875
0.0362548828125
0.03544921875
0.03544921875
0.03544921875
0.03544921875
0.03544921875
0.0314208984375
0.0346435546875
0.037060546874999996
0.03544921875
0.03544921875
0.037060546874999996
0.0314208984375
0.030615234374999998
0.033837890625
0.033032226562499996
0.038671874999999994
0.038671874999999994
0.03544921875
0.1039306640625
2.228466796875
3.04541015625
3.0405761718749997
3.0421875
3.0421875
3.0429931640624996
3.037353515625
3.0381591796875
3.0413818359375
3.0429931640624996
3.0421875
2.9882080078124997
2.898779296875
3.0413818359375
3.0413818359375
3.0413818359375
3.0429931640624996
3.0405761718749997
3.0397705078125
3.0405761718749997
0.7863281249999999
0.0346435546875
0.0346435546875
0.0322265625
0.0322265625
0.040283203125
0.033837890625
0.0346435546875
0.03544921875
0.033032226562499996
0.0314208984375
0.0346435546875
0.0378662109375
0.033032226562499996
0.033837890625
0.0322265625
0.03544921875
0.0362548828125
0.0314208984375
0.03544921875
0.0201416015625
0.033837890625
2.0069091796875
3.0397705078125
3.0421875
3.0421875
3.0381591796875
3.0421875
3.0413818359375
3.0413818359375
3.037353515625
3.0429931640624996
3.0413818359375
3.0365478515624997
2.9841796874999997
3.0421875
3.043798828125
3.0397705078125
3.0429931640624996
3.0381591796875
3.0405761718749997
3.0405761718749997
1.3833251953124999
0.03544921875
0.033032226562499996
0.0362548828125
0.033837890625
0.033837890625
0.0378662109375
0.0394775390625
0.0314208984375
0.037060546874999996
0.03544921875
0.030615234374999998
0.0378662109375
0.0346435546875
0.033032226562499996
0.033032226562499996
0.03544921875
0.033837890625
0.0322265625
0.0346435546875
0.0346435546875
0.0346435546875
1.8377197265624998
2.7892089843749996
3.0397705078125
3.0429931640624996
3.0429931640624996
3.0389648437499996
3.0421875
3.0421875
3.0389648437499996
3.043798828125
3.043798828125
3.0405761718749997
3.027685546875
2.9914306640625
3.0421875
3.0421875
3.0413818359375
3.0421875
3.0429931640624996
3.0397705078125
3.0397705078125
0.0394775390625
0.033837890625
0.038671874999999994
0.0394775390625
0.0346435546875
0.030615234374999998
0.033837890625
0.038671874999999994
0.0322265625
0.0346435546875
0.0346435546875
0.0378662109375
0.0322265625
0.037060546874999996
0.0346435546875
0.033837890625
0.0346435546875
0.03544921875
0.03544921875
0.03544921875
0.033032226562499996
0.033032226562499996
2.4427734375
3.0405761718749997
3.037353515625
3.0405761718749997
3.0421875
3.0405761718749997
3.0397705078125
3.0405761718749997
3.0413818359375
3.0397705078125
3.0357421875
3.003515625
2.9720947265624997
3.0421875
3.0381591796875
3.0413818359375
3.0429931640624996
3.0397705078125
3.0405761718749997
3.0413818359375
0.49387207031249997
0.0346435546875
0.03544921875
0.03544921875
0.03544921875
0.033032226562499996
0.0346435546875
0.03544921875
0.03544921875
0.03544921875
0.0346435546875
0.0346435546875
0.0298095703125
0.0378662109375
0.03544921875
0.0362548828125
0.033032226562499996
0.03544921875
0.03544921875
0.038671874999999994
0.0362548828125
0.03544921875
2.13984375
2.9970703125
3.0389648437499996
3.0421875
3.04541015625
3.0357421875
3.0421875
3.0389648437499996
3.0389648437499996
3.0397705078125
3.0421875
3.0389648437499996
2.963232421875
3.0421875
3.0389648437499996
3.0405761718749997
3.0405761718749997
3.0381591796875
3.0405761718749997
3.0421875
1.6620849609375
0.033837890625
0.033837890625
0.037060546874999996
0.030615234374999998
0.0362548828125
0.03544921875
0.03544921875
0.03544921875
0.0322265625
0.03544921875
0.0362548828125
0.03544921875
0.03544921875
0.033837890625
0.033032226562499996
0.037060546874999996
0.0346435546875
0.0346435546875
0.0346435546875
0.037060546874999996
0.03544921875
1.5331787109375
2.4693603515625
3.0413818359375
3.04541015625
3.0413818359375
3.0421875
3.0429931640624996
3.037353515625
3.04541015625
3.0405761718749997
3.04541015625
3.037353515625
3.0244628906249997
2.9519531249999997
3.0413818359375
3.037353515625
3.0397705078125
3.0365478515624997
3.0381591796875
3.0413818359375
2.1076171875
0.07009277343749999
0.0378662109375
0.0346435546875
0.0346435546875
0.0346435546875
0.037060546874999996
0.03544921875
0.03544921875
0.0346435546875
0.0346435546875
0.0346435546875
0.03544921875
0.0322265625
0.0346435546875
0.0346435546875
0.03544921875
0.037060546874999996
0.0346435546875
0.0322265625
0.033837890625
0.03544921875
0.0346435546875
2.2566650390625
3.043798828125
3.0413818359375
3.0446044921874997
3.0421875
3.0397705078125
3.043798828125
3.0397705078125
3.0421875
3.0397705078125
3.04541015625
3.0365478515624997
2.977734375
3.0381591796875
3.037353515625
3.0405761718749997
3.0405761718749997
3.037353515625
3.0397705078125
3.0389648437499996
1.0030517578125
0.038671874999999994
0.0362548828125
0.038671874999999994
0.0314208984375
0.037060546874999996
0.03544921875
0.03544921875
0.033837890625
0.0346435546875
0.033032226562499996
0.030615234374999998
0.0362548828125
0.0346435546875
0.0394775390625
0.037060546874999996
0.033837890625
0.03544921875
0.0346435546875
0.03544921875
0.0346435546875
0.0346435546875
1.5718505859374998
2.65546875
3.0421875
3.0397705078125
3.043798828125
3.0405761718749997
3.0397705078125
3.0429931640624996
3.0405761718749997
3.0421875
3.0413818359375
3.0010986328125
2.9527587890625
2.905224609375
3.037353515625
3.0381591796875
3.0413818359375
3.0397705078125
3.04541015625
3.0413818359375
1.1851318359375
0.0362548828125
0.03544921875
0.0394775390625
0.0346435546875
0.03544921875
0.037060546874999996
0.0362548828125
0.03544921875
0.033032226562499996
0.03544921875
0.0346435546875
0.03544921875
0.0346435546875
0.0346435546875
0.033032226562499996
0.0314208984375
0.03544921875
0.0346435546875
0.0322265625
0.0346435546875
0.0346435546875
1.1939941406249999
2.354150390625
3.0421875
3.04541015625
3.0397705078125
3.0421875
3.0413818359375
3.04541015625
3.0389648437499996
3.0413818359375
3.0381591796875
3.0421875
3.0301025390625
2.9817626953125
3.0421875
3.0405761718749997
3.0429931640624996
3.0397705078125
3.0397705078125
3.0389648437499996
3.0397705078125
0.6670898437499999
0.030615234374999998
0.0346435546875
0.033837890625
0.0346435546875
0.03544921875
0.033032226562499996
0.030615234374999998
0.0378662109375
0.03544921875
0.033837890625
0.03544921875
0.0346435546875
0.03544921875
0.0314208984375
0.033837890625
0.03544921875
0.0362548828125
0.0346435546875
0.03544921875
0.0362548828125
0.0346435546875
2.0262451171875
2.8391601562499997
3.0397705078125
3.0381591796875
3.0405761718749997
3.0365478515624997
3.04541015625
3.0421875
3.0397705078125
3.0421875
3.0389648437499996
3.0405761718749997
3.0204345703124997
3.0429931640624996
3.0421875
3.0381591796875
3.0413818359375
3.043798828125
3.0397705078125
3.0357421875
1.9078125
0.0346435546875
0.0346435546875
0.03544921875
0.038671874999999994
0.03544921875
0.033032226562499996
0.0346435546875
0.033837890625
0.0378662109375
0.038671874999999994
0.0378662109375
0.038671874999999994
0.0346435546875
0.037060546874999996
0.03544921875
0.03544921875
0.0362548828125
0.03544921875
0.0346435546875
0.038671874999999994
0.038671874999999994
1.1883544921875
2.5805419921875
3.0405761718749997
3.043798828125
3.0421875
3.0381591796875
3.0381591796875
3.0397705078125
3.0421875
3.0381591796875
3.037353515625
3.0381591796875
2.9994873046875
2.9269775390625
3.0405761718749997
3.0405761718749997
3.037353515625
3.0421875
3.0413818359375
3.0405761718749997
1.819189453125
0.0378662109375
0.038671874999999994
0.0314208984375
0.0346435546875
0.0378662109375
0.03544921875
0.0346435546875
0.0322265625
0.0362548828125
0.033837890625
0.0346435546875
0.0362548828125
0.037060546874999996
0.0346435546875
0.0346435546875
0.03544921875
0.040283203125
0.0362548828125
0.03544921875
0.038671874999999994
0.033837890625
0.0346435546875
2.6433837890625
3.043798828125
3.0429931640624996
3.0397705078125
3.037353515625
3.0421875
3.0365478515624997
3.0389648437499996
3.0397705078125
3.0405761718749997
3.0397705078125
3.0099609375
2.9761230468749997
3.0421875
3.0405761718749997
3.0405761718749997
3.0446044921874997
3.0421875
3.0421875
3.0413818359375
0.22880859374999998
0.0362548828125
0.0322265625
0.0314208984375
0.0346435546875
0.033837890625
0.03544921875
0.033837890625
0.0314208984375
0.033837890625
0.033032226562499996
0.0378662109375
0.0346435546875
0.0362548828125
0.03544921875
0.0362548828125
0.03544921875
0.030615234374999998
0.0362548828125
0.037060546874999996
0.0362548828125
0.033837890625
2.2349121093749997
3.0389648437499996
3.0429931640624996
3.0405761718749997
3.0413818359375
3.0405761718749997
3.0413818359375
3.0389648437499996
3.0421875
3.0389648437499996
3.0446044921874997
3.0397705078125
3.001904296875
3.0389648437499996
3.0405761718749997
3.0397705078125
3.0389648437499996
3.0421875
3.0397705078125
3.0405761718749997
1.3261230468749998
0.0314208984375
0.033032226562499996
0.0362548828125
0.0322265625
0.03544921875
0.038671874999999994
0.0346435546875
0.037060546874999996
0.0362548828125
0.0394775390625
0.033837890625
0.033837890625
0.0346435546875
0.033837890625
0.0322265625
0.03544921875
0.03544921875
0.03544921875
0.0378662109375
0.0346435546875
0.038671874999999994
1.3704345703124998
2.9140869140624996
3.0421875
3.0397705078125
3.0397705078125
3.0446044921874997
3.0397705078125
3.0405761718749997
3.0405761718749997
3.0397705078125
3.043798828125
3.0381591796875
2.9914306640625
2.914892578125
3.0421875
3.0397705078125
3.037353515625
3.0405761718749997
3.043798828125
3.037353515625
1.3269287109374999
0.0346435546875
0.03544921875
0.038671874999999994
0.0346435546875
0.0314208984375
0.0346435546875
0.0346435546875
0.033837890625
0.03544921875
0.037060546874999996
0.033837890625
0.033837890625
0.0378662109375
0.0346435546875
0.0346435546875
0.03544921875
0.03544921875
0.0322265625
0.0378662109375
0.0322265625
0.033837890625
0.0837890625
2.51044921875
3.0421875
3.0413818359375
3.0397705078125
3.0397705078125
3.0405761718749997
3.0421875
3.0421875
3.0397705078125
3.0421875
3.0413818359375
3.0123779296874997
2.9447021484375
3.0470214843749996
3.0389648437499996
3.0413818359375
3.0397705078125
3.0413818359375
3.0381591796875
3.0389648437499996
0.033837890625
0.0362548828125
0.0346435546875
0.033032226562499996
0.037060546874999996
0.0346435546875
0.038671874999999994
0.03544921875
0.0362548828125
0.033837890625
0.033032226562499996
0.0346435546875
0.037060546874999996
0.0346435546875
0.0314208984375
0.0346435546875
0.0346435546875
0.0322265625
0.03544921875
0.0217529296875
0.0394775390625
0.03544921875
2.2856689453125
3.0413818359375
3.0429931640624996
3.0446044921874997
3.0389648437499996
3.0405761718749997
3.0381591796875
3.0429931640624996
3.0405761718749997
3.0413818359375
3.037353515625
2.9978759765625
2.9946533203124996
3.0397705078125
3.0405761718749997
3.0381591796875
3.0405761718749997
3.0389648437499996
3.0397705078125
3.0421875
0.8870361328124999
0.033032226562499996
0.03544921875
0.037060546874999996
0.03544921875
0.0346435546875
0.03544921875
0.03544921875
0.0314208984375
0.0394775390625
0.0322265625
0.0378662109375
0.0346435546875
0.0346435546875
0.033837890625
0.0346435546875
0.03544921875
0.0346435546875
0.03544921875
0.0346435546875
0.0322265625
0.03544921875
1.6814208984374999
3.0389648437499996
3.0381591796875
3.0405761718749997
3.0405761718749997
3.0421875
3.0405761718749997
3.0413818359375
3.0405761718749997
3.0405761718749997
3.0397705078125
3.0397705078125
3.0421875
2.9898193359375
3.0405761718749997
3.0405761718749997
3.0421875
3.0397705078125
3.0429931640624996
3.0413818359375
1.4518066406249999
0.0346435546875
0.03544921875
0.03544921875
0.0314208984375
0.0362548828125
0.033837890625
0.03544921875
0.037060546874999996
0.03544921875
0.03544921875
0.037060546874999996
0.0378662109375
0.0322265625
0.030615234374999998
0.033837890625
0.0346435546875
0.037060546874999996
0.03544921875
0.03544921875
0.0378662109375
0.03544921875
1.4888671875
2.6546630859375
3.0405761718749997
3.0413818359375
3.0397705078125
3.0381591796875
3.0397705078125
3.0405761718749997
3.0405761718749997
3.0429931640624996
3.0421875
3.0413818359375
3.0397705078125
2.9559814453124997
3.0429931640624996
3.0421875
3.0397705078125
3.043798828125
3.0405761718749997
3.0413818359375
3.0405761718749997
0.037060546874999996
0.033837890625
0.0346435546875
0.0346435546875
0.0346435546875
0.03544921875
0.0322265625
0.033837890625
0.03544921875
0.0314208984375
0.0378662109375
0.0322265625
0.03544921875
0.03544921875
0.0362548828125
0.0346435546875
0.03544921875
0.033837890625
0.0346435546875
0.0346435546875
0.033032226562499996
1.6451660156249999
2.518505859375
3.0413818359375
3.043798828125
3.0421875
3.0405761718749997
3.0421875
3.0397705078125
3.0397705078125
3.0397705078125
3.0421875
3.0421875
3.0349365234374996
3.003515625
3.0389648437499996
3.0397705078125
3.0381591796875
3.037353515625
3.0413818359375
3.0421875
3.0389648437499996
0.6654785156249999
0.0314208984375
0.0346435546875
0.0346435546875
0.0346435546875
0.03544921875
0.033032226562499996
0.0346435546875
0.03544921875
0.0346435546875
0.0346435546875
0.03544921875
0.0346435546875
0.03544921875
0.0346435546875
0.0346435546875
0.0362548828125
0.038671874999999994
0.033837890625
0.0314208984375
0.0378662109375
0.0346435546875
1.8054931640624998
3.0397705078125
3.0421875
3.0446044921874997
3.0405761718749997
3.0389648437499996
3.0413818359375
3.0405761718749997
3.0405761718749997
3.0421875
3.0429931640624996
2.9455078125
3.0043212890624997
3.0389648437499996
3.0421875
3.0389648437499996
3.0429931640624996
3.0397705078125
3.0397705078125
3.0405761718749997
1.6612792968749999
0.0314208984375
0.03544921875
0.0346435546875
0.030615234374999998
0.0346435546875
0.0346435546875
0.0362548828125
0.0346435546875
0.0362548828125
0.0346435546875
0.033032226562499996
0.0346435546875
0.0346435546875
0.0362548828125
0.03544921875
0.03544921875
0.033837890625
0.0314208984375
0.03544921875
0.033837890625
0.033837890625
1.8828369140624999
2.8802490234375
3.0405761718749997
3.0405761718749997
3.0421875
3.0365478515624997
3.037353515625
3.0413818359375
3.0405761718749997
3.043798828125
3.0397705078125
3.0397705078125
3.0309082031249996
2.9503417968749996
3.0405761718749997
3.0413818359375
3.0405761718749997
3.0357421875
3.0405761718749997
3.037353515625
2.60712890625
0.03544921875
0.0346435546875
0.0346435546875
0.0378662109375
0.0346435546875
0.037060546874999996
0.0362548828125
0.03544921875
0.03544921875
0.0378662109375
0.037060546874999996
0.033837890625
0.0346435546875
0.033837890625
0.0322265625
0.0346435546875
0.0378662109375
0.0346435546875
0.0346435546875
0.0346435546875
0.030615234374999998
1.75634765625
2.550732421875
3.0421875
3.0397705078125
3.0405761718749997
3.0405761718749997
3.037353515625
3.0405761718749997
3.0413818359375
3.037353515625
3.0429931640624996
3.0389648437499996
3.0397705078125
2.9656494140625
3.037353515625
3.0405761718749997
3.0397705078125
3.0478271484375
3.0405761718749997
3.0397705078125
3.0413818359375
0.32871093749999997
0.037060546874999996
0.03544921875
0.0346435546875
0.038671874999999994
0.0346435546875
0.0346435546875
0.026586914062499998
0.033837890625
0.0346435546875
0.0394775390625
0.03544921875
0.0362548828125
0.033032226562499996
0.033837890625
0.0362548828125
0.0314208984375
0.033837890625
0.033032226562499996
0.0346435546875
0.033032226562499996
0.0346435546875
2.1873779296875
3.0421875
3.0421875
3.0429931640624996
3.04541015625
3.0421875
3.0429931640624996
3.0421875
3.0413818359375
3.0429931640624996
3.0389648437499996
3.0357421875
3.0349365234374996
3.0389648437499996
3.0413818359375
3.0405761718749997
3.0389648437499996
3.0397705078125
3.0397705078125
3.0365478515624997
1.2568359375
0.0362548828125
0.0346435546875
0.0362548828125
0.0346435546875
0.0322265625
0.03544921875
0.03544921875
0.0346435546875
0.0362548828125
0.03544921875
0.0378662109375
0.0322265625
0.03544921875
0.03544921875
0.0322265625
0.0346435546875
0.0314208984375
0.03544921875
0.033837890625
0.037060546874999996
0.033837890625
1.529150390625
2.9092529296875
3.0405761718749997
3.0397705078125
3.0405761718749997
3.0421875
3.0421875
3.0381591796875
3.0405761718749997
3.0405761718749997
3.0405761718749997
3.0381591796875
2.9914306640625
2.9156982421874997
3.043798828125
3.0405761718749997
3.0397705078125
3.0381591796875
3.0397705078125
3.0405761718749997
1.06025390625
0.033837890625
0.03544921875
0.0346435546875
0.03544921875
0.0322265625
0.0346435546875
0.0346435546875
0.0362548828125
0.03544921875
0.03544921875
0.0314208984375
0.0346435546875
0.0346435546875
0.0346435546875
0.0346435546875
0.0346435546875
0.0314208984375
0.0346435546875
0.03544921875
0.0394775390625
0.0314208984375
1.6927001953124998
2.70380859375
3.0397705078125
3.0413818359375
3.0421875
3.0397705078125
3.0421875
3.0397705078125
3.0429931640624996
3.0405761718749997
3.0397705078125
3.0413818359375
3.0405761718749997
3.011572265625
3.0413818359375
3.0421875
3.043798828125
3.0413818359375
3.0389648437499996
3.0365478515624997
1.819189453125
0.03544921875
0.0362548828125
0.0314208984375
0.0362548828125
0.033032226562499996
0.033837890625
0.033837890625
0.0346435546875
0.0346435546875
0.033837890625
0.037060546874999996
0.03544921875
0.033837890625
0.0346435546875
0.0314208984375
0.038671874999999994
0.03544921875
0.033837890625
0.0314208984375
0.0378662109375
0.0346435546875
0.0346435546875
2.1543457031249997
3.0389648437499996
3.0381591796875
3.0421875
3.0413818359375
3.0405761718749997
3.0405761718749997
3.0421875
3.0413818359375
3.0429931640624996
3.0405761718749997
3.0405761718749997
2.9785400390624996
3.029296875
3.0397705078125
3.0405761718749997
3.0429931640624996
3.0397705078125
3.0405761718749997
3.037353515625
0.9224853515625
0.037060546874999996
0.037060546874999996
0.0346435546875
0.0378662109375
0.0346435546875
0.0346435546875
0.0346435546875
0.0346435546875
0.033837890625
0.0314208984375
0.03544921875
0.03544921875
0.03544921875
0.0346435546875
0.033837890625
0.033837890625
0.0346435546875
0.03544921875
0.0346435546875
0.0346435546875
0.0346435546875
1.6346923828125
3.01962890625
3.0365478515624997
3.0413818359375
3.0413818359375
3.0413818359375
3.0397705078125
3.0446044921874997
3.0397705078125
3.0397705078125
3.0405761718749997
3.0397705078125
2.9930419921875
2.953564453125
3.0446044921874997
3.043798828125
3.0405761718749997
3.0389648437499996
3.0405761718749997
3.0405761718749997
1.1617675781249999
0.0346435546875
0.033837890625
0.0322265625
0.0346435546875
0.0378662109375
0.02900390625
0.03544921875
0.0346435546875
0.03544921875
0.0314208984375
0.030615234374999998
0.0394775390625
0.03544921875
0.03544921875
0.0346435546875
0.0346435546875
0.0346435546875
0.03544921875
0.037060546874999996
0.03544921875
0.0362548828125
1.4115234374999999
2.6361328124999996
3.0365478515624997
3.0365478515624997
3.0413818359375
3.0381591796875
3.0413818359375
3.0421875
3.0405761718749997
3.0405761718749997
3.0421875
3.0397705078125
3.0421875
2.9737060546875
3.0381591796875
3.0397705078125
3.0405761718749997
3.037353515625
3.0405761718749997
3.0397705078125
1.17626953125
0.0346435546875
0.033837890625
0.0346435546875
0.0346435546875
0.03544921875
0.03544921875
0.03544921875
0.0346435546875
0.0346435546875
0.0314208984375
0.0362548828125
0.038671874999999994
0.03544921875
0.0322265625
0.0346435546875
0.03544921875
0.033837890625
0.03544921875
0.0378662109375
0.0322265625
0.0346435546875
0.6590332031249999
2.44599609375
3.0413818359375
3.0421875
3.0405761718749997
3.0413818359375
3.0413818359375
3.0405761718749997
3.0405761718749997
3.0405761718749997
3.0413818359375
3.0421875
3.0252685546875
2.9583984374999996
3.0389648437499996
3.0381591796875
3.0421875
3.0405761718749997
3.0413818359375
3.0397705078125
3.043798828125
0.68642578125
0.0378662109375
0.0346435546875
0.033032226562499996
0.0346435546875
0.0346435546875
0.033837890625
0.0378662109375
0.0314208984375
0.0314208984375
0.0346435546875
0.03544921875
0.0378662109375
0.03544921875
0.0346435546875
0.030615234374999998
0.0346435546875
0.0322265625
0.0362548828125
0.0346435546875
0.0322265625
0.033032226562499996
1.7700439453124999
3.0429931640624996
3.0397705078125
3.0397705078125
3.0413818359375
3.043798828125
3.043798828125
3.0421875
3.0397705078125
3.0421875
3.0397705078125
3.0389648437499996
3.0043212890624997
3.0389648437499996
3.0405761718749997
3.037353515625
3.0421875
3.0413818359375
3.0413818359375
3.0429931640624996
1.9545410156249998
0.033837890625
0.0346435546875
0.0378662109375
0.03544921875
0.0346435546875
0.0322265625
0.0346435546875
0.0314208984375
0.03544921875
0.0322265625
0.033837890625
0.0346435546875
0.0362548828125
0.0378662109375
0.0346435546875
0.0346435546875
0.03544921875
0.0322265625
0.03544921875
0.0346435546875
0.0346435546875
1.5114257812499998
2.650634765625
3.0429931640624996
3.0381591796875
3.0429931640624996
3.0421875
3.0413818359375
3.0421875
3.0421875
3.0413818359375
3.0389648437499996
3.0349365234374996
3.0389648437499996
2.9672607421875
3.0405761718749997
3.0405761718749997
3.0421875
3.0389648437499996
3.0405761718749997
3.0413818359375
1.4034667968749999
0.03544921875
0.0314208984375
0.0346435546875
0.03544921875
0.0314208984375
0.037060546874999996
0.033032226562499996
0.0346435546875
0.033032226562499996
0.03544921875
0.033032226562499996
0.033837890625
0.03544921875
0.0346435546875
0.033837890625
0.0322265625
0.03544921875
0.0362548828125
0.0346435546875
0.0314208984375
0.0378662109375
1.6201904296874998
2.513671875
3.0381591796875
3.0301025390625
3.0397705078125
3.0389648437499996
3.0405761718749997
3.0405761718749997
3.0397705078125
3.0405761718749997
3.0446044921874997
3.0421875
3.0381591796875
3.003515625
3.0429931640624996
3.0446044921874997
3.0421875
3.0421875
3.0405761718749997
3.037353515625
3.0421875
0.3520751953125
0.033032226562499996
0.0346435546875
0.0346435546875
0.033837890625
0.0346435546875
0.033837890625
0.03544921875
0.033837890625
0.033032226562499996
0.03544921875
0.0346435546875
0.033032226562499996
0.03544921875
0.033837890625
0.03544921875
0.0362548828125
0.0322265625
0.03544921875
0.0346435546875
0.0362548828125
0.03544921875
2.0375244140624997
3.0405761718749997
3.0413818359375
3.0389648437499996
3.0397705078125
3.0397705078125
3.0405761718749997
3.0397705078125
3.0381591796875
3.0405761718749997
3.0397705078125
3.0413818359375
3.0067382812499996
3.0397705078125
3.0397705078125
3.0397705078125
3.0405761718749997
3.0389648437499996
3.043798828125
3.0405761718749997
1.5565429687499999
0.03544921875
0.033837890625
0.0322265625
0.0346435546875
0.033837890625
0.03544921875
0.033837890625
0.0346435546875
0.03544921875
0.033837890625
0.0378662109375
0.033032226562499996
0.0346435546875
0.0346435546875
0.03544921875
0.03544921875
0.033837890625
0.0362548828125
0.0378662109375
0.0378662109375
0.038671874999999994
1.8683349609375
2.8037109375
3.0421875
3.0389648437499996
3.0397705078125
3.0389648437499996
3.0357421875
3.0446044921874997
3.0397705078125
3.0421875
3.0405761718749997
3.0405761718749997
3.02607421875
3.0389648437499996
3.0405761718749997
3.0405761718749997
3.0365478515624997
3.0413818359375
3.0413818359375
3.0429931640624996
1.5637939453124998
0.033837890625
0.03544921875
0.0346435546875
0.0346435546875
0.0322265625
0.0346435546875
0.03544921875
0.0346435546875
0.0346435546875
0.033032226562499996
0.0346435546875
0.0378662109375
0.0346435546875
0.0346435546875
0.0346435546875
0.0362548828125
0.03544921875
0.0346435546875
0.0314208984375
0.0378662109375
0.0346435546875
1.6959228515625
2.6256591796874997
3.0413818359375
3.0397705078125
3.0381591796875
3.0421875
3.0421875
3.0357421875
3.0365478515624997
3.0413818359375
3.0421875
3.0381591796875
3.011572265625
2.9302001953124996
3.0389648437499996
3.0405761718749997
3.0389648437499996
3.0421875
3.0397705078125
3.0397705078125
2.228466796875
0.033032226562499996
0.03544921875
0.033837890625
0.0378662109375
0.03544921875
0.03544921875
0.03544921875
0.033837890625
0.03544921875
0.033837890625
0.0378662109375
0.0346435546875
0.0346435546875
0.033837890625
0.037060546874999996
0.0346435546875
0.033837890625
0.0322265625
0.03544921875
0.0314208984375
0.033032226562499996
0.0346435546875
2.5934326171874997
3.037353515625
3.0421875
3.043798828125
3.0421875
3.0405761718749997
3.0421875
3.0429931640624996
3.0421875
3.043798828125
3.0413818359375
3.0397705078125
3.021240234375
3.0405761718749997
3.0421875
3.0413818359375
3.0405761718749997
3.0413818359375
3.0405761718749997
3.0421875
0.9958007812499999
0.03544921875
0.0346435546875
0.033032226562499996
0.03544921875
0.0314208984375
0.0346435546875
0.033032226562499996
0.0322265625
0.033837890625
0.0322265625
0.0314208984375
0.0346435546875
0.0314208984375
0.03544921875
0.03544921875
0.03544921875
0.0322265625
0.0346435546875
0.0346435546875
0.03544921875
0.0459228515625
2.101171875
2.9833740234375
3.0389648437499996
3.0389648437499996
3.0405761718749997
3.0421875
3.0421875
3.0405761718749997
3.0413818359375
3.0405761718749997
3.0413818359375
3.037353515625
3.037353515625
3.0389648437499996
3.0429931640624996
3.0397705078125
3.0421875
3.0381591796875
3.0389648437499996
3.0413818359375
1.1335693359374999
0.03544921875
0.0346435546875
0.0346435546875
0.0346435546875
0.0346435546875
0.0378662109375
0.0346435546875
0.033837890625
0.0346435546875
0.037060546874999996
0.03544921875
0.030615234374999998
0.03544921875
0.0346435546875
0.033032226562499996
0.033837890625
0.0346435546875
0.030615234374999998
0.0314208984375
0.0346435546875
0.0346435546875
1.5090087890625
2.7481201171875
3.0421875
3.0421875
3.0389648437499996
3.0389648437499996
3.0405761718749997
3.0365478515624997
3.0389648437499996
3.0405761718749997
3.0421875
3.0397705078125
3.037353515625
2.9640380859374997
3.0397705078125
3.0389648437499996
3.0421875
3.0389648437499996
3.0405761718749997
3.0405761718749997
1.06025390625
0.0378662109375
0.037060546874999996
0.033032226562499996
0.03544921875
0.03544921875
0.030615234374999998
0.03544921875
0.0346435546875
0.03544921875
0.0314208984375
0.033032226562499996
0.0362548828125
0.033837890625
0.0322265625
0.0346435546875
0.03544921875
0.0346435546875
0.0322265625
0.0314208984375
0.0346435546875
0.037060546874999996
0.13615722656249998
2.3066162109375
3.0405761718749997
3.0405761718749997
3.037353515625
3.037353515625
3.0413818359375
3.0405761718749997
3.0413818359375
3.037353515625
3.0421875
3.043798828125
3.029296875
3.0349365234374996
3.0421875
3.0405761718749997
3.0421875
3.0389648437499996
3.0397705078125
3.043798828125
3.0381591796875
0.72509765625
0.0346435546875
0.0346435546875
0.0346435546875
0.03544921875
0.03544921875
0.033837890625
0.038671874999999994
0.033837890625
0.0314208984375
0.033837890625
0.0346435546875
0.0378662109375
0.0346435546875
0.0346435546875
0.037060546874999996
0.0378662109375
0.0346435546875
0.0362548828125
0.0346435546875
0.0346435546875
0.0346435546875
2.3130615234375
3.0397705078125
3.0413818359375
3.037353515625
3.0381591796875
3.0405761718749997
3.0421875
3.0397705078125
3.0413818359375
3.0397705078125
3.0381591796875
3.011572265625
2.9986816406249996
3.0389648437499996
3.043798828125
3.0405761718749997
3.0397705078125
3.0413818359375
3.0389648437499996
3.0397705078125
0.8443359374999999
0.033837890625
0.0346435546875
0.033837890625
0.0346435546875
0.037060546874999996
0.03544921875
0.0346435546875
0.0362548828125
0.03544921875
0.038671874999999994
0.03544921875
0.033032226562499996
0.033032226562499996
0.0346435546875
0.033837890625
0.0346435546875
0.03544921875
0.0346435546875
0.0346435546875
0.0346435546875
0.033837890625
1.5919921874999998
2.7448974609374996
3.0405761718749997
3.0413818359375
3.0405761718749997
3.0405761718749997
3.037353515625
3.0429931640624996
3.0421875
3.037353515625
3.043798828125
3.0381591796875
3.0043212890624997
2.9438964843749997
3.037353515625
3.0421875
3.0405761718749997
3.0421875
3.0405761718749997
3.0389648437499996
1.3269287109374999
0.03544921875
0.033837890625
0.0346435546875
0.0346435546875
0.0346435546875
0.03544921875
0.0346435546875
0.033837890625
0.033837890625
0.0346435546875
0.0314208984375
0.033837890625
0.038671874999999994
0.0346435546875
0.0362548828125
0.0346435546875
0.033837890625
0.0378662109375
0.0346435546875
0.03544921875
0.03544921875
1.103759765625
2.354150390625
3.0405761718749997
3.0421875
3.0405761718749997
3.0389648437499996
3.0405761718749997
3.0421875
3.0429931640624996
3.0397705078125
3.0413818359375
3.0421875
2.9986816406249996
2.940673828125
3.0405761718749997
3.0421875
3.0405761718749997
3.0405761718749997
3.037353515625
3.0413818359375
3.0405761718749997
0.35690917968749997
0.03544921875
0.0346435546875
0.0362548828125
0.033032226562499996
0.033837890625
0.03544921875
0.0346435546875
0.037060546874999996
0.0362548828125
0.033032226562499996
0.0314208984375
0.0346435546875
0.0362548828125
0.0346435546875
0.030615234374999998
0.0378662109375
0.033837890625
0.033837890625
0.0314208984375
0.033837890625
0.0346435546875
2.487890625
3.0405761718749997
3.0397705078125
3.0397705078125
3.0421875
3.0413818359375
3.0429931640624996
3.037353515625
3.0405761718749997
3.0405761718749997
3.0389648437499996
3.0381591796875
3.01962890625
3.0389648437499996
3.0405761718749997
3.0389648437499996
3.0405761718749997
3.0381591796875
3.0389648437499996
3.0405761718749997
0.6171386718749999
0.0346435546875
0.0314208984375
0.0346435546875
0.0346435546875
0.033837890625
0.033837890625
0.0346435546875
0.0346435546875
0.0362548828125
0.0346435546875
0.0378662109375
0.0378662109375
0.0378662109375
0.0346435546875
0.0322265625
0.0314208984375
0.0314208984375
0.0346435546875
0.0322265625
0.0346435546875
0.0314208984375
1.8707519531249999
2.824658203125
3.0413818359375
3.0413818359375
3.0397705078125
3.0405761718749997
3.0413818359375
3.0405761718749997
3.0405761718749997
3.037353515625
3.0405761718749997
3.0421875
2.9978759765625
