1.09248046875
0.040283203125
0.04189453125
0.041088867187499996
0.040283203125
0.041088867187499996
0.040283203125
0.0394775390625
0.040283203125
0.0394775390625
0.043505859375
0.0362548828125
0.041088867187499996
0.041088867187499996
0.0394775390625
0.0378662109375
0.041088867187499996
0.041088867187499996
0.042700195312499994
0.040283203125
0.0394775390625
0.04189453125
2.0165771484375
3.0494384765625
3.050244140625
3.0462158203125
3.0470214843749996
3.0462158203125
3.04541015625
3.0446044921874997
3.04541015625
3.0486328124999997
3.0486328124999997
3.037353515625
2.9737060546875
2.9044189453125
3.05185546875
3.0470214843749996
3.04541015625
3.043798828125
3.04541015625
3.04541015625
1.6781982421875
0.041088867187499996
0.040283203125
0.041088867187499996
0.041088867187499996
0.038671874999999994
0.040283203125
0.040283203125
0.041088867187499996
0.041088867187499996
0.037060546874999996
0.04189453125
0.041088867187499996
0.0443115234375
0.041088867187499996
0.041088867187499996
0.040283203125
0.040283203125
0.043505859375
0.038671874999999994
0.040283203125
0.041088867187499996
1.609716796875
2.7086425781249996
3.04541015625
3.043798828125
3.0462158203125
3.0470214843749996
3.0486328124999997
3.0462158203125
3.0470214843749996
3.0462158203125
3.0446044921874997
3.037353515625
2.9173095703125
2.9438964843749997
3.043798828125
3.04541015625
3.0478271484375
3.0470214843749996
3.0478271484375
3.04541015625
1.7813232421874998
0.038671874999999994
0.041088867187499996
0.0378662109375
0.0394775390625
0.040283203125
0.041088867187499996
0.041088867187499996
0.04189453125
0.040283203125
0.043505859375
0.0394775390625
0.045117187499999996
0.041088867187499996
0.04189453125
0.0378662109375
0.037060546874999996
0.040283203125
0.04189453125
0.04189453125
0.042700195312499994
0.040283203125
1.6379150390625
2.6256591796874997
3.0462158203125
3.0486328124999997
3.04541015625
3.0494384765625
3.0470214843749996
3.0478271484375
3.0470214843749996
3.0470214843749996
3.04541015625
3.0478271484375
3.0107666015624996
2.9358398437499997
3.0470214843749996
3.0478271484375
3.05185546875
3.0470214843749996
3.0486328124999997
3.0470214843749996
2.940673828125
0.72509765625
0.042700195312499994
0.038671874999999994
0.042700195312499994
0.037060546874999996
0.04189453125
0.04189453125
0.04189453125
0.040283203125
0.04189453125
0.041088867187499996
0.04189453125
0.038671874999999994
0.043505859375
0.041088867187499996
0.038671874999999994
0.0443115234375
0.040283203125
0.0443115234375
0.041088867187499996
0.04189453125
0.043505859375
2.118896484375
3.04541015625
3.0510498046874996
3.0478271484375
3.0462158203125
3.0494384765625
3.0494384765625
3.0470214843749996
3.0470214843749996
3.0494384765625
3.050244140625
2.9833740234375
2.9737060546875
3.0470214843749996
3.0486328124999997
3.04541015625
3.0470214843749996
3.0462158203125
3.0478271484375
3.0486328124999997
1.5436523437499998
0.040283203125
0.0443115234375
0.04189453125
0.043505859375
0.041088867187499996
0.043505859375
0.041088867187499996
0.041088867187499996
0.041088867187499996
0.0394775390625
0.043505859375
0.043505859375
0.041088867187499996
0.041088867187499996
0.0443115234375
0.0378662109375
0.04189453125
0.04189453125
0.041088867187499996
0.040283203125
0.0394775390625
2.035107421875
2.9205322265625
3.0470214843749996
3.0478271484375
3.0470214843749996
3.04541015625
3.0486328124999997
3.0446044921874997
3.0486328124999997
3.04541015625
3.05185546875
3.0462158203125
3.011572265625
3.0172119140625
3.0486328124999997
3.04541015625
3.0462158203125
3.0486328124999997
3.04541015625
3.0470214843749996
1.4848388671875
0.041088867187499996
0.040283203125
0.04189453125
0.042700195312499994
0.045117187499999996
0.0378662109375
0.045117187499999996
0.043505859375
0.043505859375
0.041088867187499996
0.041088867187499996
0.043505859375
0.041088867187499996
0.0362548828125
0.04189453125
0.04189453125
0.041088867187499996
0.0394775390625
0.045117187499999996
0.04189453125
0.041088867187499996
1.6169677734374999
2.54267578125
3.0470214843749996
3.0462158203125
3.0446044921874997
3.04541015625
3.0470214843749996
3.0486328124999997
3.0446044921874997
3.0429931640624996
3.0462158203125
3.04541015625
3.01962890625
2.91650390625
3.0462158203125
3.0446044921874997
3.04541015625
3.0486328124999997
3.0470214843749996
3.0462158203125
2.2856689453125
0.436669921875
0.0378662109375
0.042700195312499994
0.0378662109375
0.041088867187499996
0.045117187499999996
0.041088867187499996
0.04189453125
0.042700195312499994
0.040283203125
0.041088867187499996
0.04189453125
0.041088867187499996
0.043505859375
0.04189453125
0.04189453125
0.038671874999999994
0.04189453125
0.0378662109375
0.041088867187499996
0.040283203125
0.04189453125
2.165625
3.0494384765625
3.0470214843749996
3.0446044921874997
3.0470214843749996
3.0486328124999997
3.0494384765625
3.0486328124999997
3.0510498046874996
3.0470214843749996
3.0470214843749996
3.001904296875
2.9946533203124996
3.0470214843749996
3.043798828125
3.0486328124999997
3.0470214843749996
3.0462158203125
3.0558837890625
3.0446044921874997
1.4236083984374999
0.04189453125
0.042700195312499994
0.04189453125
0.04189453125
0.041088867187499996
0.04189453125
0.041088867187499996
0.041088867187499996
0.04189453125
0.041088867187499996
0.0443115234375
0.0459228515625
0.041088867187499996
0.043505859375
0.0394775390625
0.046728515624999994
0.04189453125
0.040283203125
0.040283203125
0.045117187499999996
0.04189453125
1.3994384765624999
2.8947509765625
3.043798828125
3.0486328124999997
3.050244140625
3.0478271484375
3.0486328124999997
3.0478271484375
3.0478271484375
3.0486328124999997
3.0478271484375
3.0486328124999997
3.01962890625
2.96484375
3.050244140625
3.0462158203125
3.050244140625
3.0478271484375
3.050244140625
3.04541015625
1.1537109374999999
0.043505859375
0.041088867187499996
0.041088867187499996
0.041088867187499996
0.0378662109375
0.041088867187499996
0.045117187499999996
0.04189453125
0.041088867187499996
0.041088867187499996
0.040283203125
0.042700195312499994
0.041088867187499996
0.0443115234375
0.040283203125
0.041088867187499996
0.041088867187499996
0.04189453125
0.041088867187499996
0.040283203125
0.04189453125
1.38896484375
2.6458007812499997
3.0478271484375
3.0470214843749996
3.0486328124999997
3.0446044921874997
3.0462158203125
3.0462158203125
3.0470214843749996
3.0478271484375
3.0470214843749996
3.0478271484375
2.985791015625
2.9197265624999997
3.0470214843749996
3.0462158203125
3.0446044921874997
3.043798828125
3.04541015625
3.04541015625
1.3510986328124999
0.042700195312499994
0.040283203125
0.041088867187499996
0.041088867187499996
0.040283203125
0.045117187499999996
0.04189453125
0.043505859375
0.041088867187499996
0.038671874999999994
0.04189453125
0.041088867187499996
0.040283203125
0.0394775390625
0.042700195312499994
0.042700195312499994
0.043505859375
0.042700195312499994
0.0515625
0.04189453125
0.04189453125
0.0443115234375
2.1825439453124997
3.037353515625
3.0494384765625
3.0486328124999997
3.0470214843749996
3.04541015625
3.0429931640624996
3.0486328124999997
3.04541015625
3.0478271484375
3.0470214843749996
3.0365478515624997
2.956787109375
3.0446044921874997
3.0486328124999997
3.0486328124999997
3.0470214843749996
3.0470214843749996
3.0486328124999997
3.0494384765625
1.042529296875
0.04189453125
0.043505859375
0.0378662109375
0.041088867187499996
0.041088867187499996
0.040283203125
0.04189453125
0.0443115234375
0.0443115234375
0.040283203125
0.041088867187499996
0.041088867187499996
0.04189453125
0.04189453125
0.041088867187499996
0.041088867187499996
0.043505859375
0.0378662109375
0.045117187499999996
0.04189453125
0.04189453125
1.4920898437499999
2.8673583984374997
3.0494384765625
3.0486328124999997
3.04541015625
3.0462158203125
3.0478271484375
3.050244140625
3.0470214843749996
3.0478271484375
3.0607177734374997
3.034130859375
2.9849853515625
2.9390625
3.0429931640624996
3.0486328124999997
3.05185546875
3.0486328124999997
3.0494384765625
3.0510498046874996
1.4711425781249998
0.04189453125
0.0394775390625
0.045117187499999996
0.04189453125
0.042700195312499994
0.04189453125
0.042700195312499994
0.045117187499999996
0.043505859375
0.042700195312499994
0.04189453125
0.042700195312499994
0.04189453125
0.04189453125
0.0443115234375
0.042700195312499994
0.0443115234375
0.04189453125
0.0394775390625
0.042700195312499994
0.0443115234375
1.3317626953125
2.553955078125
3.0470214843749996
3.0478271484375
3.0470214843749996
3.0462158203125
3.0462158203125
3.05185546875
3.0486328124999997
3.0486328124999997
3.0462158203125
3.0478271484375
3.04541015625
3.0236572265625
3.04541015625
3.0478271484375
3.0486328124999997
3.050244140625
3.050244140625
3.0486328124999997
1.2286376953125
0.0378662109375
0.042700195312499994
0.0443115234375
0.04189453125
0.0394775390625
0.041088867187499996
0.041088867187499996
0.0378662109375
0.04189453125
0.0394775390625
0.04189453125
0.04189453125
0.045117187499999996
0.0378662109375
0.0378662109375
0.041088867187499996
0.04189453125
0.04189453125
0.04189453125
0.0394775390625
0.0459228515625
0.5647705078124999
2.32998046875
3.0470214843749996
3.04541015625
3.043798828125
3.0510498046874996
3.0486328124999997
3.0462158203125
3.0478271484375
3.0486328124999997
3.0478271484375
3.0478271484375
3.043798828125
2.9761230468749997
3.0486328124999997
3.04541015625
3.0486328124999997
3.0446044921874997
3.050244140625
3.043798828125
3.0486328124999997
0.7629638671875
0.0443115234375
0.045117187499999996
0.04189453125
0.041088867187499996
0.04189453125
0.041088867187499996
0.040283203125
0.04189453125
0.04189453125
0.041088867187499996
0.0378662109375
0.04189453125
0.0443115234375
0.041088867187499996
0.037060546874999996
0.042700195312499994
0.042700195312499994
0.045117187499999996
0.041088867187499996
0.042700195312499994
0.04189453125
1.9666259765624998
3.0470214843749996
3.0470214843749996
3.050244140625
3.0478271484375
3.050244140625
3.0462158203125
3.04541015625
3.0478271484375
3.0470214843749996
3.04541015625
2.9970703125
2.9817626953125
3.0470214843749996
3.04541015625
3.0462158203125
3.0470214843749996
3.0470214843749996
3.04541015625
3.050244140625
1.6371093749999999
0.041088867187499996
0.0459228515625
0.038671874999999994
0.043505859375
0.041088867187499996
0.038671874999999994
0.041088867187499996
0.04189453125
0.0394775390625
0.04189453125
0.038671874999999994
0.042700195312499994
0.04189453125
0.040283203125
0.0443115234375
0.0346435546875
0.0394775390625
0.04189453125
0.040283203125
0.0394775390625
0.041088867187499996
1.683837890625
2.7674560546875
3.0478271484375
3.04541015625
3.050244140625
3.050244140625
3.0486328124999997
3.04541015625
3.0470214843749996
3.0478271484375
3.0446044921874997
3.0478271484375
3.0301025390625
3.011572265625
3.0486328124999997
3.0470214843749996
3.050244140625
3.04541015625
3.0494384765625
3.050244140625
3.04541015625
0.04189453125
0.04189453125
0.046728515624999994
0.04189453125
0.041088867187499996
0.0394775390625
0.040283203125
0.04189453125
0.041088867187499996
0.041088867187499996
0.040283203125
0.041088867187499996
0.041088867187499996
0.0394775390625
0.0394775390625
0.04189453125
0.042700195312499994
0.041088867187499996
0.04189453125
0.038671874999999994
0.0459228515625
0.968408203125
2.2534423828125
2.977734375
3.04541015625
3.0486328124999997
3.0478271484375
3.0421875
3.050244140625
3.0470214843749996
3.0478271484375
3.04541015625
3.0462158203125
3.0413818359375
2.9664550781249996
3.0462158203125
3.0470214843749996
3.04541015625
3.0462158203125
3.0470214843749996
3.0462158203125
3.0478271484375
0.62197265625
0.037060546874999996
0.040283203125
0.041088867187499996
0.038671874999999994
0.037060546874999996
0.0378662109375
0.0378662109375
0.040283203125
0.041088867187499996
0.041088867187499996
0.0394775390625
0.041088867187499996
0.037060546874999996
0.04189453125
0.040283203125
0.041088867187499996
0.038671874999999994
0.0394775390625
0.041088867187499996
0.040283203125
0.04189453125
1.9182861328124998
3.0470214843749996
3.0462158203125
3.0446044921874997
3.0478271484375
3.0470214843749996
3.0462158203125
3.0470214843749996
3.0470214843749996
3.0470214843749996
3.0478271484375
3.0462158203125
2.985791015625
3.0470214843749996
3.0470214843749996
3.0446044921874997
3.0462158203125
3.0462158203125
3.050244140625
3.04541015625
1.662890625
0.041088867187499996
0.041088867187499996
0.041088867187499996
0.040283203125
0.040283203125
0.043505859375
0.041088867187499996
0.040283203125
0.04189453125
0.041088867187499996
0.040283203125
0.0394775390625
0.040283203125
0.040283203125
0.0394775390625
0.0443115234375
0.041088867187499996
0.038671874999999994
0.0378662109375
0.043505859375
0.043505859375
1.7394287109375
2.673193359375
3.0470214843749996
3.0470214843749996
3.0494384765625
3.04541015625
3.0486328124999997
3.0486328124999997
3.043798828125
3.0470214843749996
3.0429931640624996
3.0462158203125
3.0349365234374996
2.9753173828125
3.0470214843749996
3.0462158203125
3.0494384765625
3.0510498046874996
3.0566894531249997
3.04541015625
1.8820312499999998
0.041088867187499996
0.0378662109375
0.037060546874999996
0.041088867187499996
0.041088867187499996
0.04189453125
0.04189453125
0.037060546874999996
0.041088867187499996
0.040283203125
0.037060546874999996
0.040283203125
0.041088867187499996
0.045117187499999996
0.041088867187499996
0.041088867187499996
0.041088867187499996
0.043505859375
0.038671874999999994
0.041088867187499996
0.041088867187499996
1.5557373046874998
2.5168945312499997
3.0478271484375
3.04541015625
3.0446044921874997
3.04541015625
3.0470214843749996
3.0494384765625
3.0470214843749996
3.0486328124999997
3.050244140625
3.04541015625
3.0494384765625
3.0244628906249997
3.0486328124999997
3.0478271484375
3.043798828125
3.0446044921874997
3.0462158203125
3.0470214843749996
2.6143798828125
0.230419921875
0.041088867187499996
0.0394775390625
0.041088867187499996
0.038671874999999994
0.041088867187499996
0.040283203125
0.041088867187499996
0.0394775390625
0.04189453125
0.041088867187499996
0.038671874999999994
0.040283203125
0.041088867187499996
0.0443115234375
0.0394775390625
0.041088867187499996
0.038671874999999994
0.0378662109375
0.037060546874999996
0.040283203125
0.0443115234375
2.064111328125
3.0478271484375
3.0462158203125
3.0478271484375
3.0494384765625
3.0462158203125
3.04541015625
3.04541015625
3.0478271484375
3.050244140625
3.0486328124999997
3.0470214843749996
3.0421875
3.0470214843749996
3.04541015625
3.0470214843749996
3.0429931640624996
3.0462158203125
3.0462158203125
3.04541015625
1.24072265625
0.04189453125
0.040283203125
0.045117187499999996
0.038671874999999994
0.040283203125
0.04189453125
0.041088867187499996
0.041088867187499996
0.0443115234375
0.04189453125
0.037060546874999996
0.038671874999999994
0.043505859375
0.041088867187499996
0.04189453125
0.04189453125
0.041088867187499996
0.041088867187499996
0.041088867187499996
0.04189453125
0.043505859375
1.4880615234374999
2.9688720703125
3.04541015625
3.0494384765625
3.0462158203125
3.043798828125
3.0462158203125
3.04541015625
3.0429931640624996
3.0470214843749996
3.043798828125
3.0494384765625
3.0381591796875
2.9656494140625
3.0494384765625
3.0462158203125
3.0429931640624996
3.0462158203125
3.0429931640624996
3.0462158203125
1.3631835937499999
0.041088867187499996
0.041088867187499996
0.040283203125
0.037060546874999996
0.041088867187499996
0.038671874999999994
0.041088867187499996
0.037060546874999996
0.040283203125
0.0443115234375
0.041088867187499996
0.041088867187499996
0.041088867187499996
0.04189453125
0.043505859375
0.040283203125
0.045117187499999996
0.041088867187499996
0.04189453125
0.040283203125
0.0443115234375
1.3897705078125
2.350927734375
3.037353515625
3.0486328124999997
3.0429931640624996
3.04541015625
3.0470214843749996
3.0478271484375
3.0462158203125
3.0470214843749996
3.0470214843749996
3.0470214843749996
3.043798828125
2.9326171875
3.0429931640624996
3.0510498046874996
3.0462158203125
3.0470214843749996
3.0470214843749996
3.0446044921874997
1.4993408203124998
0.0378662109375
0.040283203125
0.045117187499999996
0.04189453125
0.0443115234375
0.040283203125
0.041088867187499996
0.0459228515625
0.04189453125
0.041088867187499996
0.041088867187499996
0.0443115234375
0.041088867187499996
0.04189453125
0.040283203125
0.041088867187499996
0.040283203125
0.040283203125
0.041088867187499996
0.043505859375
0.040283203125
0.038671874999999994
1.993212890625
3.0010986328125
3.043798828125
3.0462158203125
3.0486328124999997
3.043798828125
3.0462158203125
3.0462158203125
3.0478271484375
3.04541015625
3.0470214843749996
3.0446044921874997
2.9865966796874996
3.043798828125
3.0470214843749996
3.0486328124999997
3.0486328124999997
3.043798828125
3.043798828125
3.04541015625
0.8483642578124999
0.043505859375
0.0394775390625
0.040283203125
0.040283203125
0.041088867187499996
0.042700195312499994
0.042700195312499994
0.0378662109375
0.040283203125
0.041088867187499996
0.037060546874999996
0.040283203125
0.0443115234375
0.042700195312499994
0.0443115234375
0.040283203125
0.041088867187499996
0.04189453125
0.042700195312499994
0.043505859375
0.04189453125
1.7418457031249999
3.0478271484375
3.0470214843749996
3.0486328124999997
3.0462158203125
3.0486328124999997
3.0470214843749996
3.0462158203125
3.0478271484375
3.0470214843749996
3.0470214843749996
3.04541015625
3.0470214843749996
3.04541015625
3.0478271484375
3.0446044921874997
3.04541015625
3.0462158203125
3.0470214843749996
3.0494384765625
1.6314697265625
0.04189453125
0.042700195312499994
0.041088867187499996
0.03544921875
0.04189453125
0.041088867187499996
0.041088867187499996
0.041088867187499996
0.042700195312499994
0.04189453125
0.041088867187499996
0.040283203125
0.045117187499999996
0.040283203125
0.041088867187499996
0.041088867187499996
0.040283203125
0.041088867187499996
0.040283203125
0.04189453125
0.041088867187499996
1.458251953125
2.5869873046875
3.0470214843749996
3.0478271484375
3.0486328124999997
3.043798828125
3.0429931640624996
3.04541015625
3.0470214843749996
3.0462158203125
3.0486328124999997
3.0462158203125
3.0462158203125
2.9624267578124996
3.0462158203125
3.04541015625
3.0462158203125
3.0429931640624996
3.0470214843749996
3.043798828125
1.445361328125
0.042700195312499994
0.0394775390625
0.040283203125
0.041088867187499996
0.04189453125
0.0443115234375
0.040283203125
0.04189453125
0.041088867187499996
0.0394775390625
0.0378662109375
0.038671874999999994
0.043505859375
0.042700195312499994
0.04189453125
0.038671874999999994
0.040283203125
0.041088867187499996
0.041088867187499996
0.04189453125
0.043505859375
0.042700195312499994
2.03994140625
2.83271484375
3.0470214843749996
3.0470214843749996
3.043798828125
3.0429931640624996
3.0486328124999997
3.0478271484375
3.0478271484375
3.0462158203125
3.04541015625
3.0470214843749996
3.0381591796875
3.050244140625
3.0462158203125
3.0429931640624996
3.04541015625
3.0486328124999997
3.050244140625
3.04541015625
0.6429199218749999
0.043505859375
0.040283203125
0.041088867187499996
0.042700195312499994
0.040283203125
0.04189453125
0.041088867187499996
0.041088867187499996
0.0394775390625
0.042700195312499994
0.041088867187499996
0.040283203125
0.043505859375
0.040283203125
0.038671874999999994
0.041088867187499996
0.041088867187499996
0.0378662109375
0.040283203125
0.040283203125
0.04189453125
1.8183837890624999
2.947119140625
3.0494384765625
3.0462158203125
3.0486328124999997
3.0470214843749996
3.050244140625
3.04541015625
3.0478271484375
3.04541015625
3.0494384765625
3.043798828125
2.9978759765625
3.0470214843749996
3.04541015625
3.0446044921874997
3.04541015625
3.0470214843749996
3.0462158203125
3.0494384765625
1.6137451171875
0.040283203125
0.041088867187499996
0.041088867187499996
0.042700195312499994
0.040283203125
0.040283203125
0.041088867187499996
0.043505859375
0.041088867187499996
0.0378662109375
0.0362548828125
0.040283203125
0.040283203125
0.0378662109375
0.041088867187499996
0.040283203125
0.041088867187499996
0.041088867187499996
0.041088867187499996
0.04189453125
0.041088867187499996
1.3591552734374999
2.5982666015625
3.0470214843749996
3.0494384765625
3.0462158203125
3.0486328124999997
3.0478271484375
3.0470214843749996
3.0470214843749996
3.0494384765625
3.0470214843749996
3.0462158203125
3.04541015625
2.9672607421875
3.0421875
3.04541015625
3.0470214843749996
3.0462158203125
3.0494384765625
3.05830078125
1.7724609375
0.0378662109375
0.0443115234375
0.040283203125
0.040283203125
0.040283203125
0.041088867187499996
0.041088867187499996
0.040283203125
0.0378662109375
0.04189453125
0.0378662109375
0.040283203125
0.041088867187499996
0.043505859375
0.0394775390625
0.041088867187499996
0.041088867187499996
0.0378662109375
0.0378662109375
0.040283203125
0.041088867187499996
1.3398193359375
2.4016845703125
3.0421875
3.04541015625
3.050244140625
3.0486328124999997
3.04541015625
3.0470214843749996
3.0470214843749996
3.0462158203125
3.04541015625
3.0510498046874996
3.043798828125
2.979345703125
3.0462158203125
3.04541015625
3.0421875
3.043798828125
3.043798828125
3.0462158203125
2.689306640625
0.38349609375
0.040283203125
0.041088867187499996
0.0394775390625
0.041088867187499996
0.041088867187499996
0.041088867187499996
0.04189453125
0.040283203125
0.04189453125
0.041088867187499996
0.042700195312499994
0.043505859375
0.04189453125
0.037060546874999996
0.040283203125
0.043505859375
0.040283203125
0.0362548828125
0.041088867187499996
0.04189453125
0.6413085937499999
2.0987548828125
2.921337890625
3.050244140625
3.0462158203125
3.0470214843749996
3.0429931640624996
3.0470214843749996
3.050244140625
3.0470214843749996
3.04541015625
3.0470214843749996
3.0429931640624996
2.9986816406249996
3.050244140625
3.0470214843749996
3.043798828125
3.0462158203125
3.0470214843749996
3.0478271484375
3.0470214843749996
1.4993408203124998
0.0394775390625
0.037060546874999996
0.040283203125
0.041088867187499996
0.042700195312499994
0.040283203125
0.041088867187499996
0.045117187499999996
0.041088867187499996
0.0378662109375
0.043505859375
0.040283203125
0.0394775390625
0.040283203125
0.04189453125
0.0378662109375
0.037060546874999996
0.041088867187499996
0.041088867187499996
0.04189453125
0.040283203125
1.7579589843749999
2.8037109375
3.04541015625
3.0470214843749996
3.0478271484375
3.0470214843749996
3.043798828125
3.0470214843749996
3.043798828125
3.050244140625
3.0478271484375
3.0462158203125
3.02607421875
2.9680664062499997
3.04541015625
3.04541015625
3.0462158203125
3.043798828125
3.0429931640624996
3.0470214843749996
2.7666503906249997
0.04189453125
0.0378662109375
0.040283203125
0.040283203125
0.04189453125
0.041088867187499996
0.041088867187499996
0.040283203125
0.0378662109375
0.0394775390625
0.041088867187499996
0.041088867187499996
0.041088867187499996
0.040283203125
0.0378662109375
0.040283203125
0.041088867187499996
0.040283203125
0.042700195312499994
0.040283203125
0.040283203125
1.5533203125
2.5305908203125
3.0470214843749996
3.04541015625
3.0478271484375
3.0462158203125
3.0486328124999997
3.05185546875
3.0494384765625
3.043798828125
3.0478271484375
3.0381591796875
3.04541015625
2.9978759765625
3.0478271484375
3.0470214843749996
3.05185546875
3.0470214843749996
3.050244140625
3.043798828125
1.716064453125
0.0378662109375
0.0394775390625
0.04189453125
0.041088867187499996
0.040283203125
0.041088867187499996
0.040283203125
0.04189453125
0.040283203125
0.0394775390625
0.0378662109375
0.041088867187499996
0.041088867187499996
0.038671874999999994
0.045117187499999996
0.040283203125
0.040283203125
0.040283203125
0.043505859375
0.041088867187499996
0.0378662109375
0.0362548828125
2.0407470703125
2.9140869140624996
3.0470214843749996
3.0470214843749996
3.0470214843749996
3.05185546875
3.0478271484375
3.0421875
3.0462158203125
3.0486328124999997
3.043798828125
3.0446044921874997
3.001904296875
3.0470214843749996
3.0429931640624996
3.0486328124999997
3.0470214843749996
3.04541015625
3.0494384765625
3.050244140625
0.910400390625
0.041088867187499996
0.041088867187499996
0.042700195312499994
0.040283203125
0.038671874999999994
0.038671874999999994
0.03544921875
0.045117187499999996
0.045117187499999996
0.04189453125
0.0394775390625
0.040283203125
0.040283203125
0.04189453125
0.04189453125
0.040283203125
0.0378662109375
0.04189453125
0.045117187499999996
0.041088867187499996
0.038671874999999994
1.7942138671874999
2.6578857421874997
3.0462158203125
3.0462158203125
3.0462158203125
3.04541015625
3.0470214843749996
3.0478271484375
3.0494384765625
3.043798828125
3.0462158203125
3.050244140625
3.0075439453125
3.0446044921874997
3.0462158203125
3.0470214843749996
3.05185546875
3.0462158203125
3.0470214843749996
3.0462158203125
1.8071044921875
0.0362548828125
0.040283203125
0.0443115234375
0.0394775390625
0.040283203125
0.04189453125
0.041088867187499996
0.041088867187499996
0.043505859375
0.04189453125
0.040283203125
0.041088867187499996
0.038671874999999994
0.0394775390625
0.04189453125
0.04189453125
0.041088867187499996
0.043505859375
0.041088867187499996
0.0394775390625
0.041088867187499996
1.4437499999999999
2.33642578125
3.0486328124999997
3.0494384765625
3.0470214843749996
3.043798828125
3.0478271484375
3.0486328124999997
3.0486328124999997
3.0470214843749996
3.04541015625
3.0478271484375
3.0478271484375
3.0357421875
3.0429931640624996
3.04541015625
3.0494384765625
3.0470214843749996
3.0462158203125
3.0470214843749996
3.0486328124999997
0.44794921875
0.0394775390625
0.037060546874999996
0.043505859375
0.040283203125
0.041088867187499996
0.0394775390625
0.0443115234375
0.041088867187499996
0.040283203125
0.041088867187499996
0.041088867187499996
0.038671874999999994
0.040283203125
0.040283203125
0.042700195312499994
0.037060546874999996
0.0362548828125
0.0443115234375
0.041088867187499996
0.040283203125
0.041088867187499996
1.6427490234375
2.7239501953125
3.0470214843749996
3.0470214843749996
3.0470214843749996
3.04541015625
3.0470214843749996
3.0494384765625
3.0478271484375
3.0478271484375
3.0478271484375
3.0478271484375
3.0478271484375
3.0486328124999997
3.0470214843749996
3.0486328124999997
3.0478271484375
3.0462158203125
3.0486328124999997
3.0462158203125
1.7394287109375
0.040283203125
0.041088867187499996
0.041088867187499996
0.040283203125
0.0394775390625
0.04189453125
0.0362548828125
0.0394775390625
0.04189453125
0.03544921875
0.041088867187499996
0.037060546874999996
0.042700195312499994
0.0394775390625
0.041088867187499996
0.040283203125
0.038671874999999994
0.04189453125
0.041088867187499996
0.041088867187499996
0.043505859375
1.3962158203125
2.582958984375
3.0470214843749996
3.0478271484375
3.04541015625
3.0462158203125
3.04541015625
3.0470214843749996
3.0462158203125
3.0470214843749996
3.0462158203125
3.0486328124999997
3.0172119140625
2.9543701171874996
3.043798828125
3.0462158203125
3.0470214843749996
3.0494384765625
3.05185546875
3.04541015625
2.1744873046874997
0.040283203125
0.041088867187499996
0.040283203125
0.042700195312499994
0.0378662109375
0.0394775390625
0.040283203125
0.040283203125
0.043505859375
0.040283203125
0.040283203125
0.041088867187499996
0.040283203125
0.040283203125
0.038671874999999994
0.0362548828125
0.040283203125
0.041088867187499996
0.041088867187499996
0.0378662109375
0.04189453125
0.041088867187499996
1.980322265625
2.8319091796875
3.0446044921874997
3.04541015625
3.0486328124999997
3.04541015625
3.0462158203125
3.0470214843749996
3.04541015625
3.0462158203125
3.0470214843749996
3.043798828125
3.0405761718749997
3.0470214843749996
3.0462158203125
3.0446044921874997
3.0446044921874997
3.0470214843749996
3.0470214843749996
3.0470214843749996
1.023193359375
0.040283203125
0.038671874999999994
0.041088867187499996
0.040283203125
0.041088867187499996
0.041088867187499996
0.0443115234375
0.04189453125
0.0394775390625
0.040283203125
0.040283203125
0.040283203125
0.040283203125
0.040283203125
0.040283203125
0.040283203125
0.040283203125
0.041088867187499996
0.037060546874999996
0.0394775390625
0.0443115234375
1.6403320312499998
2.647412109375
3.04541015625
3.0470214843749996
3.043798828125
3.0470214843749996
3.0486328124999997
3.0462158203125
3.0470214843749996
3.0462158203125
3.0462158203125
3.0478271484375
3.029296875
3.0446044921874997
3.043798828125
3.0478271484375
3.0486328124999997
3.0470214843749996
3.0486328124999997
3.0462158203125
1.6959228515625
0.040283203125
0.0394775390625
0.038671874999999994
0.040283203125
0.041088867187499996
0.041088867187499996
0.040283203125
0.045117187499999996
0.038671874999999994
0.040283203125
0.040283203125
0.041088867187499996
0.0394775390625
0.041088867187499996
0.041088867187499996
0.0443115234375
0.040283203125
0.041088867187499996
0.0378662109375
0.04189453125
0.0378662109375
1.2141357421874999
2.212353515625
3.0470214843749996
3.0486328124999997
3.0486328124999997
3.04541015625
3.0470214843749996
3.0462158203125
3.0470214843749996
3.0486328124999997
3.0462158203125
3.0429931640624996
3.04541015625
2.9986816406249996
3.0470214843749996
3.0446044921874997
3.0494384765625
3.04541015625
3.0486328124999997
3.04541015625
3.0486328124999997
0.4358642578125
0.0394775390625
0.0362548828125
0.037060546874999996
0.041088867187499996
0.041088867187499996
0.042700195312499994
0.0394775390625
0.041088867187499996
0.040283203125
0.0443115234375
0.043505859375
0.041088867187499996
0.0394775390625
0.043505859375
0.041088867187499996
0.042700195312499994
0.0443115234375
0.043505859375
0.041088867187499996
0.04189453125
0.040283203125
1.545263671875
2.6256591796874997
3.0470214843749996
3.0462158203125
3.0470214843749996
3.04541015625
3.0510498046874996
3.0446044921874997
3.043798828125
3.0462158203125
3.0486328124999997
3.0470214843749996
2.9801513671874997
3.0486328124999997
3.0421875
3.04541015625
3.0446044921874997
3.0470214843749996
3.0462158203125
3.0494384765625
1.764404296875
0.041088867187499996
0.041088867187499996
0.0394775390625
0.040283203125
0.042700195312499994
0.043505859375
0.040283203125
0.040283203125
0.041088867187499996
0.037060546874999996
0.0394775390625
0.0394775390625
0.0394775390625
0.0394775390625
0.0378662109375
0.0394775390625
0.040283203125
0.0394775390625
0.040283203125
0.040283203125
0.041088867187499996
1.2834228515625
2.3759033203124997
3.050244140625
3.0462158203125
3.0470214843749996
3.0462158203125
3.0478271484375
3.0462158203125
3.0470214843749996
3.0478271484375
3.0470214843749996
3.0462158203125
3.0413818359375
3.0429931640624996
3.0470214843749996
3.04541015625
3.0462158203125
3.04541015625
3.043798828125
3.0462158203125
2.392822265625
0.0443115234375
0.0394775390625
0.040283203125
0.0378662109375
0.0378662109375
0.041088867187499996
0.040283203125
0.041088867187499996
0.042700195312499994
0.040283203125
0.040283203125
0.037060546874999996
0.037060546874999996
0.041088867187499996
0.042700195312499994
0.0378662109375
0.0394775390625
0.040283203125
0.041088867187499996
0.0378662109375
0.040283203125
0.040283203125
1.7249267578124998
2.737646484375
3.04541015625
3.0470214843749996
3.04541015625
3.0462158203125
3.0462158203125
3.043798828125
3.04541015625
3.043798828125
3.0494384765625
3.04541015625
3.0002929687499997
3.0486328124999997
3.043798828125
3.0510498046874996
3.04541015625
3.050244140625
3.0421875
3.0462158203125
0.9949951171875
0.040283203125
0.041088867187499996
0.038671874999999994
0.0362548828125
0.0378662109375
0.0443115234375
0.043505859375
0.04189453125
0.040283203125
0.042700195312499994
0.040283203125
0.041088867187499996
0.0394775390625
0.038671874999999994
0.0394775390625
0.0394775390625
0.040283203125
0.040283203125
0.0362548828125
0.041088867187499996
0.041088867187499996
1.609716796875
2.9825683593749996
3.04541015625
3.0486328124999997
3.0446044921874997
3.0478271484375
3.04541015625
3.0494384765625
3.0470214843749996
3.0478271484375
3.0446044921874997
3.0462158203125
2.9906249999999996
3.0510498046874996
3.0470214843749996
3.0462158203125
3.050244140625
3.0478271484375
3.0421875
3.0486328124999997
1.8369140625
0.0362548828125
0.040283203125
0.038671874999999994
0.040283203125
0.0394775390625
0.04189453125
0.043505859375
0.041088867187499996
0.041088867187499996
0.04189453125
0.03544921875
0.0394775390625
0.041088867187499996
0.040283203125
0.0394775390625
0.041088867187499996
0.0394775390625
0.037060546874999996
0.042700195312499994
0.0394775390625
0.040283203125
0.6840087890625
2.260693359375
2.9197265624999997
3.050244140625
3.0494384765625
3.0446044921874997
3.0462158203125
3.0494384765625
3.0462158203125
3.050244140625
3.043798828125
3.04541015625
3.0462158203125
3.0429931640624996
3.0478271484375
3.0462158203125
3.0446044921874997
3.0470214843749996
3.0478271484375
3.0470214843749996
3.0486328124999997
0.038671874999999994
0.037060546874999996
0.038671874999999994
0.037060546874999996
0.0394775390625
0.040283203125
0.042700195312499994
0.0394775390625
0.0443115234375
0.03544921875
0.041088867187499996
0.041088867187499996
0.038671874999999994
0.037060546874999996
0.038671874999999994
0.040283203125
0.0362548828125
0.03544921875
0.0394775390625
0.038671874999999994
0.038671874999999994
0.0394775390625
2.0302734375
2.7827636718749997
3.0478271484375
3.0470214843749996
3.0462158203125
3.0486328124999997
3.043798828125
3.0446044921874997
3.0470214843749996
3.04541015625
3.0446044921874997
3.0429931640624996
3.04541015625
3.0494384765625
3.04541015625
3.04541015625
3.04541015625
3.0405761718749997
3.0446044921874997
3.0446044921874997
1.6620849609375
0.040283203125
0.0362548828125
0.038671874999999994
0.041088867187499996
0.040283203125
0.040283203125
0.040283203125
0.040283203125
0.040283203125
0.040283203125
0.04189453125
0.0394775390625
0.040283203125
0.041088867187499996
0.041088867187499996
0.040283203125
0.0314208984375
0.0443115234375
0.037060546874999996
0.041088867187499996
0.0394775390625
1.348681640625
2.6296874999999997
3.04541015625
3.0470214843749996
3.04541015625
3.0470214843749996
3.0446044921874997
3.04541015625
3.0462158203125
3.0470214843749996
3.0446044921874997
3.0494384765625
3.0470214843749996
3.0478271484375
3.0462158203125
3.0470214843749996
3.0446044921874997
3.04541015625
3.050244140625
3.043798828125
3.01962890625
0.038671874999999994
0.0394775390625
0.038671874999999994
0.040283203125
0.04189453125
0.040283203125
0.040283203125
0.040283203125
0.043505859375
0.038671874999999994
0.0394775390625
0.040283203125
0.042700195312499994
0.038671874999999994
0.043505859375
0.0378662109375
0.0394775390625
0.03544921875
0.04189453125
0.03544921875
0.038671874999999994
0.040283203125
2.2083251953125
2.78759765625
3.043798828125
3.0494384765625
3.0494384765625
3.0486328124999997
3.0486328124999997
3.05185546875
3.0470214843749996
3.043798828125
3.04541015625
3.0446044921874997
3.0470214843749996
3.0494384765625
3.0470214843749996
3.0462158203125
3.0478271484375
3.0462158203125
3.0462158203125
3.0470214843749996
0.0708984375
0.041088867187499996
0.040283203125
0.041088867187499996
0.040283203125
0.041088867187499996
0.040283203125
0.043505859375
0.0394775390625
0.043505859375
0.0394775390625
0.0443115234375
0.041088867187499996
0.041088867187499996
0.041088867187499996
0.0394775390625
0.043505859375
0.03544921875
0.0362548828125
0.040283203125
0.041088867187499996
0.041088867187499996
2.0431640625
3.029296875
3.0510498046874996
3.0486328124999997
3.0405761718749997
3.0470214843749996
3.0470214843749996
3.0470214843749996
3.0470214843749996
3.0470214843749996
3.04541015625
3.0462158203125
3.0462158203125
3.0494384765625
3.0486328124999997
3.0486328124999997
3.0421875
3.0421875
3.0470214843749996
3.0462158203125
1.4284423828125
0.037060546874999996
0.0394775390625
0.0394775390625
0.040283203125
0.042700195312499994
0.041088867187499996
0.040283203125
0.0394775390625
0.040283203125
0.040283203125
0.040283203125
0.040283203125
0.043505859375
0.0394775390625
0.0394775390625
0.0394775390625
0.0362548828125
0.041088867187499996
0.040283203125
0.041088867187499996
0.041088867187499996
1.7410400390624998
2.7223388671874997
3.04541015625
3.04541015625
3.0470214843749996
3.0462158203125
3.0470214843749996
3.0470214843749996
3.0429931640624996
3.0462158203125
3.0486328124999997
3.05185546875
3.043798828125
3.04541015625
3.0470214843749996
3.0405761718749997
3.0429931640624996
3.04541015625
3.0446044921874997
3.0462158203125
3.04541015625
0.407666015625
0.0394775390625
0.042700195312499994
0.0394775390625
0.0394775390625
0.042700195312499994
0.0443115234375
0.3673828125
0.1490478515625
0.18449707031249998
0.28842773437499997
0.5776611328125
0.6832031249999999
0.1740234375
0.0362548828125
0.043505859375
0.037060546874999996
0.046728515624999994
0.041088867187499996
0.040283203125
0.041088867187499996
3.0429931640624996
3.0470214843749996
3.0446044921874997
3.0486328124999997
3.0470214843749996
3.0462158203125
3.0470214843749996
3.04541015625
3.050244140625
3.0462158203125
3.043798828125
3.0470214843749996
3.0470214843749996
3.043798828125
3.0470214843749996
3.04541015625
3.0470214843749996
3.04541015625
3.0478271484375
3.0429931640624996
3.04541015625
3.04541015625
3.0413818359375
2.9269775390625
2.657080078125
2.8979736328124996
2.578125
3.0494384765625
3.0462158203125
3.04541015625
3.04541015625
3.043798828125
3.0446044921874997
3.0462158203125
3.0486328124999997
0.0394775390625
0.040283203125
0.0394775390625
0.040283203125
0.5728271484374999
0.9676025390624999
3.0470214843749996
3.0470214843749996
3.0462158203125
3.0470214843749996
3.0462158203125
3.0470214843749996
3.0494384765625
3.0486328124999997
3.0494384765625
3.0462158203125
3.0462158203125
3.0429931640624996
3.0494384765625
3.0470214843749996
3.0470214843749996
3.0462158203125
3.04541015625
3.0478271484375
3.0470214843749996
3.0462158203125
3.04541015625
2.827880859375
0.21672363281249998
0.0394775390625
0.041088867187499996
0.040283203125
0.04189453125
0.0394775390625
0.041088867187499996
0.042700195312499994
0.040283203125
0.2280029296875
0.249755859375
0.298095703125
0.46164550781249997
0.61552734375
0.041088867187499996
0.038671874999999994
0.0394775390625
0.040283203125
0.040283203125
0.04189453125
1.2173583984375
3.0421875
3.04541015625
3.0494384765625
3.043798828125
3.0462158203125
3.0494384765625
3.0462158203125
3.04541015625
3.0462158203125
3.0470214843749996
3.0470214843749996
3.0043212890624997
2.9261718749999996
2.73603515625
2.4935302734375
3.0462158203125
3.0470214843749996
3.0478271484375
3.04541015625
2.7102539062499997
1.6532226562499999
0.038671874999999994
0.041088867187499996
0.041088867187499996
0.0394775390625
0.041088867187499996
0.038671874999999994
0.04189453125
0.0394775390625
0.0362548828125
0.1200439453125
0.23122558593749998
0.37060546875
0.4568115234375
0.6002197265625
0.5019287109375
0.0394775390625
0.0362548828125
0.041088867187499996
0.040283203125
0.49870605468749996
1.216552734375
3.0462158203125
3.0462158203125
3.04541015625
3.04541015625
3.0470214843749996
2.9769287109375
3.0083496093749997
2.81982421875
2.6079345703124996
2.5652343749999997
1.896533203125
1.6717529296875
1.4598632812499999
1.22783203125
1.05380859375
3.0421875
3.0478271484375
3.0486328124999997
3.0462158203125
2.4548583984375
1.7853515624999998
0.041088867187499996
0.043505859375
0.040283203125
0.0394775390625
0.040283203125
0.042700195312499994
0.040283203125
0.2376708984375
0.12890625
0.15629882812499998
0.652587890625
0.6654785156249999
0.7307373046875
0.8507812499999999
0.82177734375
0.038671874999999994
0.040283203125
0.03544921875
0.0394775390625
0.3440185546875
1.1222900390625
2.4468017578125
3.04541015625
3.0470214843749996
3.04541015625
2.9600097656249997
2.75537109375
2.6103515625
2.257470703125
2.3162841796875
1.625830078125
1.8441650390625
1.6894775390624999
1.5428466796875
1.327734375
1.2052734375
1.8014648437499998
3.0478271484375
3.0429931640624996
3.0446044921874997
2.5418701171875
1.909423828125
0.7379882812499999
0.040283203125
0.041088867187499996
0.03544921875
0.0394775390625
0.040283203125
0.0394775390625
0.043505859375
0.3520751953125
0.5744384765625
0.7541015624999999
0.9788818359375
1.10859375
1.281005859375
1.3502929687499998
0.7621582031249999
0.037060546874999996
0.0378662109375
0.040283203125
0.2779541015625
1.1351806640625
2.0012695312499997
3.04541015625
3.0478271484375
3.0470214843749996
3.0429931640624996
2.8415771484374996
2.5877929687499996
2.534619140625
2.3952392578125
1.9658203125
1.7934082031249998
1.8393310546875
1.6991455078125
1.554931640625
1.4316650390624999
1.3478759765625
3.0462158203125
3.0494384765625
3.0470214843749996
2.9479248046874997
2.1696533203125
1.4896728515625
0.037060546874999996
0.042700195312499994
0.040283203125
0.0362548828125
0.0362548828125
0.04189453125
0.040283203125
0.346435546875
0.91201171875
0.8282226562499999
1.0731445312499999
1.284228515625
1.4542236328125
1.593603515625
1.5678222656249998
0.040283203125
0.0362548828125
0.046728515624999994
0.32065429687499997
0.7959960937499999
1.2455566406249998
3.0446044921874997
3.0462158203125
3.0470214843749996
3.0470214843749996
2.8536621093749996
2.6603027343749996
2.7247558593749996
2.592626953125
2.31708984375
2.00771484375
1.9182861328124998
1.82080078125
1.67900390625
1.6024658203125
1.4848388671875
3.04541015625
3.04541015625
3.0470214843749996
3.0067382812499996
2.512060546875
1.770849609375
0.040283203125
0.040283203125
0.041088867187499996
0.041088867187499996
0.040283203125
0.0378662109375
0.038671874999999994
0.43747558593749997
0.64775390625
1.26328125
1.1617675781249999
1.3873535156249999
1.5654052734375
1.803076171875
1.625830078125
0.041088867187499996
0.040283203125
0.04189453125
0.18852539062499998
0.8677001953125
1.5766845703124999
2.6901123046874997
3.0478271484375
3.0486328124999997
3.0478271484375
3.0486328124999997
2.953564453125
2.9140869140624996
2.7513427734375
2.698974609375
2.9608154296875
2.2373291015625
2.002880859375
1.848193359375
1.67900390625
1.4332763671875
3.0470214843749996
3.0462158203125
3.0470214843749996
3.0470214843749996
3.0139892578125
2.2760009765625
0.9821044921875
0.040283203125
0.042700195312499994
0.040283203125
0.0378662109375
0.0394775390625
0.0362548828125
0.0394775390625
0.31259765624999997
0.1426025390625
0.920068359375
1.0948974609375
1.2979248046874998
1.4590576171874998
1.6185791015625
0.040283203125
0.040283203125
0.037060546874999996
0.04189453125
0.11843261718749999
0.8805908203124999
1.5122314453124999
3.04541015625
3.0462158203125
3.04541015625
3.0462158203125
3.0478271484375
3.04541015625
3.0494384765625
3.0397705078125
2.9261718749999996
3.021240234375
2.5080322265625
2.399267578125
2.276806640625
2.1116455078125
1.998046875
3.0470214843749996
3.04541015625
3.0494384765625
3.0462158203125
2.995458984375
1.8264404296874999
0.042700195312499994
0.041088867187499996
0.0394775390625
0.0443115234375
0.040283203125
0.0394775390625
0.041088867187499996
0.041088867187499996
0.042700195312499994
0.0394775390625
0.38671875
0.4447265625
0.6163330078125
0.7565185546875
0.7959960937499999
0.04189453125
0.041088867187499996
0.041088867187499996
0.040283203125
0.040283203125
0.42136230468749997
3.04541015625
3.0478271484375
3.0486328124999997
3.0470214843749996
3.0462158203125
3.050244140625
3.0478271484375
3.04541015625
3.0486328124999997
3.04541015625
3.034130859375
3.0429931640624996
2.9438964843749997
2.7416748046875
2.5998779296874996
3.04541015625
3.050244140625
3.0446044921874997
3.0494384765625
3.0478271484375
3.0470214843749996
2.051220703125
0.0362548828125
0.040283203125
0.038671874999999994
0.040283203125
0.040283203125
0.0362548828125
0.0394775390625
0.038671874999999994
0.041088867187499996
0.0394775390625
0.037060546874999996
0.041088867187499996
0.038671874999999994
0.0394775390625
0.037060546874999996
0.0378662109375
0.04189453125
0.040283203125
0.040283203125
0.038671874999999994
0.040283203125
0.040283203125
1.4332763671875
2.54267578125
2.9447021484375
3.0470214843749996
3.043798828125
3.0462158203125
3.0462158203125
3.0470214843749996
3.0462158203125
3.0478271484375
3.0494384765625
3.0462158203125
3.0164062499999997
3.050244140625
3.0478271484375
3.0486328124999997
3.0413818359375
3.0462158203125
3.0478271484375
3.0446044921874997
0.994189453125
0.037060546874999996
0.040283203125
0.0394775390625
0.040283203125
0.040283203125
0.0394775390625
0.037060546874999996
0.041088867187499996
0.033837890625
0.037060546874999996
0.040283203125
0.040283203125
0.037060546874999996
0.038671874999999994
0.040283203125
0.041088867187499996
0.042700195312499994
0.040283203125
0.040283203125
0.03544921875
0.040283203125
0.041088867187499996
2.060888671875
2.70703125
3.0470214843749996
3.0462158203125
3.0486328124999997
3.0462158203125
3.050244140625
3.0446044921874997
3.0462158203125
3.0478271484375
3.0470214843749996
3.0486328124999997
3.0446044921874997
3.0470214843749996
3.0446044921874997
3.0405761718749997
3.0510498046874996
3.050244140625
3.043798828125
0.514013671875
0.038671874999999994
0.040283203125
0.0378662109375
0.040283203125
0.04189453125
0.040283203125
0.040283203125
0.04189453125
0.0394775390625
0.041088867187499996
0.0394775390625
0.043505859375
0.040283203125
0.040283203125
0.037060546874999996
0.03544921875
0.040283203125
0.040283203125
0.033837890625
0.043505859375
0.042700195312499994
0.040283203125
1.2987304687499999
2.5233398437499996
3.0349365234374996
3.0446044921874997
3.0470214843749996
3.0462158203125
3.0470214843749996
3.0478271484375
3.0462158203125
3.0478271484375
3.0462158203125
3.0470214843749996
3.04541015625
3.0462158203125
3.0462158203125
3.0486328124999997
3.0462158203125
3.0478271484375
3.04541015625
3.0462158203125
0.6195556640625
0.0362548828125
0.0362548828125
0.040283203125
0.040283203125
0.0394775390625
0.038671874999999994
0.040283203125
0.040283203125
0.040283203125
0.0394775390625
0.0443115234375
0.042700195312499994
0.040283203125
0.04189453125
0.04189453125
0.041088867187499996
0.041088867187499996
0.041088867187499996
0.0362548828125
0.040283203125
0.0443115234375
0.7049560546875
2.29453125
2.9197265624999997
3.0478271484375
3.0462158203125
3.0574951171875
3.0446044921874997
3.0470214843749996
3.0462158203125
3.0470214843749996
3.0510498046874996
3.0470214843749996
3.0462158203125
3.04541015625
3.05185546875
3.0470214843749996
3.0462158203125
3.0478271484375
3.0462158203125
3.0462158203125
0.6002197265625
0.0394775390625
0.040283203125
0.0362548828125
0.037060546874999996
0.040283203125
0.041088867187499996
0.04189453125
0.0378662109375
0.0378662109375
0.0394775390625
0.043505859375
0.04189453125
0.0362548828125
0.0362548828125
0.0394775390625
0.03544921875
0.0394775390625
0.037060546874999996
0.038671874999999994
0.040283203125
0.041088867187499996
0.037060546874999996
1.96904296875
2.747314453125
3.0486328124999997
3.0486328124999997
3.04541015625
3.0462158203125
3.050244140625
3.04541015625
3.043798828125
3.050244140625
3.04541015625
3.0510498046874996
3.0462158203125
3.050244140625
3.0421875
3.0462158203125
3.043798828125
3.0462158203125
3.0470214843749996
2.3356201171874997
0.0394775390625
0.038671874999999994
0.040283203125
0.04189453125
0.0394775390625
0.040283203125
0.0394775390625
0.042700195312499994
0.040283203125
0.041088867187499996
0.0394775390625
0.042700195312499994
0.040283203125
0.043505859375
0.041088867187499996
0.041088867187499996
0.042700195312499994
0.04189453125
0.0362548828125
0.0443115234375
0.0394775390625
0.0394775390625
1.8884765625
2.6764160156249996
3.0486328124999997
3.0429931640624996
3.0486328124999997
3.04541015625
3.04541015625
3.0429931640624996
3.0510498046874996
3.0462158203125
3.043798828125
3.0462158203125
3.0470214843749996
3.0446044921874997
3.0470214843749996
3.04541015625
3.0462158203125
3.0446044921874997
3.043798828125
3.04541015625
0.1732177734375
0.040283203125
0.040283203125
0.0362548828125
0.0443115234375
0.038671874999999994
0.040283203125
0.041088867187499996
0.043505859375
0.040283203125
0.0394775390625
0.037060546874999996
0.043505859375
0.040283203125
0.0394775390625
0.042700195312499994
0.0394775390625
0.037060546874999996
0.0362548828125
0.040283203125
0.040283203125
0.0394775390625
1.3414306640625
2.302587890625
3.0147949218749996
3.04541015625
3.0462158203125
3.04541015625
3.0494384765625
3.04541015625
3.04541015625
3.0486328124999997
3.0446044921874997
3.04541015625
3.0470214843749996
3.0325195312499997
3.0462158203125
3.043798828125
3.0446044921874997
3.043798828125
3.0421875
3.04541015625
1.0352783203125
0.0394775390625
0.041088867187499996
0.0394775390625
0.0378662109375
0.0346435546875
0.0394775390625
0.041088867187499996
0.0378662109375
0.040283203125
0.042700195312499994
0.041088867187499996
0.0443115234375
0.07412109374999999
0.0515625
0.0362548828125
0.042700195312499994
0.041088867187499996
0.0362548828125
0.0443115234375
0.0394775390625
0.0394775390625
0.0362548828125
1.948095703125
2.6433837890625
3.0486328124999997
3.0470214843749996
3.05185546875
3.0446044921874997
3.0429931640624996
3.0486328124999997
3.04541015625
3.04541015625
3.0429931640624996
3.0462158203125
3.0156005859375
3.0478271484375
3.0446044921874997
3.0478271484375
3.0478271484375
3.0470214843749996
3.0462158203125
3.043798828125
0.0394775390625
0.033032226562499996
0.041088867187499996
0.040283203125
0.0394775390625
0.040283203125
0.0362548828125
0.0394775390625
0.040283203125
0.03544921875
0.0394775390625
0.0394775390625
0.0394775390625
0.0515625
0.038671874999999994
0.0394775390625
0.040283203125
0.04189453125
0.038671874999999994
0.03544921875
0.0394775390625
0.040283203125
2.18818359375
2.792431640625
3.0470214843749996
3.04541015625
3.0470214843749996
3.0429931640624996
3.0421875
3.0429931640624996
3.043798828125
3.04541015625
3.043798828125
3.04541015625
3.043798828125
3.0462158203125
3.0462158203125
3.0462158203125
3.0478271484375
3.04541015625
3.0446044921874997
3.0421875
1.116650390625
0.043505859375
0.040283203125
0.04189453125
0.041088867187499996
0.0378662109375
0.040283203125
0.040283203125
0.0394775390625
0.0394775390625
0.0378662109375
0.0394775390625
0.040283203125
0.0378662109375
0.038671874999999994
0.0394775390625
0.045117187499999996
0.038671874999999994
0.040283203125
0.04189453125
0.040283203125
0.0378662109375
1.3599609375
2.6449951171875
3.0470214843749996
3.0462158203125
3.0462158203125
3.0486328124999997
3.0470214843749996
3.0470214843749996
3.0429931640624996
3.04541015625
3.0462158203125
3.0156005859375
3.043798828125
2.9575927734375
3.0470214843749996
3.0494384765625
3.0486328124999997
3.0494384765625
3.0462158203125
3.0462158203125
1.0094970703125
0.040283203125
0.041088867187499996
0.040283203125
0.0362548828125
0.038671874999999994
0.040283203125
0.038671874999999994
0.040283203125
0.040283203125
0.040283203125
0.040283203125
0.037060546874999996
0.04189453125
0.040283203125
0.040283203125
0.040283203125
0.038671874999999994
0.0394775390625
0.0394775390625
0.043505859375
0.0443115234375
1.8095214843749998
2.5209228515624997
3.04541015625
3.0470214843749996
3.04541015625
3.04541015625
3.0470214843749996
3.043798828125
3.0421875
3.043798828125
3.0462158203125
3.0429931640624996
2.9285888671875
2.82626953125
3.0462158203125
3.0446044921874997
3.04541015625
3.04541015625
3.04541015625
3.0462158203125
2.5579833984375
0.2425048828125
0.038671874999999994
0.040283203125
0.0394775390625
0.040283203125
0.0394775390625
0.041088867187499996
0.041088867187499996
0.0378662109375
0.038671874999999994
0.041088867187499996
0.18288574218749998
0.143408203125
0.09345703124999999
0.042700195312499994
0.037060546874999996
0.040283203125
0.040283203125
0.0362548828125
0.0378662109375
0.037060546874999996
0.040283203125
2.6748046875
3.0470214843749996
3.0462158203125
3.04541015625
3.04541015625
3.0421875
3.043798828125
2.8617187499999996
3.0389648437499996
3.003515625
2.9600097656249997
2.8995849609374997
2.827880859375
3.011572265625
3.0478271484375
3.0470214843749996
3.043798828125
3.0470214843749996
3.0446044921874997
3.0470214843749996
0.8902587890625
0.0394775390625
0.040283203125
0.037060546874999996
0.040283203125
0.041088867187499996
0.0394775390625
0.0394775390625
0.064453125
0.0394775390625
0.0378662109375
0.04189453125
0.1071533203125
0.12890625
0.041088867187499996
0.042700195312499994
0.0394775390625
0.0378662109375
0.038671874999999994
0.041088867187499996
0.0394775390625
0.043505859375
2.3195068359374997
3.0462158203125
3.0462158203125
3.0462158203125
3.043798828125
3.043798828125
3.04541015625
3.043798828125
3.0462158203125
3.043798828125
3.0220458984375
2.9527587890625
2.9318115234374997
2.8536621093749996
3.0429931640624996
3.0446044921874997
3.0446044921874997
3.0462158203125
3.0429931640624996
3.04541015625
0.7516845703124999
0.040283203125
0.0394775390625
0.04189453125
0.042700195312499994
0.040283203125
0.040283203125
0.043505859375
0.041088867187499996
0.0394775390625
0.037060546874999996
0.061230468749999996
0.06606445312499999
0.23122558593749998
0.041088867187499996
0.0394775390625
0.037060546874999996
0.0362548828125
0.041088867187499996
0.038671874999999994
0.041088867187499996
0.0394775390625
2.7827636718749997
3.0478271484375
3.0470214843749996
3.0478271484375
3.0405761718749997
3.0462158203125
3.0446044921874997
3.0486328124999997
2.8738037109374996
2.9608154296875
2.9825683593749996
2.9334228515625
2.824658203125
2.7747070312499997
3.0470214843749996
3.0486328124999997
3.0494384765625
3.043798828125
3.0446044921874997
3.0470214843749996
2.6780273437499997
0.040283203125
0.043505859375
0.0394775390625
0.043505859375
0.043505859375
0.040283203125
0.0378662109375
0.0362548828125
0.0394775390625
0.041088867187499996
0.0394775390625
0.04189453125
0.1393798828125
0.149853515625
0.0362548828125
0.043505859375
0.037060546874999996
0.038671874999999994
0.040283203125
0.040283203125
0.0394775390625
2.2034912109375
2.99384765625
3.0462158203125
3.0526611328124997
3.0470214843749996
3.043798828125
3.0470214843749996
3.0462158203125
3.04541015625
2.9737060546875
2.92294921875
2.931005859375
2.8536621093749996
2.7030029296875
3.0470214843749996
3.04541015625
3.0470214843749996
3.04541015625
3.04541015625
3.0462158203125
2.75537109375
0.38994140624999996
0.040283203125
0.0394775390625
0.0362548828125
0.04189453125
0.038671874999999994
0.041088867187499996
0.026586914062499998
0.038671874999999994
0.0394775390625
0.037060546874999996
0.050756835937499994
0.072509765625
0.091845703125
0.037060546874999996
0.042700195312499994
0.0394775390625
0.0394775390625
0.038671874999999994
0.040283203125
0.04189453125
0.041088867187499996
2.7384521484374997
3.0462158203125
3.04541015625
3.0478271484375
3.0478271484375
3.0462158203125
3.04541015625
3.0470214843749996
2.8576904296874996
2.9060302734374996
2.8657470703124996
2.8093505859374996
2.6240478515624996
2.489501953125
3.0494384765625
3.0429931640624996
3.0421875
3.0462158203125
3.04541015625
3.0470214843749996
0.8282226562499999
0.040283203125
0.038671874999999994
0.041088867187499996
0.042700195312499994
0.040283203125
0.040283203125
0.0378662109375
0.12810058593749998
0.043505859375
0.037060546874999996
0.038671874999999994
0.0990966796875
0.0910400390625
0.13615722656249998
0.042700195312499994
0.040283203125
0.0362548828125
0.0394775390625
0.038671874999999994
0.037060546874999996
0.040283203125
2.1712646484375
3.04541015625
3.0470214843749996
3.0462158203125
3.0429931640624996
3.04541015625
3.0462158203125
3.0421875
3.0478271484375
2.905224609375
2.860107421875
2.7585937499999997
2.6917236328125
2.5724853515625
3.04541015625
3.0429931640624996
3.0462158203125
3.0421875
3.0462158203125
3.0421875
2.1970458984375
0.040283203125
0.041088867187499996
0.0394775390625
0.0394775390625
0.037060546874999996
0.038671874999999994
0.040283203125
0.041088867187499996
0.0378662109375
0.040283203125
0.0394775390625
0.07412109374999999
0.13212890624999998
0.169189453125
0.0394775390625
0.041088867187499996
0.040283203125
0.040283203125
0.040283203125
0.0394775390625
0.043505859375
2.23974609375
3.0462158203125
3.04541015625
3.0470214843749996
3.0446044921874997
3.0462158203125
3.0470214843749996
3.0462158203125
3.04541015625
3.0333251953125
2.972900390625
2.892333984375
2.7416748046875
2.5732910156249997
3.0462158203125
3.0470214843749996
3.0486328124999997
3.0462158203125
3.04541015625
3.04541015625
2.328369140625
0.0958740234375
0.038671874999999994
0.040283203125
0.037060546874999996
0.040283203125
0.040283203125
0.040283203125
0.037060546874999996
0.040283203125
0.043505859375
0.0394775390625
0.041088867187499996
0.08701171875
0.104736328125
0.038671874999999994
0.04189453125
0.0394775390625
0.038671874999999994
0.0394775390625
0.040283203125
0.04189453125
0.0378662109375
2.8899169921874996
3.050244140625
3.04541015625
3.0470214843749996
3.0494384765625
3.0470214843749996
3.0462158203125
2.7610107421874996
2.98095703125
2.898779296875
2.8206298828125
2.6852783203125
2.5918212890624996
2.4830566406249996
3.0421875
3.050244140625
3.04541015625
3.0429931640624996
3.0462158203125
3.0462158203125
0.8024414062499999
0.041088867187499996
0.037060546874999996
0.0394775390625
0.040283203125
0.042700195312499994
0.038671874999999994
0.04189453125
0.0394775390625
0.040283203125
0.0394775390625
0.042700195312499994
0.107958984375
0.054785156249999994
0.127294921875
0.037060546874999996
0.0362548828125
0.0394775390625
0.042700195312499994
0.04189453125
0.0394775390625
0.040283203125
2.6764160156249996
3.0462158203125
3.04541015625
3.0470214843749996
3.0486328124999997
3.04541015625
3.0462158203125
3.0446044921874997
3.050244140625
2.9841796874999997
2.914892578125
2.763427734375
2.6723876953124996
2.5547607421875
3.0446044921874997
3.0470214843749996
3.0470214843749996
3.04541015625
3.0470214843749996
3.0478271484375
0.554296875
0.037060546874999996
0.043505859375
0.04189453125
0.041088867187499996
0.0394775390625
0.0378662109375
0.037060546874999996
0.041088867187499996
0.040283203125
0.0394775390625
0.040283203125
0.0443115234375
0.0829833984375
0.1232666015625
0.04189453125
0.040283203125
0.040283203125
0.040283203125
0.041088867187499996
0.042700195312499994
0.037060546874999996
1.7507080078125
2.834326171875
3.0470214843749996
3.0470214843749996
3.0470214843749996
3.0421875
3.0486328124999997
3.0462158203125
2.921337890625
2.9205322265625
2.91328125
2.8359375
2.7175048828125
2.53623046875
3.0421875
3.04541015625
3.0446044921874997
3.0478271484375
3.043798828125
3.04541015625
1.5758789062499998
0.041088867187499996
0.040283203125
0.042700195312499994
0.040283203125
0.0394775390625
0.040283203125
0.0362548828125
0.041088867187499996
0.038671874999999994
0.042700195312499994
0.0394775390625
0.041088867187499996
0.1232666015625
0.17241210937499998
0.03544921875
0.0394775390625
0.0394775390625
0.0394775390625
0.040283203125
0.040283203125
0.043505859375
1.2350830078125
2.92939453125
3.0429931640624996
3.0462158203125
3.04541015625
3.04541015625
3.04541015625
3.0486328124999997
3.0486328124999997
3.0284912109374997
2.8713867187499997
2.7827636718749997
2.63935546875
2.5491210937499997
3.043798828125
3.0470214843749996
3.04541015625
3.04541015625
3.043798828125
3.0462158203125
2.642578125
0.3826904296875
0.040283203125
0.037060546874999996
0.038671874999999994
0.0394775390625
0.040283203125
0.040283203125
0.04189453125
0.040283203125
0.042700195312499994
0.038671874999999994
0.0515625
0.1232666015625
0.149853515625
0.037060546874999996
0.0394775390625
0.037060546874999996
0.0394775390625
0.038671874999999994
0.04189453125
0.0394775390625
0.0394775390625
3.0462158203125
3.0486328124999997
3.0470214843749996
3.0446044921874997
3.04541015625
3.0462158203125
3.0462158203125
2.570068359375
2.8037109375
2.8496337890624996
2.7892089843749996
2.63935546875
2.53623046875
2.5789306640625
3.0446044921874997
3.043798828125
3.0462158203125
3.0421875
3.0462158203125
3.0462158203125
0.546240234375
0.040283203125
0.040283203125
0.040283203125
0.04189453125
0.040283203125
0.038671874999999994
0.0394775390625
0.041088867187499996
0.043505859375
0.0394775390625
0.0394775390625
0.07412109374999999
0.11359863281249999
0.0394775390625
0.0394775390625
0.0378662109375
0.0394775390625
0.040283203125
0.040283203125
0.042700195312499994
0.0378662109375
3.04541015625
3.0429931640624996
3.04541015625
3.0446044921874997
3.04541015625
3.04541015625
3.0470214843749996
3.0462158203125
2.91328125
2.8794433593749997
2.8174072265624996
2.7497314453125
2.6063232421875
2.47822265625
3.0486328124999997
3.0486328124999997
3.0470214843749996
3.0446044921874997
3.043798828125
3.0478271484375
0.57041015625
0.04189453125
0.0378662109375
0.0394775390625
0.040283203125
0.041088867187499996
0.0394775390625
0.04189453125
0.0394775390625
0.0394775390625
0.03544921875
0.03544921875
0.043505859375
0.1071533203125
0.04833984375
0.040283203125
0.0394775390625
0.040283203125
0.041088867187499996
0.040283203125
0.0394775390625
0.038671874999999994
3.0462158203125
3.043798828125
3.0462158203125
3.0429931640624996
3.0429931640624996
3.0462158203125
3.0470214843749996
3.04541015625
2.7094482421875
2.7948486328124997
2.7626220703124997
2.657080078125
2.5330078124999997
2.386376953125
3.043798828125
3.0462158203125
3.0462158203125
3.0486328124999997
3.0478271484375
3.04541015625
2.502392578125
0.22316894531249998
0.040283203125
0.0362548828125
0.04189453125
0.0394775390625
0.040283203125
0.040283203125
0.041088867187499996
0.0394775390625
0.04189453125
0.03544921875
0.0362548828125
0.08540039062499999
0.038671874999999994
0.040283203125
0.043505859375
0.0523681640625
0.040283203125
0.0394775390625
0.043505859375
0.041088867187499996
2.763427734375
3.043798828125
3.043798828125
3.0486328124999997
3.0462158203125
3.04541015625
3.04541015625
3.050244140625
3.0470214843749996
2.779541015625
2.7779296875
2.6619140624999997
2.616796875
2.4121582031249997
3.04541015625
3.0413818359375
3.043798828125
3.0446044921874997
3.04541015625
3.043798828125
3.04541015625
0.31340332031249996
0.04189453125
0.040283203125
0.040283203125
0.040283203125
0.04189453125
0.040283203125
0.040283203125
0.0394775390625
0.040283203125
0.041088867187499996
0.0394775390625
0.04189453125
0.075732421875
0.042700195312499994
0.037060546874999996
0.0362548828125
0.038671874999999994
0.0394775390625
0.04189453125
0.037060546874999996
1.5396240234374998
3.04541015625
3.0462158203125
3.0462158203125
3.04541015625
3.0478271484375
3.04541015625
3.0446044921874997
3.0421875
3.04541015625
2.7747070312499997
2.7303955078124997
2.5692626953124997
2.418603515625
2.2623046875
3.0470214843749996
3.043798828125
3.043798828125
3.0486328124999997
3.0429931640624996
3.0429931640624996
0.6582275390625
0.041088867187499996
0.040283203125
0.041088867187499996
0.037060546874999996
0.040283203125
0.04189453125
0.03544921875
0.03544921875
0.03544921875
0.037060546874999996
0.0394775390625
0.0362548828125
0.040283203125
0.038671874999999994
0.038671874999999994
0.0394775390625
0.040283203125
0.0394775390625
0.04189453125
0.0394775390625
0.0378662109375
3.0462158203125
3.04541015625
3.0494384765625
3.0421875
3.0470214843749996
3.04541015625
3.04541015625
3.0478271484375
3.0470214843749996
2.8141845703125
2.711865234375
2.553955078125
2.4758056640625
2.3211181640625
3.0462158203125
3.04541015625
3.0429931640624996
3.0446044921874997
3.0470214843749996
3.043798828125
2.0415527343749997
0.038671874999999994
0.0394775390625
0.0394775390625
0.0394775390625
0.0362548828125
0.037060546874999996
0.043505859375
0.040283203125
0.040283203125
0.0394775390625
0.037060546874999996
0.0394775390625
0.04833984375
0.041088867187499996
0.040283203125
0.03544921875
0.043505859375
0.0394775390625
0.040283203125
0.045117187499999996
0.04189453125
3.0446044921874997
3.0494384765625
3.0446044921874997
3.0405761718749997
3.0446044921874997
3.0446044921874997
3.0470214843749996
3.0421875
3.0446044921874997
2.9390625
2.8174072265624996
2.650634765625
2.5450927734374997
2.4419677734375
3.0470214843749996
3.0478271484375
3.0478271484375
3.043798828125
3.0462158203125
3.0470214843749996
2.7432861328125
0.091845703125
0.040283203125
0.040283203125
0.043505859375
0.0394775390625
0.0394775390625
0.043505859375
0.0378662109375
0.038671874999999994
0.0394775390625
0.0394775390625
0.042700195312499994
0.053173828124999996
0.043505859375
0.038671874999999994
0.040283203125
0.0394775390625
0.0394775390625
0.038671874999999994
0.040283203125
0.0394775390625
3.0470214843749996
3.043798828125
3.0478271484375
3.0446044921874997
3.0470214843749996
3.0470214843749996
3.0486328124999997
3.04541015625
2.5974609374999997
2.92939453125
2.792431640625
2.70380859375
2.5265625
2.402490234375
2.263916015625
3.04541015625
3.0446044921874997
3.0429931640624996
3.043798828125
3.0462158203125
2.848828125
0.507568359375
0.040283203125
0.0394775390625
0.04189453125
0.0394775390625
0.038671874999999994
0.037060546874999996
0.0394775390625
0.042700195312499994
0.0394775390625
0.040283203125
0.041088867187499996
0.038671874999999994
0.041088867187499996
0.040283203125
0.038671874999999994
0.038671874999999994
0.0394775390625
0.0346435546875
0.040283203125
0.0378662109375
0.041088867187499996
3.0478271484375
3.0446044921874997
3.0446044921874997
3.043798828125
3.0478271484375
3.0446044921874997
3.04541015625
3.0462158203125
3.003515625
2.8093505859374996
2.731201171875
2.5716796874999996
2.50400390625
2.3646240234375
3.0446044921874997
3.04541015625
3.0462158203125
3.043798828125
3.0429931640624996
3.0446044921874997
1.0755615234375
0.041088867187499996
0.038671874999999994
0.037060546874999996
0.041088867187499996
0.0394775390625
0.0394775390625
0.041088867187499996
0.041088867187499996
0.037060546874999996
0.0394775390625
0.038671874999999994
0.040283203125
0.0749267578125
0.0636474609375
0.038671874999999994
0.0378662109375
0.040283203125
0.0394775390625
0.0378662109375
0.04189453125
0.0394775390625
3.0429931640624996
3.043798828125
3.0470214843749996
3.0446044921874997
3.0470214843749996
3.0486328124999997
3.0462158203125
3.0204345703124997
2.6941406249999997
2.824658203125
2.727978515625
2.6498291015624997
2.5007812499999997
2.3855712890625
3.0446044921874997
3.04541015625
3.0478271484375
3.043798828125
3.04541015625
3.0446044921874997
1.1045654296875
0.040283203125
0.042700195312499994
0.0378662109375
0.0394775390625
0.0394775390625
0.0394775390625
0.037060546874999996
0.0362548828125
0.0378662109375
0.037060546874999996
0.0362548828125
0.038671874999999994
0.041088867187499996
0.04189453125
0.037060546874999996
0.0394775390625
0.0394775390625
0.0394775390625
0.040283203125
0.0378662109375
0.042700195312499994
3.0470214843749996
3.0462158203125
3.04541015625
3.0446044921874997
3.04541015625
3.0470214843749996
3.037353515625
3.04541015625
3.0470214843749996
2.843994140625
2.7513427734375
2.6611083984375
2.5652343749999997
2.33642578125
3.04541015625
3.0446044921874997
3.04541015625
3.0421875
3.0421875
3.0494384765625
2.5209228515624997
0.30454101562499997
0.038671874999999994
0.0394775390625
0.040283203125
0.041088867187499996
0.040283203125
0.040283203125
0.0394775390625
0.1264892578125
0.0394775390625
0.038671874999999994
0.040283203125
0.0459228515625
0.040283203125
0.0362548828125
0.040283203125
0.0394775390625
0.038671874999999994
0.040283203125
0.041088867187499996
0.0394775390625
0.6380859375
3.04541015625
3.0446044921874997
3.0462158203125
3.0413818359375
3.0462158203125
3.0470214843749996
3.0470214843749996
2.7988769531249997
2.7328124999999996
2.78759765625
2.7263671874999997
2.5974609374999997
2.473388671875
2.3243408203125
3.0470214843749996
3.04541015625
3.0429931640624996
3.04541015625
3.0470214843749996
3.0470214843749996
0.4842041015625
0.04189453125
0.041088867187499996
0.040283203125
0.0394775390625
0.04189453125
0.040283203125
0.0394775390625
0.11279296875
0.040283203125
0.0394775390625
0.038671874999999994
0.0394775390625
0.046728515624999994
0.0394775390625
0.0394775390625
0.038671874999999994
0.037060546874999996
0.038671874999999994
0.040283203125
0.0378662109375
0.042700195312499994
3.043798828125
3.0446044921874997
3.0486328124999997
3.0413818359375
3.04541015625
3.043798828125
3.043798828125
3.043798828125
2.9624267578124996
2.8012939453124996
2.7384521484374997
2.647412109375
2.512060546875
2.3195068359374997
3.04541015625
3.04541015625
3.043798828125
3.0470214843749996
3.04541015625
3.04541015625
0.5204589843749999
0.0394775390625
0.04189453125
0.038671874999999994
0.0394775390625
0.041088867187499996
0.0362548828125
0.0362548828125
0.041088867187499996
0.0394775390625
0.038671874999999994
0.0394775390625
0.038671874999999994
0.046728515624999994
0.04189453125
0.038671874999999994
0.040283203125
0.0394775390625
0.0394775390625
0.040283203125
0.041088867187499996
0.041088867187499996
3.043798828125
3.0486328124999997
3.04541015625
3.04541015625
3.0429931640624996
3.0413818359375
3.0462158203125
3.0486328124999997
3.0446044921874997
2.8149902343749997
2.7779296875
2.63935546875
2.4983642578125
2.3799316406249997
3.0429931640624996
3.0462158203125
3.0421875
3.04541015625
3.04541015625
3.0478271484375
2.44921875
0.230419921875
0.0362548828125
0.0394775390625
0.0394775390625
0.038671874999999994
0.0394775390625
0.0362548828125
0.040283203125
0.040283203125
0.040283203125
0.038671874999999994
0.040283203125
0.0580078125
0.04833984375
0.040283203125
0.0394775390625
0.0394775390625
0.038671874999999994
0.040283203125
0.0394775390625
0.04189453125
2.57490234375
3.04541015625
3.0462158203125
3.04541015625
3.04541015625
3.0429931640624996
3.0470214843749996
3.0462158203125
3.0470214843749996
2.88427734375
2.7819580078125
2.6143798828125
2.576513671875
2.4121582031249997
2.281640625
3.0421875
