0.0378662109375
0.0346435546875
2.824658203125
3.0421875
3.037353515625
3.0421875
3.037353515625
3.043798828125
3.0397705078125
3.0389648437499996
2.8786376953125
2.9761230468749997
2.8480224609375
2.75537109375
2.666748046875
2.5595947265624996
3.0365478515624997
3.0421875
3.0397705078125
3.0365478515624997
3.0381591796875
3.043798828125
1.0675048828125
0.033837890625
0.0346435546875
0.03544921875
0.0322265625
0.0362548828125
0.03544921875
0.0346435546875
0.0378662109375
0.03544921875
0.038671874999999994
0.033837890625
0.0378662109375
0.0346435546875
0.0346435546875
0.037060546874999996
0.0322265625
0.0346435546875
0.0362548828125
0.0346435546875
0.037060546874999996
0.03544921875
2.9044189453125
3.0397705078125
3.0413818359375
3.04541015625
3.0413818359375
3.0397705078125
3.0389648437499996
3.0421875
3.0381591796875
2.848828125
2.8899169921874996
2.8238525390625
2.6756103515625
2.5410644531249997
3.0405761718749997
3.0405761718749997
3.0405761718749997
3.0397705078125
3.0413818359375
3.0421875
1.4469726562499998
0.36979980468749996
0.038671874999999994
0.033837890625
0.033837890625
0.0314208984375
0.03544921875
0.03544921875
0.03544921875
0.03544921875
0.0346435546875
0.038671874999999994
0.0346435546875
0.07734374999999999
0.0362548828125
0.0346435546875
0.0378662109375
0.038671874999999994
0.0378662109375
0.0362548828125
0.0346435546875
0.030615234374999998
2.370263671875
3.0429931640624996
3.043798828125
3.0405761718749997
3.0413818359375
3.0421875
3.0397705078125
3.0421875
3.0429931640624996
2.785986328125
2.9342285156249996
2.8480224609375
2.6441894531249996
2.5740966796875
2.5072265624999996
3.0429931640624996
3.0397705078125
3.0405761718749997
3.0405761718749997
3.0429931640624996
2.94873046875
1.3656005859375
0.0322265625
0.0346435546875
0.0346435546875
0.03544921875
0.037060546874999996
0.033837890625
0.033032226562499996
0.033032226562499996
0.0322265625
0.0378662109375
0.0362548828125
0.0362548828125
0.0378662109375
0.03544921875
0.0322265625
0.038671874999999994
0.030615234374999998
0.03544921875
0.0378662109375
0.0314208984375
0.038671874999999994
3.0397705078125
3.043798828125
3.0405761718749997
3.0421875
3.0405761718749997
3.0446044921874997
3.0470214843749996
3.0413818359375
3.0421875
2.8834716796874997
2.8673583984374997
2.747314453125
2.65869140625
2.578125
3.0421875
3.0405761718749997
3.0429931640624996
3.0389648437499996
3.0381591796875
3.04541015625
1.3188720703124999
0.0362548828125
0.033032226562499996
0.03544921875
0.0362548828125
0.0378662109375
0.033837890625
0.0314208984375
0.038671874999999994
0.0378662109375
0.0362548828125
0.0314208984375
0.0346435546875
0.0362548828125
0.0346435546875
0.033837890625
0.038671874999999994
0.0346435546875
0.0322265625
0.0378662109375
0.0346435546875
0.0322265625
3.0429931640624996
3.0405761718749997
3.0413818359375
3.0413818359375
3.043798828125
3.0397705078125
3.0397705078125
3.0429931640624996
3.037353515625
2.92294921875
2.931005859375
2.8294921874999996
2.719921875
2.5410644531249997
3.0405761718749997
3.0421875
3.0413818359375
3.0421875
3.0421875
3.0413818359375
1.2963134765625
0.033837890625
0.033837890625
0.033837890625
0.0322265625
0.0322265625
0.0346435546875
0.03544921875
0.0346435546875
0.0346435546875
0.0322265625
0.033032226562499996
0.03544921875
0.0362548828125
0.0362548828125
0.03544921875
0.0362548828125
0.0378662109375
0.0346435546875
0.0362548828125
0.03544921875
0.038671874999999994
2.2026855468749997
3.0413818359375
3.0405761718749997
3.0421875
3.0462158203125
3.0421875
3.0397705078125
3.0421875
2.63935546875
3.0107666015624996
2.8931396484375
2.8464111328125
2.6538574218749997
2.566845703125
3.0397705078125
3.0405761718749997
3.0405761718749997
3.0413818359375
3.0413818359375
3.0389648437499996
1.2938964843749998
0.668701171875
0.03544921875
0.03544921875
0.0346435546875
0.03544921875
0.0314208984375
0.0362548828125
0.03544921875
0.0362548828125
0.033837890625
0.0346435546875
0.030615234374999998
0.0362548828125
0.0322265625
0.0362548828125
0.0346435546875
0.0346435546875
0.03544921875
0.033837890625
0.03544921875
0.0346435546875
2.56845703125
3.0421875
3.0421875
3.0405761718749997
3.0421875
3.0413818359375
3.0381591796875
3.0421875
2.6611083984375
2.972900390625
2.91650390625
2.8472167968749997
2.7287841796874996
2.657080078125
3.0389648437499996
3.0397705078125
3.0397705078125
3.0446044921874997
3.0421875
3.0397705078125
3.0413818359375
0.630029296875
0.0362548828125
0.03544921875
0.03544921875
0.0362548828125
0.038671874999999994
0.0378662109375
0.03544921875
0.03544921875
0.03544921875
0.0314208984375
0.033032226562499996
0.0322265625
0.03544921875
0.038671874999999994
0.0362548828125
0.0322265625
0.0346435546875
0.033032226562499996
0.033837890625
0.0378662109375
2.6748046875
3.0405761718749997
3.0429931640624996
3.0421875
3.0413818359375
3.0405761718749997
3.0421875
3.0421875
3.0421875
2.8238525390625
2.8552734374999997
2.8069335937499997
2.70380859375
2.6127685546875
2.6401611328124996
3.0389648437499996
3.0405761718749997
3.0413818359375
3.0421875
3.0429931640624996
3.0397705078125
1.3309570312499999
0.03544921875
0.0362548828125
0.03544921875
0.03544921875
0.0378662109375
0.030615234374999998
0.038671874999999994
0.03544921875
0.0378662109375
0.03544921875
0.038671874999999994
0.03544921875
0.0362548828125
0.03544921875
0.0346435546875
0.033837890625
0.0346435546875
0.033837890625
0.03544921875
0.0322265625
0.037060546874999996
2.98740234375
3.0413818359375
3.0421875
3.0429931640624996
3.0421875
3.0429931640624996
3.0421875
3.0429931640624996
2.7980712890625
2.9092529296875
2.856884765625
2.7988769531249997
2.731201171875
2.666748046875
3.0405761718749997
3.0421875
3.0413818359375
3.0446044921874997
3.0389648437499996
3.0389648437499996
1.4228027343749998
0.03544921875
0.037060546874999996
0.033032226562499996
0.033032226562499996
0.03544921875
0.038671874999999994
0.0523681640625
0.037060546874999996
0.0378662109375
0.0346435546875
0.037060546874999996
0.0378662109375
0.0346435546875
0.03544921875
0.037060546874999996
0.0362548828125
0.0378662109375
0.037060546874999996
0.03544921875
0.03544921875
0.03544921875
2.3340087890625
3.0397705078125
3.0446044921874997
3.0397705078125
3.0421875
3.0389648437499996
3.0381591796875
3.0421875
3.0389648437499996
2.8802490234375
2.898779296875
2.8657470703124996
2.79404296875
2.6538574218749997
3.037353515625
3.037353515625
3.043798828125
3.0381591796875
3.0421875
3.0405761718749997
2.3017822265625
0.037060546874999996
0.033837890625
0.0362548828125
0.0346435546875
0.033837890625
0.03544921875
0.0322265625
0.0394775390625
0.0394775390625
0.0314208984375
0.03544921875
0.0362548828125
0.03544921875
0.033032226562499996
0.0322265625
0.03544921875
0.033837890625
0.038671874999999994
0.0362548828125
0.0322265625
0.033032226562499996
2.1438720703125
3.0413818359375
3.0389648437499996
3.0421875
3.0429931640624996
3.0405761718749997
3.0389648437499996
3.0405761718749997
3.0381591796875
3.0413818359375
2.9447021484375
2.8464111328125
2.8069335937499997
2.5982666015625
3.0421875
3.0381591796875
3.0421875
3.043798828125
3.0421875
3.0365478515624997
2.9108642578125
0.913623046875
0.033837890625
0.03544921875
0.0362548828125
0.0346435546875
0.038671874999999994
0.03544921875
0.03544921875
0.03544921875
0.038671874999999994
0.0346435546875
0.03544921875
0.037060546874999996
0.0362548828125
0.038671874999999994
0.0346435546875
0.037060546874999996
0.0314208984375
0.03544921875
0.03544921875
0.03544921875
0.033032226562499996
3.0268798828124996
3.0389648437499996
3.0405761718749997
3.0397705078125
3.0389648437499996
3.0389648437499996
3.0413818359375
3.0413818359375
3.0405761718749997
2.9173095703125
2.892333984375
2.7650390624999996
2.6546630859375
2.5595947265624996
3.0421875
3.0413818359375
3.0389648437499996
3.0365478515624997
3.0405761718749997
3.043798828125
1.31162109375
0.0322265625
0.03544921875
0.0346435546875
0.03544921875
0.03544921875
0.0362548828125
0.03544921875
0.0346435546875
0.03544921875
0.0322265625
0.0322265625
0.0362548828125
0.0378662109375
0.0378662109375
0.0322265625
0.0346435546875
0.033837890625
0.0346435546875
0.033032226562499996
0.033837890625
0.0322265625
2.9906249999999996
3.0413818359375
3.0397705078125
3.0413818359375
3.0421875
3.0421875
3.0413818359375
3.0421875
2.8238525390625
3.0083496093749997
2.9575927734375
2.8576904296874996
2.7505371093749997
2.6159912109374996
3.0397705078125
3.0405761718749997
3.0397705078125
3.0405761718749997
3.0405761718749997
3.0413818359375
1.4058837890625
0.0378662109375
0.03544921875
0.033837890625
0.03544921875
0.0346435546875
0.0346435546875
0.0346435546875
0.0378662109375
0.037060546874999996
0.0378662109375
0.0362548828125
0.0378662109375
0.03544921875
0.0378662109375
0.0362548828125
0.038671874999999994
0.033837890625
0.03544921875
0.0362548828125
0.03544921875
0.03544921875
2.7384521484374997
3.043798828125
3.043798828125
3.0365478515624997
3.043798828125
3.0421875
3.0405761718749997
3.0429931640624996
3.0405761718749997
3.0236572265625
2.88427734375
2.91650390625
2.753759765625
2.63935546875
3.0397705078125
3.0429931640624996
3.0413818359375
3.0397705078125
3.0389648437499996
3.0421875
1.1077880859375
0.1796630859375
0.03544921875
0.033837890625
0.0322265625
0.03544921875
0.0314208984375
0.03544921875
0.033032226562499996
0.0362548828125
0.037060546874999996
0.03544921875
0.040283203125
0.033032226562499996
0.037060546874999996
0.0346435546875
0.0346435546875
0.0346435546875
0.0346435546875
0.033837890625
0.03544921875
0.03544921875
2.528173828125
3.0421875
3.0405761718749997
3.0405761718749997
3.0405761718749997
3.0397705078125
3.0421875
3.0405761718749997
3.0397705078125
2.8359375
2.9342285156249996
2.83271484375
2.689306640625
2.5805419921875
2.792431640625
3.0405761718749997
3.0397705078125
3.0405761718749997
3.0389648437499996
3.0405761718749997
3.0389648437499996
0.22236328125
0.033837890625
0.0346435546875
0.03544921875
0.0362548828125
0.0394775390625
0.0346435546875
0.03544921875
0.03544921875
0.03544921875
0.0362548828125
0.033032226562499996
0.03544921875
0.037060546874999996
0.03544921875
0.03544921875
0.0346435546875
0.038671874999999994
0.03544921875
0.03544921875
0.0322265625
2.5289794921874997
3.0413818359375
3.037353515625
3.0429931640624996
3.0421875
3.0429931640624996
3.0421875
3.0429931640624996
3.04541015625
3.0429931640624996
2.937451171875
2.8464111328125
2.7722900390625
2.6603027343749996
2.6780273437499997
3.037353515625
3.0421875
3.0429931640624996
3.0413818359375
3.0405761718749997
3.0413818359375
1.087646484375
0.03544921875
0.037060546874999996
0.0346435546875
0.0314208984375
0.0378662109375
0.0346435546875
0.0362548828125
0.0346435546875
0.0322265625
0.03544921875
0.0346435546875
0.0322265625
0.0362548828125
0.0346435546875
0.038671874999999994
0.03544921875
0.03544921875
0.033837890625
0.038671874999999994
0.037060546874999996
0.0362548828125
2.8286865234375
3.037353515625
3.0389648437499996
3.0405761718749997
3.0389648437499996
3.0421875
3.0429931640624996
3.0397705078125
3.0421875
2.8858886718749996
2.872998046875
2.747314453125
2.6337158203124997
2.5475097656249996
3.0405761718749997
3.0413818359375
3.0421875
3.037353515625
3.0405761718749997
3.0405761718749997
1.2673095703125
0.03544921875
0.0362548828125
0.0322265625
0.0322265625
0.033032226562499996
0.033032226562499996
0.0394775390625
0.037060546874999996
0.0362548828125
0.03544921875
0.03544921875
0.03544921875
0.03544921875
0.0346435546875
0.0362548828125
0.03544921875
0.0298095703125
0.0346435546875
0.033837890625
0.043505859375
0.0362548828125
2.42666015625
3.0405761718749997
3.0397705078125
3.0405761718749997
3.0446044921874997
3.0470214843749996
3.0413818359375
3.0421875
3.0107666015624996
3.0172119140625
2.8874999999999997
2.7996826171875
2.7021972656249997
2.578125
3.0413818359375
3.0397705078125
3.0413818359375
3.0413818359375
3.0421875
3.0421875
1.7724609375
0.0346435546875
0.03544921875
0.03544921875
0.0346435546875
0.033032226562499996
0.0362548828125
0.0362548828125
0.0314208984375
0.0346435546875
0.0346435546875
0.0346435546875
0.0362548828125
0.0362548828125
0.0346435546875
0.03544921875
0.03544921875
0.037060546874999996
0.038671874999999994
0.03544921875
0.0362548828125
0.0314208984375
2.7086425781249996
3.0421875
3.0421875
3.0405761718749997
3.0389648437499996
3.043798828125
3.0462158203125
3.0405761718749997
2.96162109375
2.8713867187499997
2.8931396484375
2.843994140625
2.711865234375
2.6119628906249996
3.0405761718749997
3.037353515625
3.0421875
3.0413818359375
3.0405761718749997
3.0446044921874997
1.65966796875
0.44553222656249997
0.03544921875
0.033032226562499996
0.03544921875
0.033837890625
0.03544921875
0.037060546874999996
0.0346435546875
0.0378662109375
0.0378662109375
0.0346435546875
0.0362548828125
0.0346435546875
0.0346435546875
0.03544921875
0.0346435546875
0.03544921875
0.03544921875
0.0346435546875
0.0362548828125
0.037060546874999996
2.9398681640624997
3.0413818359375
3.0421875
3.0381591796875
3.0421875
3.037353515625
3.0421875
3.0405761718749997
3.0389648437499996
2.9366455078125
2.9543701171874996
2.8818603515624996
2.7344238281249997
2.6643310546874996
2.5853759765624997
3.0397705078125
3.037353515625
3.0421875
3.0446044921874997
3.0413818359375
3.0381591796875
0.990966796875
0.0314208984375
0.0346435546875
0.041088867187499996
0.0346435546875
0.03544921875
0.0322265625
0.0346435546875
0.03544921875
0.038671874999999994
0.033032226562499996
0.0362548828125
0.033032226562499996
0.033032226562499996
0.0346435546875
0.0362548828125
0.0378662109375
0.0322265625
0.03544921875
0.033837890625
0.03544921875
0.033837890625
3.0421875
3.0405761718749997
3.0389648437499996
3.0421875
3.0397705078125
3.0413818359375
3.0413818359375
3.0413818359375
3.0389648437499996
2.8802490234375
2.8576904296874996
2.7610107421874996
2.6449951171875
2.5595947265624996
3.0397705078125
3.0413818359375
3.0413818359375
3.0405761718749997
3.0446044921874997
3.0413818359375
1.026416015625
0.033032226562499996
0.0346435546875
0.037060546874999996
0.033837890625
0.03544921875
0.0346435546875
0.0346435546875
0.033837890625
0.0362548828125
0.0378662109375
0.038671874999999994
0.03544921875
0.033837890625
0.038671874999999994
0.03544921875
0.0362548828125
0.0346435546875
0.0322265625
0.03544921875
0.03544921875
0.0346435546875
3.0421875
3.0413818359375
3.0389648437499996
3.0405761718749997
3.0421875
3.0413818359375
3.0405761718749997
3.0421875
3.0421875
2.89072265625
2.8673583984374997
2.8133789062499996
2.6256591796874997
2.5152832031249996
3.0381591796875
3.043798828125
3.037353515625
3.0397705078125
3.0397705078125
3.0413818359375
1.14404296875
0.0378662109375
0.03544921875
0.0322265625
0.0394775390625
0.038671874999999994
0.0322265625
0.03544921875
0.037060546874999996
0.03544921875
0.038671874999999994
0.0314208984375
0.03544921875
0.03544921875
0.03544921875
0.038671874999999994
0.038671874999999994
0.03544921875
0.033837890625
0.0362548828125
0.037060546874999996
0.0346435546875
2.0826416015625
3.0397705078125
3.0429931640624996
3.0446044921874997
3.0405761718749997
3.0421875
3.0365478515624997
3.0421875
3.0413818359375
2.9745117187499996
2.91328125
2.8302978515625
2.7255615234375
2.6200195312499996
3.0413818359375
3.0389648437499996
3.037353515625
3.0397705078125
3.0421875
3.0421875
2.4339111328125
0.03544921875
0.0362548828125
0.0362548828125
0.0362548828125
0.033032226562499996
0.03544921875
0.0346435546875
0.03544921875
0.0378662109375
0.0362548828125
0.03544921875
0.0346435546875
0.03544921875
0.038671874999999994
0.0322265625
0.0346435546875
0.0362548828125
0.033837890625
0.03544921875
0.0346435546875
0.0322265625
2.3404541015625
3.0405761718749997
3.0421875
3.0413818359375
3.0421875
3.0421875
3.0421875
3.0429931640624996
2.695751953125
2.9519531249999997
2.8818603515624996
2.8359375
2.7303955078124997
2.6361328124999996
3.0397705078125
3.0381591796875
3.0413818359375
3.0397705078125
3.0405761718749997
3.0429931640624996
2.7223388671874997
0.662255859375
0.0362548828125
0.03544921875
0.03544921875
0.0362548828125
0.0346435546875
0.03544921875
0.0322265625
0.0378662109375
0.0346435546875
0.0394775390625
0.033032226562499996
0.0362548828125
0.0322265625
0.033032226562499996
0.0378662109375
0.0346435546875
0.0394775390625
0.0314208984375
0.0322265625
0.03544921875
1.5605712890624999
3.0421875
3.0405761718749997
3.0413818359375
3.0421875
3.0397705078125
3.043798828125
3.0421875
3.0397705078125
3.02607421875
2.9519531249999997
2.9036132812499997
2.792431640625
2.66513671875
2.6014892578124997
3.0413818359375
3.0389648437499996
3.0413818359375
3.0397705078125
3.0397705078125
3.0421875
1.08603515625
0.03544921875
0.033032226562499996
0.03544921875
0.0346435546875
0.0378662109375
0.03544921875
0.03544921875
0.0362548828125
0.03544921875
0.03544921875
0.0362548828125
0.0362548828125
0.0362548828125
0.03544921875
0.03544921875
0.0346435546875
0.0346435546875
0.03544921875
0.0322265625
0.037060546874999996
0.0322265625
2.8319091796875
3.0413818359375
3.0405761718749997
3.0413818359375
3.043798828125
3.037353515625
3.0421875
3.0421875
2.8391601562499997
2.9261718749999996
2.89072265625
2.795654296875
2.715087890625
2.634521484375
3.0413818359375
3.0413818359375
3.04541015625
3.043798828125
3.037353515625
3.0397705078125
0.952294921875
0.0362548828125
0.03544921875
0.0378662109375
0.0362548828125
0.0322265625
0.03544921875
0.033837890625
0.03544921875
0.0322265625
0.03544921875
0.038671874999999994
0.03544921875
0.0346435546875
0.03544921875
0.03544921875
0.03544921875
0.0322265625
0.0346435546875
0.03544921875
0.0362548828125
0.03544921875
2.7739013671875
3.0413818359375
3.0405761718749997
3.04541015625
3.0389648437499996
3.0446044921874997
3.0421875
3.0413818359375
3.0405761718749997
2.9092529296875
2.921337890625
2.866552734375
2.7585937499999997
2.6095458984374997
3.0462158203125
3.0389648437499996
3.0413818359375
3.0413818359375
3.0429931640624996
3.0429931640624996
0.9450439453124999
0.0378662109375
0.033837890625
0.03544921875
0.0378662109375
0.03544921875
0.0346435546875
0.0346435546875
0.03544921875
0.03544921875
0.033837890625
0.0346435546875
0.037060546874999996
0.0322265625
0.038671874999999994
0.0346435546875
0.03544921875
0.033837890625
0.0362548828125
0.0346435546875
0.033032226562499996
0.0362548828125
2.6192138671875
3.0421875
3.037353515625
3.0389648437499996
3.0413818359375
3.0405761718749997
3.0405761718749997
3.0397705078125
3.037353515625
2.9285888671875
2.924560546875
2.8270751953124997
2.7247558593749996
2.5998779296874996
3.0397705078125
3.0421875
3.0413818359375
3.0405761718749997
3.0381591796875
3.0405761718749997
3.0091552734375
0.7549072265625
0.03544921875
0.03544921875
0.03544921875
0.03544921875
0.0394775390625
0.0346435546875
0.03544921875
0.03544921875
0.0322265625
0.0322265625
0.0346435546875
0.033032226562499996
0.0362548828125
0.03544921875
0.0362548828125
0.03544921875
0.03544921875
0.0378662109375
0.033032226562499996
0.038671874999999994
0.03544921875
3.0413818359375
3.0381591796875
3.0421875
3.0405761718749997
3.0397705078125
3.0397705078125
3.0421875
3.0397705078125
3.0405761718749997
2.9156982421874997
2.874609375
2.824658203125
2.705419921875
2.5805419921875
3.0389648437499996
3.0397705078125
3.0405761718749997
3.037353515625
3.0405761718749997
3.0413818359375
0.8499755859375
0.0378662109375
0.0322265625
0.0378662109375
0.03544921875
0.037060546874999996
0.0314208984375
0.03544921875
0.03544921875
0.0362548828125
0.03544921875
0.0314208984375
0.0346435546875
0.033032226562499996
0.0346435546875
0.033837890625
0.03544921875
0.0346435546875
0.0362548828125
0.03544921875
0.037060546874999996
0.0346435546875
3.0389648437499996
3.0421875
3.0446044921874997
3.0365478515624997
3.0405761718749997
3.0405761718749997
3.0405761718749997
3.0421875
2.7448974609374996
2.9414794921875
2.8544677734375
2.7787353515624997
2.6675537109375
2.55234375
3.0381591796875
3.0381591796875
3.0413818359375
3.0397705078125
3.0405761718749997
3.0421875
1.0111083984375
0.0346435546875
0.0298095703125
0.033032226562499996
0.03544921875
0.0362548828125
0.038671874999999994
0.0346435546875
0.0314208984375
0.03544921875
0.03544921875
0.03544921875
0.0346435546875
0.0322265625
0.0362548828125
0.0314208984375
0.0322265625
0.037060546874999996
0.0362548828125
0.0346435546875
0.03544921875
0.03544921875
2.650634765625
3.0381591796875
3.043798828125
3.0413818359375
3.043798828125
3.0421875
3.043798828125
3.0357421875
3.0397705078125
2.834326171875
2.96162109375
2.85205078125
2.7303955078124997
2.63291015625
3.0413818359375
3.0421875
3.043798828125
3.0389648437499996
3.0389648437499996
3.0405761718749997
3.0413818359375
0.0362548828125
0.037060546874999996
0.0322265625
0.038671874999999994
0.0394775390625
0.033837890625
0.0394775390625
0.0394775390625
0.0346435546875
0.0346435546875
0.033837890625
0.0346435546875
0.0346435546875
0.038671874999999994
0.0346435546875
0.03544921875
0.0346435546875
0.0314208984375
0.0362548828125
0.0346435546875
0.0322265625
0.049951171875
3.0405761718749997
3.0413818359375
3.0421875
3.0397705078125
3.0462158203125
3.0357421875
3.043798828125
3.0405761718749997
3.0421875
2.9495361328125
2.9140869140624996
2.8874999999999997
2.7835693359375
3.0397705078125
3.0389648437499996
3.04541015625
3.0397705078125
3.043798828125
3.0405761718749997
3.0421875
0.8000244140624999
0.033837890625
0.0314208984375
0.033837890625
0.03544921875
0.03544921875
0.03544921875
0.033837890625
0.0346435546875
0.033837890625
0.037060546874999996
0.03544921875
0.0346435546875
0.0378662109375
0.037060546874999996
0.0346435546875
0.0378662109375
0.0322265625
0.0394775390625
0.0346435546875
0.0322265625
0.041088867187499996
2.9422851562499996
3.0429931640624996
3.0405761718749997
3.0397705078125
3.0405761718749997
3.0421875
3.0405761718749997
3.0413818359375
2.8633300781249997
3.0309082031249996
2.9302001953124996
2.81982421875
2.7207275390624996
2.5652343749999997
3.0429931640624996
3.0462158203125
3.0446044921874997
3.0381591796875
3.0389648437499996
3.0389648437499996
1.0385009765625
0.0346435546875
0.0346435546875
0.0378662109375
0.0378662109375
0.0515625
0.0378662109375
0.033032226562499996
0.037060546874999996
0.037060546874999996
0.033837890625
0.03544921875
0.0346435546875
0.03544921875
0.03544921875
0.0346435546875
0.0362548828125
0.0346435546875
0.033032226562499996
0.0322265625
0.0346435546875
0.038671874999999994
2.5563720703125
3.0381591796875
3.0397705078125
3.0421875
3.0389648437499996
3.0405761718749997
3.0421875
3.0429931640624996
3.0397705078125
2.876220703125
2.9519531249999997
2.8786376953125
2.6941406249999997
2.578125
3.0421875
3.0413818359375
3.0421875
3.0413818359375
3.0421875
3.0405761718749997
1.714453125
0.1007080078125
0.038671874999999994
0.0346435546875
0.0362548828125
0.0362548828125
0.0362548828125
0.03544921875
0.0346435546875
0.038671874999999994
0.033032226562499996
0.0346435546875
0.0378662109375
0.0322265625
0.03544921875
0.03544921875
0.03544921875
0.0346435546875
0.0346435546875
0.0394775390625
0.0322265625
0.03544921875
2.8456054687499996
3.0421875
3.0405761718749997
3.037353515625
3.043798828125
3.0389648437499996
3.0389648437499996
3.0405761718749997
3.0405761718749997
3.0421875
2.979345703125
2.8673583984374997
2.850439453125
2.6377441406249997
2.6272705078125
3.0389648437499996
3.0413818359375
3.04541015625
3.0333251953125
3.037353515625
3.04541015625
0.7500732421874999
0.033032226562499996
0.038671874999999994
0.0362548828125
0.03544921875
0.0378662109375
0.0362548828125
0.037060546874999996
0.0346435546875
0.03544921875
0.03544921875
0.03544921875
0.033032226562499996
0.0346435546875
0.040283203125
0.037060546874999996
0.0314208984375
0.03544921875
0.038671874999999994
0.033032226562499996
0.0322265625
0.0346435546875
3.0421875
3.0397705078125
3.0389648437499996
3.0365478515624997
3.0421875
3.043798828125
3.0421875
3.04541015625
3.0075439453125
2.9020019531249996
2.9527587890625
2.872998046875
2.76826171875
2.6369384765625
3.0365478515624997
3.043798828125
3.0405761718749997
3.0389648437499996
3.0405761718749997
3.037353515625
0.6590332031249999
0.030615234374999998
0.0314208984375
0.030615234374999998
0.043505859375
0.03544921875
0.0314208984375
0.03544921875
0.0378662109375
0.0362548828125
0.033837890625
0.0322265625
0.03544921875
0.0346435546875
0.03544921875
0.0346435546875
0.037060546874999996
0.033032226562499996
0.0346435546875
0.030615234374999998
0.0346435546875
0.03544921875
2.1986572265624997
3.0421875
3.0421875
3.0413818359375
3.0421875
3.0429931640624996
3.0421875
3.0397705078125
2.972900390625
3.0381591796875
2.9455078125
2.8979736328124996
2.760205078125
2.6288818359375
3.0421875
3.0405761718749997
3.0446044921874997
3.0397705078125
3.0397705078125
3.0421875
2.2002685546875
0.323876953125
0.0346435546875
0.0378662109375
0.033837890625
0.033032226562499996
0.0314208984375
0.033837890625
0.038671874999999994
0.0378662109375
0.03544921875
0.0346435546875
0.0362548828125
0.03544921875
0.037060546874999996
0.0362548828125
0.037060546874999996
0.0346435546875
0.0314208984375
0.0314208984375
0.0394775390625
0.0378662109375
1.6645019531249998
3.0413818359375
3.0381591796875
3.043798828125
3.0413818359375
3.0413818359375
3.0381591796875
3.0381591796875
3.0413818359375
2.9841796874999997
3.0010986328125
2.9583984374999996
2.7730957031249996
2.6868896484375
2.6192138671875
3.0405761718749997
3.0405761718749997
3.0405761718749997
3.0421875
3.0405761718749997
3.0381591796875
0.9224853515625
0.030615234374999998
0.0362548828125
0.0346435546875
0.0322265625
0.030615234374999998
0.0314208984375
0.03544921875
0.0362548828125
0.0322265625
0.038671874999999994
0.0346435546875
0.03544921875
0.0346435546875
0.03544921875
0.0346435546875
0.0362548828125
0.038671874999999994
0.033837890625
0.030615234374999998
0.0314208984375
0.0346435546875
2.9519531249999997
3.0413818359375
3.0397705078125
3.0413818359375
3.0381591796875
3.0413818359375
3.0429931640624996
3.0413818359375
3.0446044921874997
2.9285888671875
2.931005859375
2.83271484375
2.7505371093749997
2.6280761718749996
3.0389648437499996
3.0413818359375
3.043798828125
3.0421875
3.0421875
3.0397705078125
0.4833984375
0.037060546874999996
0.03544921875
0.03544921875
0.0362548828125
0.0346435546875
0.0346435546875
0.0378662109375
0.03544921875
0.0394775390625
0.0346435546875
0.0298095703125
0.0346435546875
0.0362548828125
0.033837890625
0.03544921875
0.0322265625
0.030615234374999998
0.0322265625
0.03544921875
0.0362548828125
0.0346435546875
2.4202148437499997
3.0397705078125
3.0421875
3.0421875
3.0413818359375
3.0405761718749997
3.0405761718749997
3.0421875
3.0421875
3.003515625
2.9366455078125
2.8552734374999997
2.7344238281249997
2.6031005859375
3.0421875
3.0389648437499996
3.0413818359375
3.0421875
3.0397705078125
3.0429931640624996
2.4983642578125
0.037060546874999996
0.038671874999999994
0.030615234374999998
0.0346435546875
0.037060546874999996
0.0346435546875
0.0314208984375
0.0346435546875
0.033837890625
0.033837890625
0.03544921875
0.0346435546875
0.03544921875
0.0362548828125
0.0346435546875
0.03544921875
0.037060546874999996
0.037060546874999996
0.03544921875
0.03544921875
0.03544921875
1.0336669921875
3.043798828125
3.0413818359375
3.037353515625
3.0421875
3.0389648437499996
3.0413818359375
3.037353515625
2.5732910156249997
2.9608154296875
2.92294921875
2.827880859375
2.682861328125
2.6683593749999996
2.6103515625
3.04541015625
3.0462158203125
3.0397705078125
3.0413818359375
3.0413818359375
3.0421875
1.0675048828125
0.03544921875
0.03544921875
0.0346435546875
0.037060546874999996
0.0362548828125
0.0394775390625
0.03544921875
0.0346435546875
0.03544921875
0.0346435546875
0.0362548828125
0.0362548828125
0.0346435546875
0.0322265625
0.0298095703125
0.03544921875
0.0362548828125
0.033837890625
0.033837890625
0.0346435546875
0.038671874999999994
2.9036132812499997
3.0421875
3.0413818359375
3.0421875
3.0421875
3.0429931640624996
3.0413818359375
3.0429931640624996
2.924560546875
2.96162109375
2.9124755859375
2.7666503906249997
2.7013916015625
2.5958496093749996
3.0397705078125
3.0421875
3.0421875
3.0405761718749997
3.0429931640624996
3.04541015625
0.5212646484375
0.037060546874999996
0.03544921875
0.0314208984375
0.0346435546875
0.03544921875
0.03544921875
0.03544921875
0.0362548828125
0.03544921875
0.0346435546875
0.03544921875
0.03544921875
0.038671874999999994
0.0378662109375
0.0346435546875
0.0346435546875
0.030615234374999998
0.0378662109375
0.0346435546875
0.03544921875
0.03544921875
2.3074218749999997
3.0421875
3.0413818359375
3.0413818359375
3.0413818359375
3.043798828125
3.0405761718749997
3.0413818359375
3.0421875
2.963232421875
2.924560546875
2.860107421875
2.7529541015624996
2.6603027343749996
3.0429931640624996
3.0413818359375
3.0405761718749997
3.0405761718749997
3.0421875
3.0446044921874997
2.7561767578125
0.0346435546875
0.033837890625
0.03544921875
0.0314208984375
0.03544921875
0.0362548828125
0.03544921875
0.033837890625
0.038671874999999994
0.038671874999999994
0.03544921875
0.0362548828125
0.0346435546875
0.0346435546875
0.033837890625
0.03544921875
0.033032226562499996
0.0378662109375
0.0378662109375
0.0346435546875
0.0346435546875
0.7855224609375
3.037353515625
3.0389648437499996
3.0405761718749997
3.0421875
3.0413818359375
3.0381591796875
3.0462158203125
2.89716796875
3.043798828125
2.95517578125
2.8834716796874997
2.8045166015625
2.695751953125
3.0389648437499996
3.0389648437499996
3.0397705078125
3.0397705078125
3.0397705078125
3.0365478515624997
3.0397705078125
0.6501708984375
0.0346435546875
0.0314208984375
0.0378662109375
0.0322265625
0.0362548828125
0.0314208984375
0.03544921875
0.0362548828125
0.0346435546875
0.033837890625
0.03544921875
0.0346435546875
0.03544921875
0.03544921875
0.0362548828125
0.0362548828125
0.0314208984375
0.0322265625
0.0362548828125
0.033032226562499996
0.0346435546875
3.037353515625
3.0397705078125
3.037353515625
3.043798828125
3.0421875
3.0421875
3.0405761718749997
3.0413818359375
2.7787353515624997
3.027685546875
2.9479248046874997
2.848828125
2.7666503906249997
2.6433837890625
3.0405761718749997
3.0413818359375
3.0397705078125
3.0389648437499996
3.0413818359375
3.0397705078125
0.984521484375
0.03544921875
0.0346435546875
0.03544921875
0.0346435546875
0.03544921875
0.0346435546875
0.0362548828125
0.033032226562499996
0.0322265625
0.033837890625
0.033837890625
0.038671874999999994
0.033837890625
0.03544921875
0.033837890625
0.03544921875
0.0362548828125
0.0378662109375
0.0346435546875
0.0378662109375
0.0346435546875
2.8375488281249996
3.0397705078125
3.0413818359375
3.043798828125
3.0405761718749997
3.0397705078125
3.0389648437499996
3.0397705078125
3.0405761718749997
2.8874999999999997
2.8560791015625
2.7755126953125
2.70703125
2.5877929687499996
3.0381591796875
3.04541015625
3.0405761718749997
3.0397705078125
3.0397705078125
3.0446044921874997
0.974853515625
0.038671874999999994
0.03544921875
0.0346435546875
0.03544921875
0.033837890625
0.0322265625
0.0322265625
0.0362548828125
0.0346435546875
0.033837890625
0.03544921875
0.033837890625
0.033837890625
0.038671874999999994
0.037060546874999996
0.03544921875
0.033837890625
0.0362548828125
0.038671874999999994
0.0378662109375
0.0346435546875
2.8496337890624996
3.0421875
3.0413818359375
3.0421875
3.04541015625
3.0413818359375
3.0470214843749996
3.0405761718749997
3.04541015625
3.0397705078125
2.9173095703125
2.82626953125
2.792431640625
2.6458007812499997
3.0405761718749997
3.0405761718749997
3.0421875
3.0389648437499996
3.0405761718749997
3.0381591796875
3.0252685546875
0.631640625
0.040283203125
0.0346435546875
0.038671874999999994
0.0378662109375
0.0378662109375
0.03544921875
0.0346435546875
0.0314208984375
0.0346435546875
0.037060546874999996
0.030615234374999998
0.033837890625
0.0322265625
0.03544921875
0.03544921875
0.03544921875
0.0346435546875
0.03544921875
0.038671874999999994
0.033032226562499996
0.0346435546875
3.0446044921874997
3.0413818359375
3.0405761718749997
3.0429931640624996
3.0421875
3.0365478515624997
3.0421875
3.0446044921874997
2.7996826171875
2.905224609375
2.9318115234374997
2.860107421875
2.7666503906249997
2.6707763671875
3.0397705078125
3.0405761718749997
3.0357421875
3.0381591796875
3.0389648437499996
3.0421875
0.839501953125
0.0322265625
0.0346435546875
0.03544921875
0.0346435546875
0.038671874999999994
0.03544921875
0.0362548828125
0.0346435546875
0.033837890625
0.033837890625
0.033032226562499996
0.0314208984375
0.03544921875
0.03544921875
0.0346435546875
0.03544921875
0.0346435546875
0.03544921875
0.0346435546875
0.038671874999999994
0.0346435546875
2.570068359375
3.0429931640624996
3.043798828125
3.0413818359375
3.04541015625
3.0421875
3.0397705078125
3.0405761718749997
3.0397705078125
2.9745117187499996
2.860107421875
2.8125732421875
2.6498291015624997
2.6047119140625
3.037353515625
3.0405761718749997
3.0429931640624996
3.0405761718749997
3.0405761718749997
3.0405761718749997
1.2028564453125
0.0346435546875
0.0362548828125
0.0322265625
0.0362548828125
0.037060546874999996
0.0346435546875
0.033837890625
0.03544921875
0.037060546874999996
0.038671874999999994
0.038671874999999994
0.0322265625
0.0314208984375
0.0346435546875
0.03544921875
0.033032226562499996
0.0346435546875
0.038671874999999994
0.03544921875
0.0378662109375
0.0346435546875
2.386376953125
3.0421875
3.0413818359375
3.0413818359375
3.04541015625
3.04541015625
3.04541015625
3.0421875
3.037353515625
2.8174072265624996
2.9205322265625
2.8311035156249997
2.6868896484375
2.6063232421875
3.0405761718749997
3.0421875
3.0397705078125
3.0405761718749997
3.0429931640624996
3.0421875
3.0389648437499996
0.8241943359374999
0.037060546874999996
0.0346435546875
0.0346435546875
0.037060546874999996
0.0322265625
0.033837890625
0.0322265625
0.0346435546875
0.037060546874999996
0.0346435546875
0.0346435546875
0.0362548828125
0.03544921875
0.0362548828125
0.03544921875
0.0314208984375
0.033837890625
0.033837890625
0.03544921875
0.0346435546875
2.0520263671875
3.0413818359375
3.037353515625
3.0405761718749997
3.0397705078125
3.043798828125
3.0421875
3.0405761718749997
3.0397705078125
3.0405761718749997
2.8423828125
2.8738037109374996
2.785986328125
2.6514404296875
2.5225341796875
3.0381591796875
3.0429931640624996
3.0397705078125
3.0413818359375
3.0405761718749997
3.0413818359375
0.8967041015624999
0.03544921875
0.0346435546875
0.03544921875
0.0378662109375
0.03544921875
0.0346435546875
0.033032226562499996
0.0322265625
0.03544921875
0.0314208984375
0.0346435546875
0.033837890625
0.0322265625
0.0322265625
0.0346435546875
0.0314208984375
0.0322265625
0.0362548828125
0.037060546874999996
0.0378662109375
0.0346435546875
2.81982421875
3.0413818359375
3.0389648437499996
3.0413818359375
3.0397705078125
3.0405761718749997
3.0462158203125
3.0429931640624996
2.953564453125
3.0389648437499996
2.8794433593749997
2.8149902343749997
2.7191162109375
2.6039062499999996
3.037353515625
3.0421875
3.0397705078125
3.0421875
3.0413818359375
3.043798828125
1.611328125
0.0314208984375
0.0362548828125
0.033837890625
0.0362548828125
0.0362548828125
0.03544921875
0.03544921875
0.038671874999999994
0.0362548828125
0.0346435546875
0.0346435546875
0.03544921875
0.03544921875
0.0346435546875
0.030615234374999998
0.038671874999999994
0.02900390625
0.0394775390625
0.0346435546875
0.03544921875
0.033837890625
2.1954345703125
3.0381591796875
3.0421875
3.0413818359375
3.0413818359375
3.0397705078125
3.0421875
3.0405761718749997
3.0405761718749997
2.771484375
2.9011962890625
2.7972656249999996
2.6739990234374997
2.6296874999999997
2.5853759765624997
3.0389648437499996
3.037353515625
3.0421875
3.0397705078125
3.0405761718749997
3.0405761718749997
0.11923828125
0.03544921875
0.0346435546875
0.033032226562499996
0.0322265625
0.0378662109375
0.030615234374999998
0.03544921875
0.033837890625
0.0346435546875
0.038671874999999994
0.0346435546875
0.0346435546875
0.03544921875
0.0362548828125
0.0346435546875
0.03544921875
0.03544921875
0.03544921875
0.033837890625
0.03544921875
0.033837890625
3.0413818359375
3.0413818359375
3.0389648437499996
3.0405761718749997
3.04541015625
3.0429931640624996
3.0429931640624996
3.04541015625
3.0405761718749997
2.91328125
2.8915283203124997
2.8077392578125
2.72958984375
2.5950439453125
3.0405761718749997
3.0405761718749997
3.0413818359375
3.0421875
3.0397705078125
3.0405761718749997
0.903955078125
0.033837890625
0.0362548828125
0.0378662109375
0.0322265625
0.03544921875
0.030615234374999998
0.033837890625
0.03544921875
0.0346435546875
0.038671874999999994
0.037060546874999996
0.0362548828125
0.037060546874999996
0.0378662109375
0.03544921875
0.033837890625
0.033837890625
0.038671874999999994
0.0394775390625
0.03544921875
0.03544921875
3.04541015625
3.0405761718749997
3.0405761718749997
3.0397705078125
3.0421875
3.0405761718749997
3.0405761718749997
3.0429931640624996
3.0421875
3.0429931640624996
2.9189208984375
2.8464111328125
2.75537109375
2.6208251953125
3.0405761718749997
3.0405761718749997
3.0365478515624997
3.0429931640624996
3.0429931640624996
3.04541015625
1.7410400390624998
0.0362548828125
0.038671874999999994
0.0362548828125
0.0346435546875
0.0362548828125
0.0378662109375
0.0378662109375
0.040283203125
0.03544921875
0.03544921875
0.037060546874999996
0.0346435546875
0.0314208984375
0.0346435546875
0.03544921875
0.0346435546875
0.0378662109375
0.0346435546875
0.0346435546875
0.03544921875
0.0346435546875
2.3130615234375
3.0397705078125
3.0389648437499996
3.043798828125
3.0429931640624996
3.0446044921874997
3.0446044921874997
3.0405761718749997
2.7811523437499996
2.9414794921875
3.0462158203125
2.874609375
2.7408691406249996
2.6514404296875
3.043798828125
3.0405761718749997
3.0421875
3.0397705078125
3.0405761718749997
3.0397705078125
2.1793212890625
0.35771484374999996
0.0346435546875
0.03544921875
0.03544921875
0.0394775390625
0.0346435546875
0.030615234374999998
0.03544921875
0.0346435546875
0.0314208984375
0.0346435546875
0.0346435546875
0.0314208984375
0.0346435546875
0.03544921875
0.03544921875
0.033837890625
0.0362548828125
0.038671874999999994
0.038671874999999994
0.033837890625
0.03544921875
3.0381591796875
3.0421875
3.0413818359375
3.0421875
3.0421875
3.0413818359375
3.0429931640624996
3.0365478515624997
3.0220458984375
2.9156982421874997
2.914892578125
2.7658447265625
2.6917236328125
2.570068359375
3.0421875
3.0405761718749997
3.0389648437499996
3.04541015625
3.0365478515624997
3.0389648437499996
1.12470703125
0.03544921875
0.033032226562499996
0.037060546874999996
0.03544921875
0.03544921875
0.03544921875
0.0346435546875
0.0346435546875
0.033837890625
0.0346435546875
0.03544921875
0.033032226562499996
0.03544921875
0.0314208984375
0.0314208984375
0.038671874999999994
0.0322265625
0.03544921875
0.0346435546875
0.030615234374999998
0.0362548828125
3.01962890625
3.0429931640624996
3.0405761718749997
3.0389648437499996
3.0421875
3.0421875
3.0429931640624996
3.0421875
3.0421875
2.979345703125
2.9011962890625
2.8593017578124997
2.7432861328125
2.586181640625
3.0421875
3.043798828125
3.0389648437499996
3.0405761718749997
3.0365478515624997
3.0413818359375
0.652587890625
0.0346435546875
0.03544921875
0.03544921875
0.033032226562499996
0.03544921875
0.0346435546875
0.0346435546875
0.033837890625
0.0346435546875
0.0362548828125
0.03544921875
0.0346435546875
0.0378662109375
0.0346435546875
0.0346435546875
0.033837890625
0.03544921875
0.03544921875
0.0346435546875
0.03544921875
0.03544921875
2.1591796875
3.0405761718749997
3.0405761718749997
3.0397705078125
3.0429931640624996
3.0405761718749997
3.0405761718749997
3.0421875
2.7626220703124997
3.0284912109374997
2.9366455078125
2.88427734375
2.7545654296874997
2.6103515625
3.037353515625
3.0397705078125
3.0405761718749997
3.0429931640624996
3.0405761718749997
3.0421875
2.76181640625
0.452783203125
0.033837890625
0.03544921875
0.03544921875
0.033032226562499996
0.03544921875
0.033837890625
0.0322265625
0.0346435546875
0.030615234374999998
0.0346435546875
0.033032226562499996
0.033837890625
0.037060546874999996
0.0346435546875
0.03544921875
0.033032226562499996
0.0346435546875
0.033837890625
0.037060546874999996
0.0362548828125
2.0560546875
3.0405761718749997
3.0413818359375
3.0413818359375
3.0397705078125
3.0405761718749997
3.0389648437499996
3.0397705078125
3.043798828125
2.811767578125
2.900390625
2.89716796875
2.7988769531249997
2.66513671875
2.582958984375
3.0429931640624996
3.0421875
3.0389648437499996
3.0397705078125
3.0421875
3.0421875
1.2608642578125
0.0322265625
0.0362548828125
0.0378662109375
0.033032226562499996
0.030615234374999998
0.03544921875
0.0346435546875
0.033837890625
0.033032226562499996
0.03544921875
0.033032226562499996
0.03544921875
0.0346435546875
0.0346435546875
0.0346435546875
0.0378662109375
0.0346435546875
0.033837890625
0.0322265625
0.03544921875
0.037060546874999996
3.0413818359375
3.0381591796875
3.0421875
3.0413818359375
3.0421875
3.0397705078125
3.043798828125
3.0413818359375
3.0389648437499996
2.9060302734374996
2.872998046875
2.827880859375
2.6296874999999997
2.5475097656249996
3.0381591796875
3.0389648437499996
3.0389648437499996
3.0397705078125
3.0357421875
3.0389648437499996
0.862060546875
0.0346435546875
0.0362548828125
0.03544921875
0.0346435546875
0.0346435546875
0.0314208984375
0.0346435546875
0.03544921875
0.0346435546875
0.0346435546875
0.03544921875
0.0346435546875
0.0346435546875
0.0362548828125
0.0346435546875
0.0346435546875
0.03544921875
0.0378662109375
0.03544921875
0.03544921875
0.033032226562499996
2.2880859375
3.0429931640624996
3.0413818359375
3.0413818359375
3.0381591796875
3.0413818359375
3.0381591796875
3.0405761718749997
2.9882080078124997
2.8657470703124996
2.9116699218749997
2.8689697265625
2.785986328125
2.640966796875
3.0397705078125
3.0397705078125
3.0397705078125
3.0381591796875
3.0421875
3.0365478515624997
2.9237548828124997
0.655810546875
0.0346435546875
0.0362548828125
0.03544921875
0.03544921875
0.03544921875
0.03544921875
0.033837890625
0.0322265625
0.0346435546875
0.0346435546875
0.0346435546875
0.0322265625
0.0314208984375
0.0346435546875
0.03544921875
0.033032226562499996
0.0346435546875
0.030615234374999998
0.0346435546875
0.033032226562499996
0.037060546874999996
3.0413818359375
3.0421875
3.0389648437499996
3.0397705078125
3.0421875
3.0421875
3.0413818359375
3.0405761718749997
3.0405761718749997
2.9285888671875
2.8673583984374997
2.76826171875
2.666748046875
2.54267578125
3.0429931640624996
3.0429931640624996
3.034130859375
3.0421875
3.0421875
3.0413818359375
1.09892578125
0.033837890625
0.0346435546875
0.0322265625
0.033837890625
0.0362548828125
0.03544921875
0.03544921875
0.03544921875
0.0346435546875
0.03544921875
0.033032226562499996
0.038671874999999994
0.037060546874999996
0.03544921875
0.0322265625
0.033837890625
0.03544921875
0.0346435546875
0.0346435546875
0.0346435546875
0.033032226562499996
2.9624267578124996
3.0397705078125
3.0421875
3.0381591796875
3.0421875
3.0413818359375
3.0405761718749997
3.0421875
2.802099609375
3.0059326171875
2.9479248046874997
2.8270751953124997
2.7287841796874996
2.6498291015624997
3.0421875
3.0397705078125
3.0389648437499996
3.0421875
3.0421875
3.0413818359375
0.9176513671875
0.0362548828125
0.03544921875
0.03544921875
0.037060546874999996
0.038671874999999994
0.0346435546875
0.0346435546875
0.033032226562499996
0.0346435546875
0.0346435546875
0.033837890625
0.03544921875
0.033032226562499996
0.0346435546875
0.0314208984375
0.03544921875
0.033032226562499996
0.033837890625
0.030615234374999998
0.0322265625
0.0346435546875
2.54267578125
3.04541015625
3.0405761718749997
3.0405761718749997
3.043798828125
3.0446044921874997
3.0397705078125
3.0413818359375
3.0462158203125
2.7884033203125
2.8689697265625
2.7988769531249997
2.7271728515625
2.6256591796874997
3.037353515625
3.0405761718749997
3.0397705078125
3.0413818359375
3.037353515625
3.0421875
3.0381591796875
0.0346435546875
0.0346435546875
0.03544921875
0.0378662109375
0.0362548828125
0.033837890625
0.0394775390625
0.0362548828125
0.0346435546875
0.0314208984375
0.0346435546875
0.0378662109375
0.0346435546875
0.0346435546875
0.03544921875
0.0346435546875
0.03544921875
0.0346435546875
0.0322265625
0.0346435546875
0.0346435546875
0.03544921875
3.0421875
3.0405761718749997
3.04541015625
3.0397705078125
3.037353515625
3.0397705078125
3.043798828125
3.0405761718749997
3.0413818359375
2.908447265625
2.8802490234375
2.8294921874999996
2.7005859374999996
2.6135742187499997
3.0405761718749997
3.0421875
3.0405761718749997
3.0405761718749997
3.0421875
3.0462158203125
0.7927734375
0.0346435546875
0.0298095703125
0.03544921875
0.0346435546875
0.0346435546875
0.030615234374999998
0.03544921875
0.0394775390625
0.03544921875
0.037060546874999996
0.033032226562499996
0.037060546874999996
0.0346435546875
0.0346435546875
0.0346435546875
0.0378662109375
0.0346435546875
0.0362548828125
0.0362548828125
0.037060546874999996
0.0378662109375
2.3791259765625
3.0381591796875
3.0462158203125
3.0446044921874997
3.0421875
3.0421875
3.0389648437499996
3.04541015625
2.8190185546874997
3.0091552734375
2.9334228515625
2.8560791015625
2.7416748046875
2.6441894531249996
3.0405761718749997
3.0462158203125
3.037353515625
3.0421875
3.0413818359375
3.0421875
1.045751953125
0.033837890625
0.0362548828125
0.033837890625
0.038671874999999994
0.0362548828125
0.03544921875
0.03544921875
0.0314208984375
0.0346435546875
0.03544921875
0.0362548828125
0.033837890625
0.03544921875
0.030615234374999998
0.0346435546875
0.0346435546875
0.033837890625
0.03544921875
0.0346435546875
0.037060546874999996
0.033837890625
2.6619140624999997
3.0429931640624996
3.0405761718749997
3.0405761718749997
3.0397705078125
3.0389648437499996
3.0389648437499996
3.0421875
3.037353515625
2.8738037109374996
2.91650390625
2.89072265625
2.7650390624999996
2.642578125
3.0421875
3.0446044921874997
3.0389648437499996
3.0413818359375
3.0405761718749997
3.0421875
1.0916748046875
0.15227050781249998
0.0346435546875
0.0362548828125
0.03544921875
0.03544921875
0.033837890625
0.03544921875
0.0394775390625
0.0475341796875
0.0378662109375
0.03544921875
0.03544921875
0.0322265625
0.033032226562499996
0.0378662109375
0.0346435546875
0.0362548828125
0.0346435546875
0.033837890625
0.03544921875
0.0346435546875
2.698974609375
3.0413818359375
3.0421875
3.0405761718749997
3.0421875
3.0381591796875
3.0421875
3.0421875
3.0478271484375
3.0421875
2.9124755859375
2.840771484375
2.792431640625
2.6925292968749996
2.931005859375
3.037353515625
3.0413818359375
3.0413818359375
3.0389648437499996
3.037353515625
3.0421875
0.889453125
0.033837890625
0.0346435546875
0.0378662109375
0.03544921875
0.033837890625
0.0362548828125
0.038671874999999994
0.0346435546875
0.03544921875
0.0362548828125
0.0322265625
0.03544921875
0.0346435546875
0.0346435546875
0.0378662109375
0.0346435546875
0.033032226562499996
0.033032226562499996
0.033837890625
0.0346435546875
0.0322265625
2.7287841796874996
3.037353515625
3.0389648437499996
3.0421875
3.0421875
3.0446044921874997
3.0421875
3.0421875
3.0405761718749997
2.995458984375
2.9479248046874997
2.8681640625
2.7465087890624997
2.618408203125
3.0397705078125
3.043798828125
3.0405761718749997
3.0405761718749997
3.043798828125
3.0421875
1.1609619140625
0.0314208984375
0.033837890625
0.03544921875
0.033032226562499996
0.0314208984375
0.03544921875
0.0346435546875
0.038671874999999994
0.03544921875
0.03544921875
0.0362548828125
0.0346435546875
0.03544921875
0.0346435546875
0.0322265625
0.0346435546875
0.037060546874999996
0.03544921875
0.0346435546875
0.0346435546875
0.0314208984375
2.9737060546875
3.0405761718749997
3.0405761718749997
3.0405761718749997
3.0429931640624996
3.0405761718749997
3.0421875
3.0421875
3.0252685546875
3.0389648437499996
2.89716796875
2.8375488281249996
2.7287841796874996
2.6103515625
3.0405761718749997
3.0405761718749997
3.0413818359375
3.0421875
3.043798828125
3.0421875
1.3583496093749998
0.03544921875
0.0362548828125
0.0346435546875
0.0362548828125
0.0346435546875
0.0362548828125
0.03544921875
0.0322265625
0.0322265625
0.03544921875
0.03544921875
0.0346435546875
0.0378662109375
0.0322265625
0.0378662109375
0.0346435546875
0.0378662109375
0.03544921875
0.033837890625
0.0346435546875
0.037060546874999996
2.26552734375
3.0413818359375
3.0429931640624996
3.043798828125
3.0421875
3.0413818359375
3.0421875
3.0413818359375
2.979345703125
2.8311035156249997
2.8770263671875
2.8367431640625
2.7062255859374997
2.599072265625
3.0397705078125
3.0421875
3.043798828125
3.0405761718749997
3.0413818359375
3.0365478515624997
1.641943359375
0.3544921875
0.033032226562499996
0.0322265625
0.03544921875
0.038671874999999994
0.037060546874999996
0.03544921875
0.0378662109375
0.0346435546875
0.038671874999999994
0.0378662109375
0.037060546874999996
0.0362548828125
0.033032226562499996
0.0362548828125
0.0346435546875
0.033837890625
0.0362548828125
0.03544921875
0.033837890625
0.0346435546875
2.305810546875
3.043798828125
3.0405761718749997
3.0421875
3.0429931640624996
3.037353515625
3.037353515625
3.0421875
2.98095703125
2.92939453125
2.9559814453124997
2.9068359375
2.760205078125
2.6788330078125
2.5644287109375
3.0421875
3.0389648437499996
3.0405761718749997
3.0421875
3.043798828125
3.0405761718749997
0.9514892578124999
0.033837890625
0.0362548828125
0.0346435546875
0.033837890625
0.03544921875
0.037060546874999996
0.03544921875
0.0346435546875
0.033837890625
0.03544921875
0.0346435546875
0.0314208984375
0.033837890625
0.038671874999999994
0.0346435546875
0.0362548828125
0.0346435546875
0.030615234374999998
0.0346435546875
0.03544921875
0.0362548828125
3.0421875
3.0389648437499996
3.0413818359375
3.0405761718749997
3.0381591796875
3.0381591796875
3.0413818359375
3.0421875
3.0397705078125
2.9116699218749997
2.8850830078125
2.8133789062499996
2.7263671874999997
2.602294921875
3.0421875
3.0405761718749997
3.0429931640624996
3.0413818359375
3.0405761718749997
3.0413818359375
1.0127197265624999
0.03544921875
0.03544921875
0.0322265625
0.03544921875
0.0346435546875
0.0322265625
0.0322265625
0.0346435546875
0.037060546874999996
0.038671874999999994
0.0346435546875
0.0346435546875
0.0362548828125
0.03544921875
0.033837890625
0.0378662109375
0.0362548828125
0.033032226562499996
0.03544921875
0.0346435546875
0.0346435546875
2.8770263671875
3.037353515625
3.043798828125
3.0421875
3.0413818359375
3.0421875
3.0429931640624996
3.0429931640624996
3.0421875
2.921337890625
2.9076416015624997
2.840771484375
2.6885009765624996
2.5885986328125
3.0397705078125
3.0429931640624996
3.0365478515624997
3.0429931640624996
3.0405761718749997
3.0397705078125
0.984521484375
0.038671874999999994
0.0346435546875
0.0314208984375
0.033032226562499996
0.0378662109375
0.0322265625
0.0362548828125
0.033032226562499996
0.0322265625
0.0314208984375
0.033032226562499996
0.0322265625
0.03544921875
0.033032226562499996
0.0346435546875
0.0314208984375
0.0362548828125
0.03544921875
0.0322265625
0.040283203125
0.0346435546875
2.18818359375
3.0421875
3.0421875
3.0446044921874997
3.0421875
3.0421875
3.0405761718749997
3.0405761718749997
3.0421875
3.003515625
2.9156982421874997
2.8375488281249996
2.737646484375
2.6466064453125
3.0389648437499996
3.0405761718749997
3.0405761718749997
3.0389648437499996
3.0389648437499996
3.0405761718749997
2.3952392578125
0.0314208984375
0.0346435546875
0.03544921875
0.033032226562499996
0.0346435546875
0.0322265625
0.0362548828125
0.03544921875
0.0362548828125
0.0346435546875
0.0322265625
0.0346435546875
0.03544921875
0.0362548828125
0.03544921875
0.0362548828125
0.0314208984375
0.03544921875
0.033032226562499996
0.0362548828125
0.03544921875
3.0405761718749997
3.0405761718749997
3.0429931640624996
3.0405761718749997
3.043798828125
3.0397705078125
3.0405761718749997
3.0413818359375
2.6232421875
2.8866943359375
2.914892578125
2.8874999999999997
2.8157958984375
2.6876953125
3.0413818359375
3.0405761718749997
3.0413818359375
3.0389648437499996
3.0381591796875
3.0405761718749997
3.0268798828124996
0.6260009765625
0.0322265625
0.0378662109375
0.037060546874999996
0.03544921875
0.0314208984375
0.0346435546875
0.03544921875
0.033032226562499996
0.026586914062499998
0.033837890625
0.03544921875
0.0362548828125
0.0314208984375
0.03544921875
0.0314208984375
0.033032226562499996
0.0362548828125
0.038671874999999994
0.0346435546875
0.03544921875
1.41796875
2.9455078125
3.0405761718749997
3.037353515625
3.0421875
3.0389648437499996
3.0405761718749997
3.0413818359375
3.0405761718749997
2.834326171875
2.9390625
2.9020019531249996
2.8012939453124996
2.698974609375
2.5966552734375
3.0405761718749997
3.0429931640624996
3.0389648437499996
3.0397705078125
3.0413818359375
3.0429931640624996
1.110205078125
0.0362548828125
0.0362548828125
0.03544921875
0.0346435546875
0.03544921875
0.0346435546875
0.0346435546875
0.03544921875
0.033837890625
0.033837890625
0.0362548828125
0.0346435546875
0.0322265625
0.0346435546875
0.0346435546875
0.033032226562499996
0.038671874999999994
0.0346435546875
0.0394775390625
0.0346435546875
0.0362548828125
2.9205322265625
3.0413818359375
3.0397705078125
3.0405761718749997
3.0389648437499996
3.0405761718749997
3.0397705078125
3.0421875
2.824658203125
2.9124755859375
2.9036132812499997
2.8069335937499997
2.6860839843749997
2.5483154296875
3.0421875
3.0381591796875
3.0381591796875
3.0429931640624996
3.0389648437499996
3.0421875
1.02158203125
0.037060546874999996
0.038671874999999994
0.03544921875
0.03544921875
0.0322265625
0.03544921875
0.037060546874999996
0.0346435546875
0.03544921875
0.033837890625
0.0322265625
0.0346435546875
0.0346435546875
0.03544921875
0.030615234374999998
0.0346435546875
0.03544921875
0.0346435546875
0.0346435546875
0.0346435546875
0.0346435546875
2.3791259765625
3.0405761718749997
3.0397705078125
3.0397705078125
3.0421875
3.04541015625
3.043798828125
3.0397705078125
3.043798828125
2.9277832031249997
2.91650390625
2.85205078125
2.753759765625
2.6216308593749997
3.0421875
3.0413818359375
3.0381591796875
3.0413818359375
3.0429931640624996
3.0429931640624996
2.769873046875
0.0362548828125
0.037060546874999996
0.0378662109375
0.038671874999999994
0.0322265625
0.0362548828125
0.03544921875
0.0346435546875
0.03544921875
0.0378662109375
0.033837890625
0.0346435546875
0.033837890625
0.0378662109375
0.0378662109375
0.0346435546875
0.0314208984375
0.033837890625
0.0314208984375
0.0362548828125
0.033837890625
2.338037109375
3.0421875
3.0413818359375
3.0421875
3.0421875
3.0446044921874997
3.043798828125
3.0413818359375
3.029296875
3.0421875
2.9076416015624997
2.8447998046875
2.78759765625
2.5966552734375
3.0421875
3.0421875
3.0429931640624996
3.043798828125
3.043798828125
3.04541015625
2.9205322265625
0.77666015625
0.04189453125
0.0378662109375
0.040283203125
0.0394775390625
0.040283203125
0.0362548828125
0.040283203125
0.040283203125
0.040283203125
0.040283203125
0.0443115234375
0.041088867187499996
0.040283203125
0.041088867187499996
0.0378662109375
0.0459228515625
0.042700195312499994
0.0459228515625
0.041088867187499996
0.042700195312499994
0.038671874999999994
2.972900390625
3.053466796875
3.050244140625
3.0510498046874996
3.0526611328124997
3.0542724609375
3.05185546875
3.0526611328124997
3.05830078125
2.9583984374999996
2.9785400390624996
2.8802490234375
2.6876953125
2.5338134765625
3.0558837890625
3.0591064453124996
3.0542724609375
3.0542724609375
3.0566894531249997
3.0591064453124996
1.1416259765624999
0.057202148437499996
0.050756835937499994
0.045117187499999996
0.0475341796875
0.04833984375
0.0515625
0.049951171875
0.049951171875
0.0459228515625
0.041088867187499996
0.0443115234375
0.0346435546875
0.0394775390625
0.03544921875
0.0394775390625
0.04189453125
0.0378662109375
0.041088867187499996
0.033837890625
0.033837890625
0.037060546874999996
2.9503417968749996
3.0429931640624996
3.0413818359375
3.043798828125
3.0413818359375
3.0405761718749997
3.0413818359375
3.043798828125
2.811767578125
3.0002929687499997
2.9100585937499996
2.827880859375
2.698974609375
2.6449951171875
3.043798828125
3.0421875
3.0429931640624996
3.0397705078125
3.037353515625
3.0421875
1.155322265625
0.0362548828125
0.0362548828125
0.0394775390625
0.0378662109375
0.0322265625
0.03544921875
0.03544921875
0.037060546874999996
0.0362548828125
0.033032226562499996
0.03544921875
0.0346435546875
0.03544921875
0.03544921875
0.03544921875
0.0394775390625
0.0346435546875
0.033837890625
0.0362548828125
0.03544921875
0.03544921875
2.4967529296874997
3.0389648437499996
3.0413818359375
3.037353515625
3.0413818359375
3.0413818359375
3.0413818359375
3.0405761718749997
3.0413818359375
2.9865966796874996
2.8625244140625
2.856884765625
2.7344238281249997
2.631298828125
3.0389648437499996
3.0413818359375
3.0389648437499996
3.043798828125
3.0421875
3.0389648437499996
1.1408203125
0.033837890625
0.0322265625
0.0362548828125
0.03544921875
0.0362548828125
0.03544921875
0.038671874999999994
0.033032226562499996
0.0362548828125
0.037060546874999996
0.0346435546875
0.0346435546875
0.033032226562499996
0.0346435546875
0.046728515624999994
0.03544921875
0.0346435546875
0.033837890625
0.0346435546875
0.0322265625
0.0346435546875
2.6949462890625
3.0462158203125
3.0389648437499996
3.0397705078125
3.0413818359375
3.0405761718749997
3.0397705078125
3.0421875
3.0397705078125
2.78759765625
2.898779296875
2.8174072265624996
2.689306640625
2.6272705078125
2.9503417968749996
3.0421875
3.0397705078125
3.0389648437499996
3.0397705078125
3.0405761718749997
3.043798828125
0.0523681640625
0.03544921875
0.0378662109375
0.0346435546875
0.03544921875
0.0362548828125
0.03544921875
0.0394775390625
0.038671874999999994
0.033837890625
0.0378662109375
0.03544921875
0.0346435546875
0.0322265625
0.037060546874999996
0.0362548828125
0.0346435546875
0.03544921875
0.033837890625
0.03544921875
0.030615234374999998
3.034130859375
3.0389648437499996
3.037353515625
3.0429931640624996
3.0429931640624996
3.043798828125
3.0397705078125
3.0397705078125
3.0421875
3.0405761718749997
2.979345703125
2.8802490234375
2.8166015625
2.727978515625
2.8174072265624996
3.0405761718749997
3.0421875
3.0405761718749997
3.0413818359375
3.0413818359375
3.0397705078125
0.7645751953125
0.038671874999999994
0.03544921875
0.037060546874999996
0.033837890625
0.037060546874999996
0.0362548828125
0.03544921875
0.033837890625
0.03544921875
0.0362548828125
0.0346435546875
0.0346435546875
0.0346435546875
0.033032226562499996
0.0346435546875
0.0346435546875
0.0378662109375
0.0346435546875
0.03544921875
0.0346435546875
0.0378662109375
2.771484375
3.0413818359375
3.0421875
3.0421875
3.0421875
3.0413818359375
3.0413818359375
3.0389648437499996
3.0381591796875
2.9060302734374996
2.9366455078125
2.8593017578124997
2.744091796875
2.60712890625
3.0413818359375
3.0413818359375
3.0397705078125
3.0397705078125
3.0389648437499996
3.0421875
0.9337646484375
0.033032226562499996
0.033837890625
0.0314208984375
0.033032226562499996
0.0346435546875
0.03544921875
0.0346435546875
0.0346435546875
0.03544921875
0.0314208984375
0.033837890625
0.033837890625
0.03544921875
0.0346435546875
0.0394775390625
0.0314208984375
0.0346435546875
0.0346435546875
0.033837890625
0.03544921875
0.0346435546875
2.0407470703125
3.043798828125
3.0397705078125
3.0421875
3.0429931640624996
3.0413818359375
3.0421875
3.0413818359375
3.0397705078125
3.0397705078125
2.96162109375
2.9028076171875
2.7932373046874996
2.6739990234374997
3.0405761718749997
3.0397705078125
3.0413818359375
3.0421875
3.0421875
3.0421875
1.6427490234375
0.038671874999999994
0.0346435546875
0.02900390625
0.0346435546875
0.0314208984375
0.033032226562499996
0.037060546874999996
0.038671874999999994
0.03544921875
0.037060546874999996
0.0346435546875
0.0346435546875
0.038671874999999994
0.033837890625
0.0346435546875
0.033032226562499996
0.0362548828125
0.03544921875
0.0378662109375
0.03544921875
0.0346435546875
2.1406494140625
3.0421875
3.0381591796875
3.0421875
3.0397705078125
3.0405761718749997
3.0397705078125
3.0421875
2.8391601562499997
2.8794433593749997
2.9334228515625
2.924560546875
2.7706787109374997
2.666748046875
3.0405761718749997
3.0397705078125
3.0421875
3.0405761718749997
3.0381591796875
3.0397705078125
2.309033203125
0.124072265625
0.03544921875
0.0346435546875
0.0281982421875
0.03544921875
0.0346435546875
0.0346435546875
0.03544921875
0.03544921875
0.0346435546875
0.033837890625
0.0322265625
0.030615234374999998
0.0346435546875
0.03544921875
0.033837890625
0.03544921875
0.03544921875
0.03544921875
0.03544921875
0.0378662109375
0.0362548828125
3.0091552734375
3.0397705078125
3.043798828125
3.0413818359375
3.043798828125
3.0397705078125
3.0421875
3.0429931640624996
2.9156982421874997
3.0002929687499997
2.8947509765625
2.78759765625
2.7183105468749997
2.6401611328124996
3.0397705078125
3.0421875
3.0405761718749997
3.0357421875
3.0405761718749997
3.0405761718749997
0.9434326171874999
0.0346435546875
0.0362548828125
0.0346435546875
0.0378662109375
0.033837890625
0.03544921875
0.0346435546875
0.03544921875
0.033837890625
0.033032226562499996
0.033837890625
0.03544921875
0.046728515624999994
0.0362548828125
0.040283203125
0.03544921875
0.0322265625
0.033837890625
0.03544921875
0.030615234374999998
0.03544921875
3.0397705078125
3.0405761718749997
3.0421875
3.0421875
3.0405761718749997
3.0421875
3.0413818359375
3.0365478515624997
3.0397705078125
2.953564453125
2.9841796874999997
2.8367431640625
2.779541015625
2.65869140625
3.0405761718749997
3.0397705078125
3.0389648437499996
3.0421875
3.0381591796875
3.0389648437499996
0.6292236328124999
0.0322265625
0.0346435546875
0.03544921875
0.033032226562499996
0.0322265625
0.0346435546875
0.033032226562499996
0.0346435546875
0.0346435546875
0.033837890625
0.0346435546875
0.0314208984375
0.0346435546875
0.0346435546875
0.0362548828125
0.0346435546875
0.03544921875
0.030615234374999998
0.0322265625
0.0346435546875
0.03544921875
2.45888671875
3.0421875
3.0421875
3.0413818359375
3.0405761718749997
3.0397705078125
3.0446044921874997
3.0397705078125
3.0413818359375
3.0043212890624997
2.9583984374999996
2.937451171875
2.8657470703124996
2.731201171875
3.0413818359375
3.0486328124999997
3.0381591796875
3.0357421875
3.0413818359375
3.0413818359375
0.6098876953125
0.0346435546875
0.0346435546875
0.0346435546875
0.033032226562499996
0.0314208984375
0.033837890625
0.0346435546875
0.03544921875
0.0362548828125
0.0346435546875
0.038671874999999994
0.0322265625
0.033837890625
0.0378662109375
0.0362548828125
0.0346435546875
0.033837890625
0.0322265625
0.0346435546875
0.03544921875
0.0314208984375
2.5998779296874996
3.0413818359375
3.0413818359375
3.043798828125
3.0397705078125
3.0413818359375
3.0429931640624996
3.0405761718749997
2.7730957031249996
2.96162109375
2.96484375
2.9181152343749996
2.784375
2.6788330078125
3.0397705078125
3.0381591796875
3.0421875
3.043798828125
3.0397705078125
3.0405761718749997
3.0413818359375
0.44794921875
0.037060546874999996
0.0314208984375
0.030615234374999998
0.0346435546875
0.033837890625
0.03544921875
0.0346435546875
0.03544921875
0.0322265625
0.0346435546875
0.033032226562499996
0.03544921875
0.033032226562499996
0.030615234374999998
0.0346435546875
0.0346435546875
0.03544921875
0.0346435546875
0.0378662109375
0.033837890625
0.038671874999999994
3.0413818359375
3.0389648437499996
3.04541015625
3.0365478515624997
3.0413818359375
3.0397705078125
3.0446044921874997
2.9326171875
3.037353515625
3.0244628906249997
3.0317138671875
2.9334228515625
2.8399658203125
2.711865234375
3.0405761718749997
3.04541015625
3.0397705078125
3.0413818359375
3.0397705078125
3.0397705078125
0.4278076171875
0.0394775390625
0.0346435546875
0.037060546874999996
0.0362548828125
0.03544921875
0.033032226562499996
0.0362548828125
0.0362548828125
0.0346435546875
0.0378662109375
0.033837890625
0.033032226562499996
0.033837890625
0.033837890625
0.0346435546875
0.0314208984375
0.0362548828125
0.03544921875
0.038671874999999994
0.03544921875
0.0346435546875
2.8560791015625
3.0389648437499996
3.0405761718749997
3.0405761718749997
3.0421875
3.037353515625
3.0389648437499996
3.0421875
2.7948486328124997
3.0381591796875
3.0309082031249996
2.9036132812499997
2.8206298828125
2.7239501953125
3.0389648437499996
3.0389648437499996
3.0421875
3.037353515625
3.0389648437499996
3.0405761718749997
1.018359375
0.03544921875
0.03544921875
0.0346435546875
0.03544921875
0.0314208984375
0.0378662109375
0.037060546874999996
0.0362548828125
0.033032226562499996
0.033837890625
0.03544921875
0.033032226562499996
0.03544921875
0.033032226562499996
0.033837890625
0.0298095703125
0.033032226562499996
0.0346435546875
0.0346435546875
0.033837890625
0.037060546874999996
2.031884765625
3.043798828125
3.0381591796875
3.0405761718749997
3.0405761718749997
3.0421875
3.0413818359375
3.0397705078125
3.0405761718749997
3.0389648437499996
2.9745117187499996
2.9318115234374997
2.8166015625
2.760205078125
3.0429931640624996
3.0413818359375
3.0405761718749997
3.0405761718749997
3.0429931640624996
3.0413818359375
0.752490234375
0.0346435546875
0.0346435546875
0.0378662109375
0.03544921875
0.033032226562499996
0.037060546874999996
0.0394775390625
0.0362548828125
0.033837890625
0.033837890625
0.0346435546875
0.0346435546875
0.030615234374999998
0.03544921875
0.033032226562499996
0.033032226562499996
0.03544921875
0.0322265625
0.0346435546875
0.03544921875
0.0298095703125
2.62646484375
3.043798828125
3.0413818359375
3.0397705078125
3.0381591796875
3.0389648437499996
3.0421875
3.0397705078125
3.0389648437499996
2.89072265625
3.0405761718749997
3.011572265625
2.88427734375
2.8294921874999996
3.0389648437499996
3.0389648437499996
3.0397705078125
3.0405761718749997
3.0405761718749997
3.0389648437499996
3.0405761718749997
0.0346435546875
0.033837890625
0.03544921875
0.03544921875
0.03544921875
0.0322265625
0.030615234374999998
0.0378662109375
0.0362548828125
0.033032226562499996
0.0346435546875
0.03544921875
0.03544921875
0.030615234374999998
0.033837890625
0.0362548828125
0.033837890625
0.033032226562499996
0.0322265625
