1.232666015625
0.02900390625
0.02578125
0.02900390625
0.030615234374999998
0.027392578124999997
0.0281982421875
0.027392578124999997
0.0281982421875
0.026586914062499998
0.0298095703125
0.027392578124999997
0.027392578124999997
0.1297119140625
0.02900390625
0.0281982421875
0.0281982421875
0.027392578124999997
0.0281982421875
0.0281982421875
0.02900390625
2.9068359375
3.0325195312499997
3.0325195312499997
3.0301025390625
3.0325195312499997
2.8705810546875
3.0357421875
3.0317138671875
2.96484375
2.727978515625
2.6852783203125
2.5789306640625
2.42666015625
2.3404541015625
2.20751953125
3.0357421875
3.0333251953125
3.0325195312499997
3.0349365234374996
3.0325195312499997
3.0349365234374996
1.6072998046875
0.030615234374999998
0.0322265625
0.0281982421875
0.0281982421875
0.02900390625
0.0281982421875
0.024169921875
0.0281982421875
0.030615234374999998
0.02900390625
0.02578125
0.02900390625
0.0314208984375
0.02900390625
0.0249755859375
0.027392578124999997
0.027392578124999997
0.0322265625
0.030615234374999998
0.0281982421875
1.9956298828124999
3.0325195312499997
3.0333251953125
3.0357421875
3.0333251953125
3.0325195312499997
3.0333251953125
2.9994873046875
2.9334228515625
2.7207275390624996
2.624853515625
2.544287109375
2.4081298828124997
2.241357421875
2.1922119140625
3.0365478515624997
3.037353515625
3.029296875
3.0333251953125
3.0333251953125
3.0333251953125
1.72734375
0.165966796875
0.027392578124999997
0.02900390625
0.027392578124999997
0.0314208984375
0.026586914062499998
0.02900390625
0.030615234374999998
0.02578125
0.0281982421875
0.02900390625
0.02900390625
0.026586914062499998
0.0797607421875
0.0281982421875
0.0298095703125
0.0281982421875
0.0281982421875
0.0281982421875
0.027392578124999997
2.0504150390625
3.0325195312499997
3.0325195312499997
3.0333251953125
3.034130859375
3.034130859375
3.034130859375
2.9906249999999996
2.9011962890625
3.034130859375
2.6498291015624997
2.5660400390625
2.43955078125
2.3146728515625
2.1865722656249997
3.034130859375
3.0357421875
3.0325195312499997
3.034130859375
3.0333251953125
3.0317138671875
1.7184814453125
0.781494140625
0.0322265625
0.02900390625
0.0249755859375
0.027392578124999997
0.033032226562499996
0.0281982421875
0.0281982421875
0.02578125
0.027392578124999997
0.0249755859375
0.0281982421875
0.030615234374999998
0.027392578124999997
0.0298095703125
0.027392578124999997
0.0249755859375
0.0281982421875
0.027392578124999997
0.0314208984375
0.0322265625
3.0309082031249996
3.0309082031249996
3.0349365234374996
3.0365478515624997
3.0333251953125
3.0389648437499996
2.9100585937499996
2.9181152343749996
3.034130859375
2.7078369140625
2.5491210937499997
1.687060546875
2.1325927734375
2.08828125
3.003515625
3.0325195312499997
3.0333251953125
3.034130859375
3.0301025390625
3.0357421875
2.75537109375
1.4123291015625
0.0281982421875
0.0281982421875
0.027392578124999997
0.0298095703125
0.0249755859375
0.0298095703125
0.030615234374999998
0.0281982421875
0.027392578124999997
0.0281982421875
0.024169921875
0.064453125
0.0708984375
0.0314208984375
0.02900390625
0.026586914062499998
0.0281982421875
0.0281982421875
0.027392578124999997
0.027392578124999997
2.4685546874999997
3.034130859375
3.034130859375
3.0333251953125
3.034130859375
3.0333251953125
3.0325195312499997
3.0325195312499997
2.8915283203124997
2.8786376953125
2.615185546875
2.4806396484374997
2.402490234375
2.2429687499999997
2.6683593749999996
3.0333251953125
3.0333251953125
3.0333251953125
3.0309082031249996
3.034130859375
3.0309082031249996
1.4308593749999998
0.0281982421875
0.02900390625
0.027392578124999997
0.02900390625
0.027392578124999997
0.0281982421875
0.02578125
0.02578125
0.059619140625
0.026586914062499998
0.026586914062499998
0.0281982421875
0.06606445312499999
0.0281982421875
0.026586914062499998
0.027392578124999997
0.02900390625
0.027392578124999997
0.0281982421875
0.024169921875
2.3799316406249997
3.034130859375
3.0333251953125
3.0325195312499997
3.0333251953125
3.0325195312499997
3.0333251953125
3.0325195312499997
2.9688720703125
2.72314453125
2.6820556640624997
2.608740234375
2.4749999999999996
2.338037109375
2.2018798828125
3.0349365234374996
3.0349365234374996
3.0317138671875
3.034130859375
3.034130859375
3.0357421875
1.6322753906249998
0.4922607421875
0.026586914062499998
0.030615234374999998
0.026586914062499998
0.024169921875
0.0281982421875
0.027392578124999997
0.0249755859375
0.027392578124999997
0.0281982421875
0.0281982421875
0.0281982421875
0.030615234374999998
0.0459228515625
0.0281982421875
0.02578125
0.026586914062499998
0.0281982421875
0.027392578124999997
0.0281982421875
1.5992431640625
3.0325195312499997
3.0349365234374996
3.0349365234374996
3.034130859375
3.0357421875
3.0309082031249996
3.0309082031249996
2.8512451171874997
2.5877929687499996
2.6611083984375
2.544287109375
2.415380859375
2.3468994140625
2.1720703125
3.0365478515624997
3.0349365234374996
3.0325195312499997
3.0365478515624997
3.0349365234374996
3.0357421875
2.075390625
0.6517822265625
0.0314208984375
0.027392578124999997
0.0281982421875
0.027392578124999997
0.0281982421875
0.0281982421875
0.0281982421875
0.0281982421875
0.02900390625
0.0281982421875
0.026586914062499998
0.0580078125
0.057202148437499996
0.0281982421875
0.02578125
0.0298095703125
0.027392578124999997
0.030615234374999998
0.0281982421875
0.02578125
3.037353515625
3.0333251953125
3.0349365234374996
3.0309082031249996
3.034130859375
3.034130859375
3.029296875
3.034130859375
2.753759765625
2.62646484375
2.6296874999999997
2.534619140625
2.4298828125
2.204296875
3.0333251953125
3.034130859375
3.0357421875
3.034130859375
3.037353515625
3.0333251953125
2.466943359375
1.1335693359374999
0.0298095703125
0.0298095703125
0.027392578124999997
0.02900390625
0.02578125
0.030615234374999998
0.0281982421875
0.027392578124999997
0.51884765625
0.0298095703125
0.033032226562499996
0.0281982421875
0.0298095703125
0.0322265625
0.030615234374999998
0.02900390625
0.026586914062499998
0.0281982421875
0.0281982421875
0.0281982421875
2.7610107421874996
3.0349365234374996
3.0349365234374996
3.0325195312499997
3.034130859375
3.0325195312499997
3.034130859375
3.0204345703124997
2.9390625
2.6603027343749996
2.6627197265625
2.5813476562499997
2.3630126953125
2.2872802734374997
2.1551513671875
3.037353515625
3.0365478515624997
3.0325195312499997
3.034130859375
3.034130859375
3.0325195312499997
1.5355957031249998
0.0281982421875
0.02578125
0.02578125
0.0322265625
0.02900390625
0.027392578124999997
0.030615234374999998
0.0281982421875
0.0298095703125
0.02900390625
0.027392578124999997
0.027392578124999997
0.0515625
0.02900390625
0.02900390625
0.0314208984375
0.027392578124999997
0.0281982421875
0.0281982421875
0.0322265625
1.8232177734375
3.0349365234374996
3.0309082031249996
3.0333251953125
3.034130859375
3.0333251953125
3.0333251953125
3.0325195312499997
2.9495361328125
2.8166015625
2.711865234375
2.5950439453125
2.4194091796875
2.50400390625
2.305810546875
3.0349365234374996
3.0333251953125
3.0309082031249996
3.034130859375
3.0365478515624997
3.037353515625
1.5122314453124999
0.17482910156249998
0.0281982421875
0.026586914062499998
0.026586914062499998
0.0281982421875
0.027392578124999997
0.026586914062499998
0.02900390625
0.027392578124999997
0.02578125
0.0281982421875
0.02578125
0.0298095703125
0.0281982421875
0.026586914062499998
0.024169921875
0.027392578124999997
0.026586914062499998
0.02900390625
0.027392578124999997
1.76279296875
3.0365478515624997
3.0349365234374996
3.034130859375
3.0357421875
3.0333251953125
3.0333251953125
3.0309082031249996
2.9479248046874997
3.0309082031249996
2.6852783203125
2.618408203125
2.528173828125
2.4169921875
2.2018798828125
3.0325195312499997
3.034130859375
3.0333251953125
3.0317138671875
3.0365478515624997
3.034130859375
1.7499023437499999
0.7565185546875
0.0314208984375
0.0298095703125
0.0298095703125
0.0281982421875
0.0281982421875
0.0281982421875
0.02578125
0.0322265625
0.0314208984375
0.030615234374999998
0.02900390625
0.0298095703125
0.0668701171875
0.030615234374999998
0.0281982421875
0.0314208984375
0.0281982421875
0.0322265625
0.0281982421875
0.0314208984375
3.0349365234374996
3.0333251953125
3.0349365234374996
3.0333251953125
3.0325195312499997
3.0349365234374996
2.9543701171874996
2.9414794921875
3.001904296875
2.6860839843749997
2.5805419921875
2.4548583984375
2.2953369140624997
2.2276611328125
3.0325195312499997
3.0357421875
3.0333251953125
3.0333251953125
3.0357421875
3.0365478515624997
2.7996826171875
1.40185546875
0.0281982421875
0.0322265625
0.02578125
0.0281982421875
0.02900390625
0.030615234374999998
0.0281982421875
0.027392578124999997
0.02578125
0.026586914062499998
0.030615234374999998
0.0314208984375
0.033032226562499996
0.030615234374999998
0.027392578124999997
0.024169921875
0.026586914062499998
0.0298095703125
0.02578125
0.0322265625
2.47177734375
3.0365478515624997
3.0357421875
3.0333251953125
3.0357421875
3.034130859375
3.0325195312499997
2.9922363281249997
2.872998046875
2.8037109375
2.6176025390624997
2.5354248046874996
2.40732421875
2.2985595703125
2.9189208984375
3.034130859375
3.0325195312499997
3.0325195312499997
3.034130859375
3.0309082031249996
3.0317138671875
1.3333740234375
0.024169921875
0.0322265625
0.0281982421875
0.027392578124999997
0.0249755859375
0.027392578124999997
0.027392578124999997
0.027392578124999997
0.027392578124999997
0.0281982421875
0.0281982421875
0.0281982421875
0.13615722656249998
0.0249755859375
0.026586914062499998
0.027392578124999997
0.02900390625
0.02900390625
0.026586914062499998
0.0281982421875
2.14951171875
3.0365478515624997
3.0325195312499997
3.0333251953125
3.0309082031249996
3.0365478515624997
3.0325195312499997
2.9946533203124996
2.977734375
2.6055175781249997
2.65546875
2.5338134765625
2.39443359375
2.2107421874999997
2.08505859375
3.037353515625
3.0317138671875
3.0325195312499997
3.0333251953125
3.0333251953125
3.0333251953125
1.6475830078125
0.4125
0.0281982421875
0.0281982421875
0.027392578124999997
0.026586914062499998
0.0281982421875
0.026586914062499998
0.0298095703125
0.0281982421875
0.0281982421875
0.02900390625
0.02900390625
0.07412109374999999
0.08137207031249999
0.0281982421875
0.026586914062499998
0.02900390625
0.02900390625
0.02900390625
0.027392578124999997
0.9893554687499999
3.0333251953125
3.0357421875
3.034130859375
3.0333251953125
3.034130859375
3.0349365234374996
3.029296875
3.011572265625
3.0325195312499997
2.7094482421875
2.5724853515625
2.3662353515625
2.2623046875
2.1221191406249997
3.0284912109374997
3.0325195312499997
3.0381591796875
3.034130859375
3.0349365234374996
3.0325195312499997
2.1712646484375
0.51884765625
0.0281982421875
0.0298095703125
0.02578125
0.027392578124999997
0.02900390625
0.027392578124999997
0.0314208984375
0.027392578124999997
0.02578125
0.0281982421875
0.0281982421875
0.059619140625
0.11843261718749999
0.027392578124999997
0.02900390625
0.02900390625
0.027392578124999997
0.0281982421875
0.0249755859375
0.027392578124999997
3.034130859375
3.0349365234374996
3.0317138671875
3.0349365234374996
3.0357421875
3.0309082031249996
3.0309082031249996
2.979345703125
2.86494140625
2.66513671875
2.6522460937499996
2.55234375
2.4169921875
2.2880859375
3.0325195312499997
3.034130859375
3.037353515625
3.034130859375
3.0309082031249996
3.0325195312499997
2.5193115234374996
1.071533203125
0.027392578124999997
0.0281982421875
0.0314208984375
0.026586914062499998
0.0249755859375
0.027392578124999997
0.0281982421875
0.027392578124999997
0.02900390625
0.0298095703125
0.026586914062499998
0.09748535156249999
0.0829833984375
0.027392578124999997
0.030615234374999998
0.0281982421875
0.0249755859375
0.0281982421875
0.027392578124999997
0.0322265625
2.9342285156249996
3.034130859375
3.029296875
3.0325195312499997
3.0333251953125
3.034130859375
3.0309082031249996
3.0325195312499997
2.9430908203125
2.634521484375
2.6804443359374996
2.5845703125
2.4355224609375
2.338037109375
2.2349121093749997
3.0357421875
3.034130859375
3.034130859375
3.0333251953125
3.0333251953125
3.0075439453125
1.458251953125
0.069287109375
0.027392578124999997
0.0281982421875
0.02900390625
0.026586914062499998
0.026586914062499998
0.0281982421875
0.0281982421875
0.0281982421875
0.024169921875
0.026586914062499998
0.02578125
0.0281982421875
0.027392578124999997
0.02900390625
0.0314208984375
0.0314208984375
0.0249755859375
0.02900390625
0.0298095703125
1.8369140625
3.0317138671875
3.0333251953125
3.034130859375
3.0333251953125
3.034130859375
3.034130859375
3.0252685546875
2.931005859375
2.808544921875
2.7030029296875
2.5241455078125
2.3291748046875
2.225244140625
2.0898925781249997
3.0357421875
3.034130859375
3.034130859375
3.0357421875
3.0325195312499997
3.034130859375
1.6346923828125
0.1699951171875
0.02578125
0.02900390625
0.027392578124999997
0.027392578124999997
0.0314208984375
0.0281982421875
0.02900390625
0.024169921875
0.026586914062499998
0.023364257812499997
0.0281982421875
0.041088867187499996
0.02578125
0.027392578124999997
0.0281982421875
0.027392578124999997
0.027392578124999997
0.023364257812499997
0.027392578124999997
1.74345703125
3.0301025390625
3.0333251953125
3.0309082031249996
3.0357421875
3.0309082031249996
3.0357421875
3.0284912109374997
2.9261718749999996
3.01962890625
2.6466064453125
2.5628173828125
2.4766113281249997
2.3114501953124997
2.225244140625
3.034130859375
3.034130859375
3.0357421875
3.0325195312499997
3.034130859375
3.0325195312499997
1.7490966796874998
0.7694091796875
0.0249755859375
0.024169921875
0.0281982421875
0.0314208984375
0.0298095703125
0.027392578124999997
0.0314208984375
0.0322265625
0.0298095703125
0.0298095703125
0.0523681640625
0.030615234374999998
0.1458251953125
0.0281982421875
0.030615234374999998
0.0281982421875
0.027392578124999997
0.023364257812499997
0.0281982421875
0.02900390625
3.0325195312499997
3.0333251953125
3.0333251953125
3.0389648437499996
3.0317138671875
3.0325195312499997
3.0309082031249996
3.0091552734375
3.0309082031249996
2.7666503906249997
2.6780273437499997
2.5652343749999997
2.4113525390625
2.2792236328124997
3.0357421875
3.034130859375
3.0333251953125
3.0325195312499997
3.0317138671875
3.034130859375
2.744091796875
1.3285400390625
0.033032226562499996
0.027392578124999997
0.0281982421875
0.0298095703125
0.02900390625
0.0281982421875
0.02900390625
0.02900390625
0.02578125
0.026586914062499998
0.02900390625
0.033032226562499996
0.042700195312499994
0.02900390625
0.0249755859375
0.0298095703125
0.02900390625
0.027392578124999997
0.027392578124999997
0.0281982421875
2.357373046875
3.0333251953125
3.034130859375
3.0357421875
3.0357421875
3.034130859375
3.034130859375
2.9986816406249996
2.866552734375
2.8705810546875
2.7030029296875
2.6047119140625
2.4838623046875
2.3130615234375
3.034130859375
3.0389648437499996
3.0349365234374996
3.0357421875
3.034130859375
3.0357421875
3.0357421875
1.3365966796875
0.02900390625
0.027392578124999997
0.0281982421875
0.027392578124999997
0.030615234374999998
0.026586914062499998
0.0281982421875
0.027392578124999997
0.024169921875
0.02900390625
0.0298095703125
0.0475341796875
0.09829101562499999
0.0281982421875
0.0281982421875
0.027392578124999997
0.0314208984375
0.023364257812499997
0.0314208984375
0.030615234374999998
2.3501220703125
3.0325195312499997
3.0333251953125
3.0365478515624997
3.0325195312499997
3.0309082031249996
3.034130859375
2.9906249999999996
2.9600097656249997
2.9020019531249996
2.6304931640625
2.5265625
2.384765625
2.1543457031249997
2.035107421875
3.0349365234374996
3.0325195312499997
3.034130859375
3.0325195312499997
3.0325195312499997
3.0317138671875
1.59521484375
0.40283203125
0.0281982421875
0.027392578124999997
0.0298095703125
0.0249755859375
0.0281982421875
0.0281982421875
0.02900390625
0.0322265625
0.0281982421875
0.0281982421875
0.02578125
0.03544921875
0.046728515624999994
0.0281982421875
0.030615234374999998
0.0314208984375
0.0281982421875
0.026586914062499998
0.0322265625
1.164990234375
3.0325195312499997
3.0349365234374996
3.0333251953125
3.0317138671875
2.4613037109375
3.0333251953125
3.0301025390625
2.9285888671875
2.631298828125
2.719921875
2.5773193359374997
2.280029296875
2.273583984375
2.204296875
3.0317138671875
3.0333251953125
3.0309082031249996
3.0357421875
3.037353515625
3.0325195312499997
2.3807373046875
0.443115234375
0.027392578124999997
0.02900390625
0.027392578124999997
0.0281982421875
0.0298095703125
0.0281982421875
0.027392578124999997
0.02900390625
0.027392578124999997
0.0281982421875
0.053173828124999996
0.069287109375
0.0765380859375
0.02578125
0.0249755859375
0.0298095703125
0.0281982421875
0.027392578124999997
0.0281982421875
0.0281982421875
3.0357421875
3.0325195312499997
3.0317138671875
3.037353515625
3.034130859375
3.0325195312499997
3.0381591796875
3.0002929687499997
2.9503417968749996
2.6925292968749996
2.6788330078125
2.60068359375
2.4709716796875
2.3154785156249997
3.0325195312499997
3.0325195312499997
3.034130859375
3.034130859375
3.034130859375
3.0349365234374996
2.2534423828125
1.0892578124999999
0.030615234374999998
0.0281982421875
0.02900390625
0.0314208984375
0.0281982421875
0.027392578124999997
0.030615234374999998
0.023364257812499997
0.0298095703125
0.027392578124999997
0.027392578124999997
0.03544921875
0.0322265625
0.0281982421875
0.0281982421875
0.026586914062499998
0.02900390625
0.027392578124999997
0.027392578124999997
0.030615234374999998
3.0325195312499997
3.0309082031249996
3.0365478515624997
3.0333251953125
3.0325195312499997
3.0301025390625
3.0333251953125
3.0309082031249996
2.89716796875
2.6514404296875
2.7110595703125
2.6224365234375
2.39443359375
2.26875
2.0947265625
3.0349365234374996
3.0301025390625
3.0333251953125
3.0365478515624997
3.0325195312499997
3.034130859375
1.577490234375
0.0298095703125
0.0362548828125
0.026586914062499998
0.024169921875
0.0281982421875
0.027392578124999997
0.027392578124999997
0.027392578124999997
0.02578125
0.02900390625
0.027392578124999997
0.0298095703125
0.0298095703125
0.0281982421875
0.02578125
0.0281982421875
0.024169921875
0.027392578124999997
0.02900390625
0.027392578124999997
1.8973388671875
3.0325195312499997
3.037353515625
3.034130859375
3.0325195312499997
3.0325195312499997
3.0333251953125
2.9438964843749997
2.8657470703124996
2.8037109375
2.5837646484374996
2.42666015625
2.5072265624999996
2.1793212890625
2.0431640625
3.0317138671875
3.0357421875
3.034130859375
3.034130859375
3.0333251953125
3.0317138671875
1.6072998046875
0.22719726562499998
0.0249755859375
0.027392578124999997
0.0281982421875
0.027392578124999997
0.026586914062499998
0.027392578124999997
0.0249755859375
0.02900390625
0.02578125
0.0281982421875
0.056396484375
0.08701171875
0.06606445312499999
0.024169921875
0.0281982421875
0.030615234374999998
0.0281982421875
0.027392578124999997
0.0314208984375
1.7942138671874999
3.0325195312499997
3.0325195312499997
3.0333251953125
3.037353515625
3.0301025390625
3.034130859375
3.0301025390625
2.9479248046874997
2.9906249999999996
2.7175048828125
2.6490234375
2.5587890625
2.4274658203125
2.1793212890625
3.034130859375
3.0333251953125
3.0333251953125
3.0357421875
3.0325195312499997
3.0325195312499997
1.8296630859374998
0.855615234375
0.027392578124999997
0.02578125
0.027392578124999997
0.0281982421875
0.0281982421875
0.027392578124999997
0.0322265625
0.02900390625
0.0652587890625
0.0362548828125
0.02578125
0.038671874999999994
0.02900390625
0.0281982421875
0.0281982421875
0.027392578124999997
0.0281982421875
0.026586914062499998
0.024169921875
0.0281982421875
2.631298828125
3.0333251953125
3.0357421875
3.034130859375
3.0301025390625
3.0349365234374996
3.0333251953125
2.9978759765625
3.0357421875
2.818212890625
2.6860839843749997
2.5418701171875
2.3557617187499997
2.2510253906249997
3.0333251953125
3.0301025390625
3.037353515625
3.0333251953125
3.037353515625
3.0309082031249996
2.7593994140625
1.3237060546875
0.0281982421875
0.02900390625
0.0314208984375
0.02900390625
0.0281982421875
0.0281982421875
0.026586914062499998
0.0249755859375
0.027392578124999997
0.0314208984375
0.030615234374999998
0.0322265625
0.0281982421875
0.02578125
0.02900390625
0.02900390625
0.0298095703125
0.027392578124999997
0.0281982421875
0.02900390625
2.2389404296874997
3.0333251953125
3.0325195312499997
3.0349365234374996
3.0357421875
3.0325195312499997
3.037353515625
2.9745117187499996
2.85849609375
2.882666015625
2.6296874999999997
2.5080322265625
2.4645263671874997
2.376708984375
3.0349365234374996
3.0333251953125
3.0333251953125
3.0333251953125
3.0357421875
3.0333251953125
3.034130859375
1.3100097656249998
0.027392578124999997
0.0298095703125
0.0281982421875
0.0298095703125
0.0281982421875
0.023364257812499997
0.02900390625
0.02578125
0.027392578124999997
0.02578125
0.0314208984375
0.04833984375
0.07814941406249999
0.02900390625
0.0314208984375
0.0281982421875
0.024169921875
0.027392578124999997
0.02900390625
0.026586914062499998
1.3639892578125
3.0349365234374996
3.0357421875
3.0349365234374996
3.0357421875
3.0325195312499997
3.034130859375
3.037353515625
3.0268798828124996
2.776318359375
2.8238525390625
2.6522460937499996
2.4830566406249996
2.3823486328125
2.2260498046875
3.0349365234374996
3.037353515625
3.034130859375
3.037353515625
3.0333251953125
3.034130859375
1.5589599609375
0.34482421874999997
0.0281982421875
0.026586914062499998
0.026586914062499998
0.02900390625
0.0322265625
0.0314208984375
0.022558593749999998
0.026586914062499998
0.02900390625
0.027392578124999997
0.026586914062499998
0.049145507812499996
0.046728515624999994
0.027392578124999997
0.0249755859375
0.030615234374999998
0.027392578124999997
0.02900390625
0.027392578124999997
0.0281982421875
3.0357421875
3.0333251953125
3.0333251953125
3.0365478515624997
3.034130859375
3.034130859375
3.0317138671875
3.034130859375
2.8778320312499996
2.5869873046875
2.5555664062499996
2.4758056640625
2.3823486328125
2.241357421875
3.0236572265625
3.034130859375
3.0301025390625
3.0333251953125
3.034130859375
3.0301025390625
2.3162841796875
0.9756591796874999
0.02900390625
0.0314208984375
0.0281982421875
0.0322265625
0.027392578124999997
0.027392578124999997
0.027392578124999997
0.1200439453125
0.02578125
0.02900390625
0.0281982421875
0.045117187499999996
0.030615234374999998
0.02900390625
0.02900390625
0.023364257812499997
0.027392578124999997
0.0281982421875
0.0281982421875
0.023364257812499997
2.9076416015624997
3.0309082031249996
3.0325195312499997
3.0309082031249996
3.0325195312499997
3.0317138671875
3.034130859375
3.027685546875
2.9366455078125
2.7166992187499996
2.7416748046875
2.6490234375
2.502392578125
2.3138671875
2.204296875
3.0317138671875
3.0365478515624997
3.034130859375
3.0325195312499997
3.0349365234374996
3.0349365234374996
1.3204833984375
0.027392578124999997
0.027392578124999997
0.02900390625
0.026586914062499998
0.027392578124999997
0.0281982421875
0.02578125
0.027392578124999997
0.02578125
0.02900390625
0.0281982421875
0.033032226562499996
0.0926513671875
0.0281982421875
0.0322265625
0.02900390625
0.033032226562499996
0.02900390625
0.027392578124999997
0.027392578124999997
1.8788085937499999
3.0365478515624997
3.0333251953125
3.0357421875
3.0349365234374996
3.034130859375
3.0357421875
2.9390625
2.9036132812499997
2.7811523437499996
2.6079345703124996
2.5571777343749997
2.4556640625
2.29453125
2.209130859375
3.0309082031249996
3.0317138671875
3.0325195312499997
3.0333251953125
3.0309082031249996
3.034130859375
1.56298828125
0.5406005859374999
0.0298095703125
0.026586914062499998
0.026586914062499998
0.0281982421875
0.0298095703125
0.027392578124999997
0.0281982421875
0.026586914062499998
0.0281982421875
0.030615234374999998
0.02578125
0.0555908203125
0.0604248046875
0.030615234374999998
0.0249755859375
0.026586914062499998
0.027392578124999997
0.0281982421875
0.026586914062499998
0.054785156249999994
3.0333251953125
3.0333251953125
3.0301025390625
3.034130859375
3.034130859375
3.0349365234374996
3.037353515625
2.9817626953125
2.7336181640625
2.7166992187499996
2.624853515625
2.505615234375
2.3783203125
2.20107421875
3.037353515625
3.0357421875
3.0333251953125
3.037353515625
3.034130859375
3.0333251953125
2.6764160156249996
1.232666015625
0.02900390625
0.0249755859375
0.0298095703125
0.0322265625
0.0281982421875
0.026586914062499998
0.02578125
0.0281982421875
0.027392578124999997
0.026586914062499998
0.027392578124999997
0.0733154296875
0.09990234375
0.0314208984375
0.0281982421875
0.0281982421875
0.0281982421875
0.0281982421875
0.0322265625
0.026586914062499998
2.5394531249999996
3.0333251953125
3.0365478515624997
3.0365478515624997
3.0325195312499997
3.0349365234374996
3.034130859375
3.0317138671875
2.6377441406249997
2.6449951171875
2.6256591796874997
2.5458984375
2.36865234375
2.27197265625
2.1873779296875
3.0349365234374996
3.034130859375
3.0333251953125
3.0365478515624997
3.029296875
3.0333251953125
1.4928955078125
0.026586914062499998
0.02900390625
0.023364257812499997
0.030615234374999998
0.030615234374999998
0.02578125
0.027392578124999997
0.0281982421875
0.027392578124999997
0.0281982421875
0.027392578124999997
0.37705078124999997
0.0829833984375
0.02900390625
0.033032226562499996
0.02900390625
0.026586914062499998
0.0281982421875
0.02578125
0.027392578124999997
1.7595703125
3.0317138671875
3.0349365234374996
3.0333251953125
3.034130859375
3.034130859375
3.0309082031249996
3.029296875
2.9898193359375
2.67158203125
2.7094482421875
2.6514404296875
2.4177978515625
2.3009765625
2.1720703125
3.034130859375
3.0333251953125
3.034130859375
3.0325195312499997
3.034130859375
3.0365478515624997
1.8876708984375
0.339990234375
0.0249755859375
0.027392578124999997
0.026586914062499998
0.02900390625
0.0249755859375
0.02900390625
0.033032226562499996
0.0281982421875
0.02900390625
0.0281982421875
0.0314208984375
0.08217773437499999
0.07412109374999999
0.0281982421875
0.0249755859375
0.0281982421875
0.0281982421875
0.0281982421875
0.0281982421875
0.027392578124999997
3.0349365234374996
3.034130859375
3.0357421875
3.0357421875
3.0349365234374996
3.034130859375
2.914892578125
2.9455078125
3.037353515625
3.029296875
2.70380859375
2.5015869140625
2.40087890625
2.2163818359375
3.034130859375
3.0349365234374996
3.0333251953125
3.0333251953125
3.034130859375
3.0349365234374996
2.7497314453125
1.3527099609375
0.026586914062499998
0.026586914062499998
0.026586914062499998
0.0249755859375
0.0281982421875
0.026586914062499998
0.0298095703125
0.026586914062499998
0.0298095703125
0.026586914062499998
0.027392578124999997
0.026586914062499998
0.0378662109375
0.023364257812499997
0.027392578124999997
0.024169921875
0.0322265625
0.027392578124999997
0.0281982421875
0.02900390625
2.1624023437499997
3.037353515625
3.0349365234374996
3.034130859375
3.0349365234374996
3.034130859375
3.0325195312499997
2.9922363281249997
2.882666015625
2.940673828125
2.6627197265625
2.55234375
2.4113525390625
2.2760009765625
2.689306640625
3.0333251953125
3.0325195312499997
3.0309082031249996
3.0349365234374996
3.0349365234374996
3.0333251953125
1.353515625
0.0298095703125
0.026586914062499998
0.026586914062499998
0.030615234374999998
0.0281982421875
0.027392578124999997
0.027392578124999997
0.0281982421875
0.027392578124999997
0.0281982421875
0.027392578124999997
0.02900390625
0.146630859375
0.026586914062499998
0.024169921875
0.027392578124999997
0.026586914062499998
0.0281982421875
0.026586914062499998
0.027392578124999997
1.203662109375
3.0333251953125
3.0325195312499997
3.0349365234374996
3.034130859375
3.034130859375
3.0357421875
3.0357421875
2.9785400390624996
2.715087890625
2.7892089843749996
2.63291015625
2.528173828125
2.39765625
2.2083251953125
3.0349365234374996
3.0365478515624997
3.0349365234374996
3.034130859375
3.0381591796875
3.0309082031249996
1.5170654296875
0.40202636718749996
0.0281982421875
0.0249755859375
0.0298095703125
0.0314208984375
0.02900390625
0.027392578124999997
0.0281982421875
0.027392578124999997
0.0281982421875
0.027392578124999997
0.02900390625
0.02900390625
0.02578125
0.023364257812499997
0.027392578124999997
0.030615234374999998
0.024169921875
0.0281982421875
0.027392578124999997
0.7919677734374999
3.0333251953125
3.0381591796875
3.0325195312499997
3.034130859375
3.0357421875
3.029296875
3.037353515625
2.972900390625
2.8657470703124996
2.7166992187499996
2.6031005859375
2.49755859375
2.318701171875
2.183349609375
3.0333251953125
3.0349365234374996
3.0325195312499997
3.037353515625
3.0301025390625
3.034130859375
2.4016845703125
1.0803955078125
0.02900390625
0.024169921875
0.0249755859375
0.030615234374999998
0.033032226562499996
0.0281982421875
0.030615234374999998
0.027392578124999997
0.0281982421875
0.0281982421875
0.069287109375
0.027392578124999997
0.030615234374999998
0.0281982421875
0.026586914062499998
0.02578125
0.0249755859375
0.027392578124999997
0.027392578124999997
0.02578125
2.6659423828124997
3.0357421875
3.0365478515624997
3.0333251953125
3.0349365234374996
3.0357421875
3.0349365234374996
3.034130859375
2.931005859375
2.9181152343749996
2.6603027343749996
2.5467041015625
2.408935546875
2.28486328125
2.1632080078125
3.0349365234374996
3.0333251953125
3.0333251953125
3.037353515625
3.0357421875
2.9769287109375
1.36962890625
0.07009277343749999
0.0314208984375
0.0281982421875
0.0281982421875
0.027392578124999997
0.030615234374999998
0.027392578124999997
0.027392578124999997
0.0281982421875
0.026586914062499998
0.0281982421875
0.0314208984375
0.09829101562499999
0.0765380859375
0.027392578124999997
0.02900390625
0.026586914062499998
0.027392578124999997
0.026586914062499998
0.0281982421875
1.6645019531249998
3.0301025390625
3.0325195312499997
3.0349365234374996
3.037353515625
3.0365478515624997
3.0397705078125
2.9720947265624997
2.98095703125
2.98740234375
2.7110595703125
1.931982421875
2.42666015625
2.3340087890625
2.2236328125
3.0333251953125
3.0325195312499997
3.034130859375
3.0309082031249996
3.0325195312499997
3.0333251953125
1.6951171875
0.6276123046875
0.0298095703125
0.024169921875
0.02578125
0.0281982421875
0.0298095703125
0.027392578124999997
0.027392578124999997
0.0314208984375
0.024169921875
0.02900390625
0.030615234374999998
0.033032226562499996
0.0298095703125
0.027392578124999997
0.0298095703125
0.02900390625
0.027392578124999997
0.02900390625
0.02578125
0.027392578124999997
3.0325195312499997
3.0333251953125
3.034130859375
3.0349365234374996
3.034130859375
3.0333251953125
3.0333251953125
3.0164062499999997
2.7102539062499997
2.8794433593749997
2.7666503906249997
2.6860839843749997
2.486279296875
2.3694580078125
3.0357421875
3.0309082031249996
3.0333251953125
3.0309082031249996
3.0349365234374996
3.034130859375
2.6876953125
1.15048828125
0.027392578124999997
0.023364257812499997
0.033032226562499996
0.0281982421875
0.024169921875
0.0281982421875
0.0298095703125
0.027392578124999997
0.0281982421875
0.027392578124999997
0.0322265625
0.0845947265625
0.0515625
0.023364257812499997
0.026586914062499998
0.0314208984375
0.026586914062499998
0.0281982421875
0.026586914062499998
0.027392578124999997
2.36220703125
3.0349365234374996
3.0325195312499997
3.0333251953125
3.034130859375
3.0309082031249996
3.0325195312499997
3.0244628906249997
2.9495361328125
2.8029052734374997
2.6739990234374997
2.5958496093749996
2.470166015625
2.338037109375
2.255859375
3.0333251953125
3.0325195312499997
3.034130859375
3.0325195312499997
3.0349365234374996
3.034130859375
1.4920898437499999
0.027392578124999997
0.0281982421875
0.026586914062499998
0.0281982421875
0.02578125
0.027392578124999997
0.027392578124999997
0.0281982421875
0.0249755859375
0.022558593749999998
0.0281982421875
0.02900390625
0.0281982421875
0.027392578124999997
0.0281982421875
0.0281982421875
0.027392578124999997
0.027392578124999997
0.0298095703125
0.0314208984375
1.3317626953125
3.0325195312499997
3.0309082031249996
3.0381591796875
3.034130859375
3.0333251953125
3.0365478515624997
2.9414794921875
2.8012939453124996
2.4991699218749996
2.528173828125
2.4548583984375
2.7972656249999996
2.212353515625
2.093115234375
3.0357421875
3.034130859375
3.0333251953125
3.029296875
3.0333251953125
3.034130859375
2.0729736328125
0.24492187499999998
0.027392578124999997
0.027392578124999997
0.0281982421875
0.027392578124999997
0.0322265625
0.0249755859375
0.02900390625
0.0281982421875
0.0249755859375
0.027392578124999997
0.02578125
0.042700195312499994
0.042700195312499994
0.023364257812499997
0.0281982421875
0.0281982421875
0.027392578124999997
0.023364257812499997
0.0322265625
0.0314208984375
2.9438964843749997
3.0333251953125
3.0349365234374996
3.0357421875
3.034130859375
3.0365478515624997
2.9761230468749997
2.9922363281249997
3.0357421875
2.7851806640624996
2.7384521484374997
2.599072265625
2.487890625
2.4258544921875
3.029296875
3.0317138671875
3.029296875
3.0333251953125
3.029296875
3.0317138671875
2.9882080078124997
0.9224853515625
0.026586914062499998
0.026586914062499998
0.027392578124999997
0.0281982421875
0.02578125
0.026586914062499998
0.026586914062499998
0.0281982421875
0.1353515625
0.0322265625
0.027392578124999997
0.02900390625
0.04833984375
0.027392578124999997
0.022558593749999998
0.0281982421875
0.0314208984375
0.0281982421875
0.02900390625
0.0281982421875
2.2453857421875
3.0357421875
3.034130859375
3.0325195312499997
3.034130859375
3.0381591796875
3.034130859375
3.0301025390625
2.91328125
2.985791015625
2.6433837890625
2.47822265625
2.3952392578125
2.228466796875
2.3718749999999997
3.0389648437499996
3.0325195312499997
3.0325195312499997
3.0309082031249996
3.0301025390625
3.0325195312499997
1.3792968749999999
0.02900390625
0.0281982421875
0.0281982421875
0.0298095703125
0.027392578124999997
0.0281982421875
0.0281982421875
0.023364257812499997
0.02578125
0.0281982421875
0.022558593749999998
0.030615234374999998
0.037060546874999996
0.02900390625
0.0298095703125
0.027392578124999997
0.027392578124999997
0.027392578124999997
0.02900390625
0.027392578124999997
0.8403076171874999
3.034130859375
3.0470214843749996
3.037353515625
3.0349365234374996
3.0325195312499997
3.0325195312499997
3.034130859375
2.9841796874999997
2.7666503906249997
2.785986328125
2.6192138671875
2.4516357421875
2.6788330078125
2.2292724609375
3.0325195312499997
3.0357421875
3.0333251953125
3.0309082031249996
3.034130859375
3.0301025390625
1.493701171875
0.45842285156249996
0.027392578124999997
0.026586914062499998
0.027392578124999997
0.0281982421875
0.0281982421875
0.0281982421875
0.0281982421875
0.030615234374999998
0.024169921875
0.0281982421875
0.0314208984375
0.0314208984375
0.027392578124999997
0.027392578124999997
0.026586914062499998
0.0281982421875
0.024169921875
0.0298095703125
0.0249755859375
0.02578125
3.0333251953125
3.034130859375
3.0357421875
3.037353515625
3.0365478515624997
3.034130859375
3.0357421875
2.9583984374999996
2.5676513671874996
2.5797363281249996
2.60712890625
2.4766113281249997
2.3162841796875
2.23330078125
3.034130859375
3.0526611328124997
3.034130859375
3.0389648437499996
3.034130859375
3.0301025390625
2.5902099609375
1.0965087890625
0.02578125
0.024169921875
0.0281982421875
0.0298095703125
0.02578125
0.0281982421875
0.023364257812499997
0.027392578124999997
0.0281982421875
0.0281982421875
0.023364257812499997
0.0298095703125
0.1264892578125
0.02900390625
0.0378662109375
0.027392578124999997
0.026586914062499998
0.0281982421875
0.0281982421875
0.027392578124999997
2.795654296875
3.034130859375
3.0349365234374996
3.034130859375
3.0357421875
3.0333251953125
3.0349365234374996
2.3098388671875
2.802099609375
2.8270751953124997
2.6530517578125
2.5652343749999997
2.473388671875
2.338037109375
2.2107421874999997
3.0389648437499996
3.0309082031249996
3.034130859375
3.034130859375
3.034130859375
3.0325195312499997
1.525927734375
0.133740234375
0.027392578124999997
0.02900390625
0.02900390625
0.024169921875
0.027392578124999997
0.0281982421875
0.02900390625
0.02578125
0.0298095703125
0.0314208984375
0.0298095703125
0.02900390625
0.027392578124999997
0.02900390625
0.027392578124999997
0.0249755859375
0.012890625
0.027392578124999997
0.024169921875
1.714453125
3.0325195312499997
3.0389648437499996
3.0325195312499997
3.0349365234374996
3.037353515625
3.0333251953125
3.034130859375
2.9994873046875
3.034130859375
2.8053222656249996
2.6683593749999996
2.586181640625
2.373486328125
2.26552734375
3.0333251953125
3.0333251953125
3.0333251953125
3.0325195312499997
3.0309082031249996
3.034130859375
1.6363037109374998
0.620361328125
0.0281982421875
0.0314208984375
0.026586914062499998
0.027392578124999997
0.02578125
0.027392578124999997
0.026586914062499998
0.02900390625
0.0322265625
0.0281982421875
0.0281982421875
0.0958740234375
0.11037597656249999
0.027392578124999997
0.0298095703125
0.02900390625
0.0322265625
0.030615234374999998
0.027392578124999997
0.022558593749999998
3.034130859375
3.0349365234374996
3.0333251953125
3.034130859375
3.0333251953125
3.0325195312499997
3.0333251953125
3.029296875
2.8302978515625
2.8029052734374997
2.68125
2.5193115234374996
2.3533447265625
2.2236328125
3.0333251953125
3.0309082031249996
3.0333251953125
3.0301025390625
3.0325195312499997
3.0317138671875
2.7747070312499997
1.3220947265624998
0.0281982421875
0.0281982421875
0.0281982421875
0.0314208984375
0.0249755859375
0.0281982421875
0.033032226562499996
0.027392578124999997
0.02900390625
0.026586914062499998
0.027392578124999997
0.02578125
0.062841796875
0.026586914062499998
0.0281982421875
0.0281982421875
0.02900390625
0.0281982421875
0.027392578124999997
0.0281982421875
2.3718749999999997
3.0333251953125
3.034130859375
3.0389648437499996
3.0365478515624997
3.0357421875
3.034130859375
2.9841796874999997
2.2236328125
2.937451171875
2.70703125
2.60068359375
2.4556640625
2.270361328125
2.14951171875
3.0357421875
3.0301025390625
3.037353515625
3.0357421875
3.034130859375
3.0325195312499997
1.6089111328124999
0.027392578124999997
0.02578125
0.0281982421875
0.02900390625
0.0281982421875
0.027392578124999997
0.027392578124999997
0.030615234374999998
0.02900390625
0.027392578124999997
0.024169921875
0.027392578124999997
0.0346435546875
0.033032226562499996
0.027392578124999997
0.0281982421875
0.0298095703125
0.0298095703125
0.022558593749999998
0.0281982421875
1.327734375
3.0381591796875
3.0333251953125
3.0325195312499997
3.0357421875
3.0333251953125
3.034130859375
3.0333251953125
2.96484375
2.6643310546874996
2.779541015625
2.6941406249999997
2.534619140625
2.431494140625
2.2888916015625
3.0333251953125
3.0333251953125
3.0325195312499997
3.0333251953125
3.0365478515624997
3.034130859375
2.209130859375
0.3391845703125
0.0281982421875
0.026586914062499998
0.024169921875
0.027392578124999997
0.026586914062499998
0.026586914062499998
0.02900390625
0.027392578124999997
0.0281982421875
0.027392578124999997
0.06606445312499999
0.12165527343749999
0.104736328125
0.0281982421875
0.030615234374999998
0.0298095703125
0.0314208984375
0.0249755859375
0.0281982421875
0.0298095703125
3.0333251953125
3.0357421875
3.034130859375
3.0333251953125
3.0349365234374996
3.0357421875
3.0301025390625
2.9970703125
3.0325195312499997
2.6925292968749996
2.6876953125
2.5354248046874996
2.405712890625
2.3267578125
3.0301025390625
3.0204345703124997
3.034130859375
3.0333251953125
3.0325195312499997
3.0301025390625
2.9672607421875
1.0328613281249999
0.026586914062499998
0.027392578124999997
0.027392578124999997
0.02900390625
0.0281982421875
0.02578125
0.0322265625
0.0298095703125
0.030615234374999998
0.027392578124999997
0.0281982421875
0.0281982421875
0.042700195312499994
0.027392578124999997
0.023364257812499997
0.027392578124999997
0.026586914062499998
0.0298095703125
0.02900390625
0.026586914062499998
1.9762939453125
3.034130859375
3.0349365234374996
3.0357421875
3.037353515625
3.0357421875
3.0357421875
2.98740234375
2.9350341796875
3.0325195312499997
2.6530517578125
2.5249511718749997
2.3960449218749997
2.2365234375
2.1438720703125
3.0357421875
3.034130859375
3.0325195312499997
3.0325195312499997
3.029296875
3.034130859375
0.8145263671874999
0.030615234374999998
0.030615234374999998
0.027392578124999997
0.0281982421875
0.0298095703125
0.026586914062499998
0.024169921875
0.02578125
0.027392578124999997
0.0281982421875
0.023364257812499997
0.0249755859375
0.0620361328125
0.027392578124999997
0.0281982421875
0.02900390625
0.0298095703125
0.023364257812499997
0.02578125
0.033032226562499996
0.09023437499999999
3.034130859375
3.0333251953125
3.034130859375
3.0349365234374996
3.0349365234374996
3.0333251953125
3.0317138671875
2.9817626953125
2.8399658203125
2.8133789062499996
2.602294921875
2.5233398437499996
2.3581787109375
2.2985595703125
3.0301025390625
3.0325195312499997
3.0325195312499997
3.0349365234374996
3.0325195312499997
3.0357421875
1.6040771484374998
0.6348632812499999
0.023364257812499997
0.024169921875
0.027392578124999997
0.02900390625
0.0249755859375
0.02900390625
0.0298095703125
0.0314208984375
0.02578125
0.0281982421875
0.0281982421875
0.22316894531249998
0.0475341796875
0.0281982421875
0.026586914062499998
0.0281982421875
0.0281982421875
0.027392578124999997
0.0281982421875
0.43828124999999996
3.0357421875
3.0365478515624997
3.0349365234374996
3.0317138671875
3.0325195312499997
3.034130859375
3.0349365234374996
3.0317138671875
2.5636230468749996
2.769873046875
2.634521484375
2.4935302734375
2.31708984375
2.0890869140625
3.0349365234374996
3.0381591796875
3.0309082031249996
3.0325195312499997
3.034130859375
3.034130859375
2.63291015625
1.2262207031249999
0.02900390625
0.027392578124999997
0.027392578124999997
0.02578125
0.0281982421875
0.027392578124999997
0.02578125
0.0281982421875
0.0281982421875
0.026586914062499998
0.02578125
0.02900390625
0.02900390625
0.0281982421875
0.0281982421875
0.024169921875
0.024169921875
0.027392578124999997
0.027392578124999997
0.0281982421875
2.4258544921875
3.0325195312499997
3.0301025390625
3.0301025390625
3.034130859375
3.0365478515624997
3.0357421875
3.029296875
2.843994140625
2.8552734374999997
2.72958984375
2.666748046875
2.49755859375
2.3887939453125
2.280029296875
3.0317138671875
3.0309082031249996
3.0333251953125
3.0357421875
3.0357421875
3.0325195312499997
1.538818359375
0.1571044921875
0.027392578124999997
0.0249755859375
0.027392578124999997
0.02900390625
0.02578125
0.0298095703125
0.0281982421875
0.02578125
0.02900390625
0.02900390625
0.0281982421875
0.0281982421875
0.0314208984375
0.02578125
0.0298095703125
0.027392578124999997
0.0314208984375
0.0281982421875
0.02900390625
1.5605712890624999
3.0357421875
3.0333251953125
3.0357421875
3.0333251953125
3.0365478515624997
3.037353515625
3.01962890625
2.9044189453125
2.5958496093749996
2.59423828125
2.537841796875
2.45888671875
2.3549560546875
2.215576171875
3.034130859375
3.0325195312499997
3.0325195312499997
3.0365478515624997
3.037353515625
3.034130859375
1.6645019531249998
0.39396972656249996
0.027392578124999997
0.030615234374999998
0.0314208984375
0.026586914062499998
0.0314208984375
0.0281982421875
0.0314208984375
0.0281982421875
0.0281982421875
0.0281982421875
0.02900390625
0.11279296875
0.1007080078125
0.030615234374999998
0.02578125
0.0249755859375
0.0314208984375
0.0281982421875
0.030615234374999998
1.229443359375
3.0325195312499997
3.0349365234374996
3.0333251953125
3.0325195312499997
3.0309082031249996
3.0365478515624997
3.0333251953125
2.9753173828125
3.0333251953125
2.7336181640625
2.99384765625
2.4306884765625
2.410546875
2.2711669921874997
3.034130859375
3.0301025390625
3.037353515625
3.0309082031249996
3.034130859375
3.0357421875
2.328369140625
0.929736328125
0.0281982421875
0.0281982421875
0.0281982421875
0.0281982421875
0.027392578124999997
0.027392578124999997
0.0281982421875
0.12246093749999999
0.0281982421875
0.027392578124999997
0.0298095703125
0.033032226562499996
0.027392578124999997
0.027392578124999997
0.026586914062499998
0.02578125
0.024169921875
0.027392578124999997
0.027392578124999997
0.0281982421875
2.9020019531249996
3.0357421875
3.0309082031249996
3.034130859375
3.034130859375
3.0357421875
3.029296875
3.0333251953125
3.0357421875
2.6997802734375
2.6683593749999996
2.5716796874999996
2.3654296875
2.228466796875
2.3791259765625
3.034130859375
3.0309082031249996
3.0333251953125
3.0317138671875
3.0333251953125
3.0107666015624996
1.4308593749999998
0.0249755859375
0.02578125
0.0249755859375
0.0298095703125
0.0281982421875
0.0281982421875
0.026586914062499998
0.27634277343749997
0.026586914062499998
0.0249755859375
0.0281982421875
0.0394775390625
0.0878173828125
0.024169921875
0.0314208984375
0.027392578124999997
0.02900390625
0.030615234374999998
0.02578125
0.0249755859375
1.9327880859375
3.0357421875
3.034130859375
3.034130859375
3.0357421875
3.0317138671875
3.0349365234374996
2.977734375
2.9221435546874996
3.0333251953125
2.7424804687499997
2.56201171875
2.44921875
2.3372314453125
2.1873779296875
3.034130859375
3.0349365234374996
3.0325195312499997
3.0309082031249996
3.0349365234374996
3.0357421875
1.43408203125
0.16435546874999998
0.027392578124999997
0.027392578124999997
0.027392578124999997
0.0281982421875
0.0169189453125
0.026586914062499998
0.02900390625
0.0249755859375
0.027392578124999997
0.0249755859375
0.027392578124999997
0.0281982421875
0.02578125
0.0298095703125
0.0281982421875
0.0249755859375
0.02900390625
0.030615234374999998
0.024169921875
1.7281494140625
3.0349365234374996
3.029296875
3.0325195312499997
3.037353515625
3.0309082031249996
3.0357421875
2.9543701171874996
2.8874999999999997
2.6756103515625
2.6417724609374997
2.553955078125
2.384765625
2.2751953124999997
2.13662109375
3.0333251953125
3.0333251953125
3.0349365234374996
3.0357421875
3.0349365234374996
3.034130859375
1.6749755859375
0.7033447265624999
0.027392578124999997
0.0249755859375
0.027392578124999997
0.0249755859375
0.02578125
0.027392578124999997
0.027392578124999997
0.0281982421875
0.0249755859375
0.0314208984375
0.0322265625
0.038671874999999994
0.027392578124999997
0.0314208984375
0.027392578124999997
0.027392578124999997
0.023364257812499997
0.027392578124999997
0.0298095703125
0.027392578124999997
3.0365478515624997
3.034130859375
3.034130859375
3.0333251953125
3.0325195312499997
3.0349365234374996
3.0325195312499997
2.9841796874999997
3.011572265625
2.79404296875
2.6691650390625
2.5233398437499996
2.4202148437499997
2.289697265625
3.0333251953125
3.0349365234374996
3.0349365234374996
3.0317138671875
3.0309082031249996
3.0325195312499997
2.6901123046874997
0.7081787109375
0.0322265625
0.027392578124999997
0.0281982421875
0.027392578124999997
0.0281982421875
0.0281982421875
0.0298095703125
0.0281982421875
0.024169921875
0.02900390625
0.026586914062499998
0.0281982421875
0.026586914062499998
0.026586914062499998
0.026586914062499998
0.0322265625
0.02900390625
0.0249755859375
0.027392578124999997
0.024169921875
2.4097412109375
3.0333251953125
3.0333251953125
3.0333251953125
3.034130859375
3.0365478515624997
3.034130859375
2.9753173828125
2.6933349609375
2.7779296875
2.6691650390625
2.5515380859374996
2.415380859375
2.2341064453125
3.034130859375
3.0349365234374996
3.029296875
3.034130859375
3.034130859375
3.0357421875
2.679638671875
1.232666015625
0.027392578124999997
0.024169921875
0.02900390625
0.027392578124999997
0.0298095703125
0.027392578124999997
0.0322265625
0.0281982421875
0.026586914062499998
0.027392578124999997
0.026586914062499998
0.054785156249999994
0.0668701171875
0.026586914062499998
0.0314208984375
0.030615234374999998
0.0298095703125
0.02900390625
0.0281982421875
0.0281982421875
2.2453857421875
3.034130859375
3.0325195312499997
3.034130859375
3.0357421875
3.0357421875
3.0333251953125
3.034130859375
2.956787109375
2.8166015625
2.7062255859374997
2.5757080078124996
3.0357421875
2.3742919921875
2.238134765625
3.0357421875
3.029296875
3.0357421875
3.0349365234374996
3.0357421875
3.034130859375
1.56943359375
0.02900390625
0.027392578124999997
0.0281982421875
0.030615234374999998
0.027392578124999997
0.02578125
0.0281982421875
0.02900390625
0.02900390625
0.0281982421875
0.027392578124999997
0.0281982421875
0.0281982421875
0.030615234374999998
0.027392578124999997
0.0298095703125
0.026586914062499998
0.027392578124999997
0.027392578124999997
0.030615234374999998
1.2495849609374998
3.0325195312499997
3.0333251953125
3.0333251953125
3.0349365234374996
3.0317138671875
3.0325195312499997
3.034130859375
2.9922363281249997
2.7013916015625
2.7545654296874997
2.599072265625
2.4194091796875
2.3565673828125
2.193017578125
3.034130859375
3.034130859375
3.0301025390625
3.0349365234374996
3.0317138671875
3.0349365234374996
2.25263671875
0.391552734375
0.027392578124999997
0.027392578124999997
0.026586914062499998
0.0249755859375
0.0281982421875
0.027392578124999997
0.027392578124999997
0.0281982421875
0.024169921875
0.027392578124999997
0.0523681640625
0.0652587890625
0.033032226562499996
0.0314208984375
0.0281982421875
0.02900390625
0.0281982421875
0.02900390625
0.0298095703125
1.2141357421874999
2.705419921875
3.0325195312499997
3.0309082031249996
3.034130859375
3.034130859375
3.0365478515624997
3.027685546875
2.8206298828125
3.0333251953125
2.7046142578124996
2.5885986328125
2.5112548828124996
2.3984619140625
2.2695556640625
3.0325195312499997
3.0349365234374996
3.0325195312499997
3.0333251953125
3.0349365234374996
3.0317138671875
2.244580078125
0.9643798828125
0.02578125
0.02578125
0.027392578124999997
0.0314208984375
0.0281982421875
0.027392578124999997
0.02578125
0.02900390625
0.02900390625
0.026586914062499998
0.024169921875
0.0362548828125
0.0281982421875
0.027392578124999997
0.0281982421875
0.030615234374999998
0.027392578124999997
0.0281982421875
0.024169921875
0.027392578124999997
2.65869140625
3.0349365234374996
3.0333251953125
3.0365478515624997
3.0325195312499997
3.034130859375
3.0309082031249996
3.0333251953125
2.9503417968749996
2.7706787109374997
2.705419921875
2.5845703125
2.495947265625
2.3597900390624997
2.4991699218749996
3.0349365234374996
3.0301025390625
3.0333251953125
3.0309082031249996
3.0325195312499997
2.8464111328125
1.3583496093749998
0.0314208984375
0.0281982421875
0.027392578124999997
0.026586914062499998
0.0281982421875
0.0298095703125
0.0281982421875
0.0281982421875
0.027392578124999997
0.027392578124999997
0.02900390625
0.0620361328125
0.0652587890625
0.02578125
0.0281982421875
0.0322265625
0.027392578124999997
0.0298095703125
0.0322265625
0.0281982421875
1.7619873046874999
3.0333251953125
3.034130859375
3.0301025390625
3.037353515625
3.034130859375
3.034130859375
3.0220458984375
2.9447021484375
3.0309082031249996
2.8069335937499997
2.6208251953125
2.5612060546874997
2.4113525390625
2.2469970703124997
3.0325195312499997
3.0309082031249996
3.0333251953125
3.0365478515624997
3.034130859375
3.034130859375
1.4961181640624999
0.1861083984375
0.0281982421875
0.027392578124999997
0.030615234374999998
0.030615234374999998
0.0298095703125
0.02900390625
0.027392578124999997
0.0281982421875
0.027392578124999997
0.02900390625
0.02578125
0.049951171875
0.0281982421875
0.0281982421875
0.027392578124999997
0.0281982421875
0.024169921875
0.02900390625
0.0249755859375
1.7700439453124999
3.034130859375
3.0325195312499997
3.0349365234374996
3.0333251953125
3.034130859375
3.0309082031249996
2.977734375
3.0333251953125
2.9181152343749996
2.721533203125
2.5313964843749996
2.4258544921875
2.2590820312499997
1.6024658203125
3.037353515625
3.0333251953125
3.0325195312499997
3.0333251953125
3.0309082031249996
3.034130859375
1.7845458984375
0.742822265625
0.0281982421875
0.0249755859375
0.027392578124999997
0.0281982421875
0.0314208984375
0.02900390625
0.027392578124999997
0.0281982421875
0.030615234374999998
0.030615234374999998
0.030615234374999998
0.027392578124999997
0.02578125
0.0281982421875
0.0281982421875
0.0298095703125
0.027392578124999997
0.027392578124999997
0.027392578124999997
0.0314208984375
3.0317138671875
3.0349365234374996
3.0333251953125
3.0357421875
3.034130859375
3.0349365234374996
3.0317138671875
2.9994873046875
3.0043212890624997
2.7932373046874996
2.7191162109375
2.53623046875
2.4435791015625
2.354150390625
3.034130859375
3.0333251953125
3.034130859375
3.034130859375
3.0333251953125
3.0309082031249996
2.689306640625
0.78310546875
0.015307617187499999
0.0281982421875
0.027392578124999997
0.02900390625
0.027392578124999997
0.02578125
0.027392578124999997
0.026586914062499998
0.027392578124999997
0.026586914062499998
0.27392578125
0.057202148437499996
0.04833984375
0.0298095703125
0.0298095703125
0.02900390625
0.0281982421875
0.027392578124999997
0.0281982421875
0.02900390625
2.8810546875
3.0357421875
3.0365478515624997
3.034130859375
3.034130859375
3.0349365234374996
3.0357421875
2.985791015625
2.689306640625
2.6965576171874996
2.592626953125
2.4532470703125
2.37509765625
2.1889892578125
3.0349365234374996
3.0325195312499997
3.0333251953125
3.0325195312499997
3.0349365234374996
3.0309082031249996
2.7803466796875
1.3639892578125
0.0314208984375
0.030615234374999998
0.0298095703125
0.027392578124999997
0.027392578124999997
0.02900390625
0.0249755859375
0.027392578124999997
0.02578125
0.0281982421875
0.027392578124999997
0.02578125
0.033837890625
0.026586914062499998
0.030615234374999998
0.0314208984375
0.0281982421875
0.027392578124999997
0.027392578124999997
0.0281982421875
2.1261474609374997
3.034130859375
3.034130859375
3.034130859375
3.0325195312499997
3.0333251953125
3.0357421875
3.0325195312499997
2.9422851562499996
2.8713867187499997
2.6417724609374997
2.54267578125
2.410546875
2.22041015625
2.126953125
3.0325195312499997
3.0357421875
3.034130859375
3.034130859375
3.0309082031249996
3.0317138671875
2.167236328125
0.27634277343749997
0.0314208984375
0.030615234374999998
0.0281982421875
0.027392578124999997
0.02900390625
0.0281982421875
0.0281982421875
0.024169921875
0.024169921875
0.026586914062499998
0.027392578124999997
0.0298095703125
0.027392578124999997
0.027392578124999997
0.0281982421875
0.0281982421875
0.0314208984375
0.0249755859375
0.02578125
1.3688232421875
3.0349365234374996
3.0365478515624997
3.0333251953125
3.037353515625
3.0301025390625
3.0325195312499997
3.0317138671875
2.8286865234375
2.5612060546874997
2.6353271484375
2.5547607421875
2.4322998046874997
2.312255859375
2.1599853515625
3.0349365234374996
3.0357421875
3.0309082031249996
3.0333251953125
3.034130859375
3.0349365234374996
2.3638183593749997
0.4922607421875
0.0281982421875
0.0298095703125
0.027392578124999997
0.0281982421875
0.0281982421875
0.0298095703125
0.02578125
0.0314208984375
0.0249755859375
0.0281982421875
0.0298095703125
0.18288574218749998
0.088623046875
0.0281982421875
0.02900390625
0.02900390625
0.030615234374999998
0.024169921875
0.0281982421875
0.027392578124999997
3.0349365234374996
3.037353515625
3.037353515625
3.0333251953125
3.0333251953125
3.0349365234374996
3.034130859375
3.0325195312499997
3.034130859375
2.81015625
2.7497314453125
2.6079345703124996
2.447607421875
2.318701171875
3.0357421875
3.0325195312499997
3.034130859375
3.0333251953125
3.0325195312499997
3.0357421875
2.4516357421875
1.1174560546874999
0.026586914062499998
0.02900390625
0.026586914062499998
0.02578125
0.02578125
0.027392578124999997
0.008056640625
0.033032226562499996
0.0281982421875
0.0314208984375
0.027392578124999997
0.0362548828125
0.0829833984375
0.027392578124999997
0.027392578124999997
0.027392578124999997
0.02900390625
0.027392578124999997
0.0281982421875
0.027392578124999997
2.8721923828125
3.034130859375
3.0325195312499997
3.0389648437499996
3.0357421875
3.037353515625
3.0333251953125
3.0333251953125
2.940673828125
2.7287841796874996
2.7650390624999996
2.657080078125
2.5048095703124997
2.3799316406249997
2.31064453125
3.0317138671875
3.0309082031249996
3.0333251953125
3.0325195312499997
3.0325195312499997
3.0325195312499997
1.6072998046875
0.0281982421875
0.0281982421875
0.023364257812499997
0.027392578124999997
0.026586914062499998
0.024169921875
0.0281982421875
0.030615234374999998
0.030615234374999998
0.024169921875
0.027392578124999997
0.027392578124999997
0.030615234374999998
0.027392578124999997
0.0281982421875
0.024169921875
0.0249755859375
0.024169921875
0.024169921875
0.024169921875
1.6403320312499998
3.0357421875
3.034130859375
3.0365478515624997
3.0365478515624997
3.037353515625
3.0325195312499997
2.9672607421875
2.8955566406249997
2.856884765625
2.6385498046875
2.56201171875
2.437939453125
2.32998046875
2.1591796875
3.0301025390625
3.0301025390625
3.0333251953125
3.034130859375
3.0333251953125
3.034130859375
1.55009765625
0.2199462890625
0.0322265625
0.0314208984375
0.0281982421875
0.0249755859375
0.027392578124999997
0.0298095703125
0.0314208984375
0.0298095703125
0.026586914062499998
0.02900390625
0.02900390625
0.023364257812499997
0.023364257812499997
0.024169921875
0.0298095703125
0.0298095703125
0.026586914062499998
0.0249755859375
0.02578125
1.5082031249999999
3.0325195312499997
3.0301025390625
3.0349365234374996
3.0301025390625
3.034130859375
3.0325195312499997
3.0349365234374996
2.98095703125
3.0333251953125
2.7980712890625
2.21396484375
2.5160888671875
2.334814453125
2.2171875
3.0309082031249996
3.0365478515624997
3.0365478515624997
3.0301025390625
3.0325195312499997
3.0333251953125
1.77890625
0.784716796875
0.026586914062499998
0.027392578124999997
0.026586914062499998
0.030615234374999998
0.026586914062499998
0.027392578124999997
0.026586914062499998
0.027392578124999997
0.0281982421875
0.030615234374999998
0.02900390625
0.0604248046875
0.059619140625
0.02900390625
0.0281982421875
0.0298095703125
0.0249755859375
0.023364257812499997
0.0249755859375
0.027392578124999997
2.9688720703125
3.0333251953125
3.0333251953125
3.0317138671875
3.037353515625
3.034130859375
3.0333251953125
2.9680664062499997
3.0349365234374996
2.808544921875
2.7102539062499997
2.6063232421875
2.4927246093749997
2.354150390625
3.0301025390625
3.0309082031249996
3.0317138671875
3.0333251953125
3.0317138671875
3.0333251953125
2.7851806640624996
1.3059814453124998
0.20705566406249998
0.02578125
0.02900390625
0.024169921875
0.026586914062499998
0.0281982421875
0.023364257812499997
0.0298095703125
0.030615234374999998
0.027392578124999997
0.030615234374999998
0.030615234374999998
0.0314208984375
0.02900390625
0.0249755859375
0.026586914062499998
0.024169921875
0.02578125
0.0281982421875
0.0249755859375
2.9414794921875
3.0333251953125
3.0317138671875
3.0317138671875
3.034130859375
3.0349365234374996
3.0349365234374996
3.0099609375
2.8721923828125
2.9044189453125
2.6981689453124997
2.6111572265625
2.5112548828124996
2.3501220703125
3.0317138671875
3.0333251953125
3.0349365234374996
3.0317138671875
3.0333251953125
3.0333251953125
2.81015625
1.37607421875
0.023364257812499997
0.027392578124999997
0.0281982421875
0.0281982421875
0.0249755859375
0.026586914062499998
0.0314208984375
0.02900390625
0.0281982421875
0.024169921875
0.0281982421875
0.024169921875
0.0322265625
0.0249755859375
0.027392578124999997
0.026586914062499998
0.027392578124999997
0.0249755859375
0.026586914062499998
0.0281982421875
2.015771484375
3.0333251953125
3.0301025390625
3.0357421875
3.0333251953125
3.0349365234374996
3.034130859375
2.9761230468749997
2.9261718749999996
2.634521484375
2.6498291015624997
2.0761962890625
2.4967529296874997
2.3452880859375
2.2147705078124997
3.034130859375
3.0325195312499997
3.0325195312499997
3.0325195312499997
3.0309082031249996
3.034130859375
1.7732666015624998
0.5768554687499999
0.0314208984375
0.024169921875
0.0281982421875
0.027392578124999997
0.027392578124999997
0.027392578124999997
0.027392578124999997
0.0281982421875
0.030615234374999998
0.026586914062499998
0.0378662109375
0.0797607421875
0.027392578124999997
0.024169921875
0.0281982421875
0.024169921875
0.0281982421875
0.030615234374999998
0.0298095703125
0.7371826171875
3.0349365234374996
3.034130859375
3.0333251953125
3.037353515625
3.0325195312499997
3.037353515625
3.0317138671875
3.0301025390625
2.7610107421874996
2.7650390624999996
2.615185546875
2.4387451171875
2.3235351562499997
2.1744873046874997
3.029296875
3.0325195312499997
3.034130859375
3.0357421875
3.034130859375
3.0365478515624997
2.5209228515624997
0.5051513671875
0.026586914062499998
0.0281982421875
0.026586914062499998
0.0298095703125
0.0281982421875
0.027392578124999997
0.027392578124999997
0.027392578124999997
0.030615234374999998
0.0281982421875
0.02900390625
0.0322265625
0.0298095703125
0.0314208984375
0.0281982421875
0.0314208984375
0.026586914062499998
0.0249755859375
0.024169921875
0.0322265625
2.9342285156249996
3.0349365234374996
3.0333251953125
3.034130859375
3.0309082031249996
3.034130859375
3.0333251953125
2.9970703125
2.7392578125
2.7521484375
2.6917236328125
2.599072265625
2.53623046875
2.3340087890625
3.0333251953125
3.0325195312499997
3.0333251953125
3.0309082031249996
3.0325195312499997
3.0309082031249996
2.586181640625
1.1923828125
0.0298095703125
0.0281982421875
0.027392578124999997
0.026586914062499998
0.024169921875
0.027392578124999997
0.02900390625
0.027392578124999997
0.024169921875
0.023364257812499997
0.026586914062499998
0.0281982421875
0.0298095703125
0.027392578124999997
0.023364257812499997
0.023364257812499997
0.0281982421875
0.0281982421875
0.027392578124999997
0.0314208984375
2.3315917968749997
3.0357421875
3.034130859375
3.0349365234374996
3.034130859375
3.0333251953125
3.034130859375
3.0172119140625
2.98095703125
2.7465087890624997
2.7021972656249997
2.6200195312499996
2.5885986328125
2.3340087890625
2.1978515625
3.0333251953125
3.034130859375
3.0349365234374996
3.0317138671875
3.034130859375
3.0333251953125
1.5887695312499999
0.027392578124999997
0.027392578124999997
0.0281982421875
0.0281982421875
0.0281982421875
0.0281982421875
0.0281982421875
0.030615234374999998
0.02900390625
0.0281982421875
0.026586914062499998
0.0668701171875
0.049145507812499996
0.02900390625
0.027392578124999997
0.027392578124999997
0.0314208984375
0.027392578124999997
0.0281982421875
0.027392578124999997
1.603271484375
3.0389648437499996
3.0309082031249996
3.0333251953125
3.0349365234374996
3.037353515625
3.0325195312499997
3.0309082031249996
2.9865966796874996
2.79404296875
2.7207275390624996
2.60712890625
2.4645263671874997
2.32998046875
2.2171875
3.0357421875
3.0333251953125
3.034130859375
3.037353515625
3.0365478515624997
3.034130859375
1.60166015625
0.388330078125
0.0281982421875
0.02900390625
0.030615234374999998
0.0281982421875
0.0322265625
0.02900390625
0.02900390625
0.027392578124999997
0.0281982421875
0.0281982421875
0.030615234374999998
0.033837890625
0.0298095703125
0.02900390625
0.02900390625
0.0322265625
0.030615234374999998
0.0298095703125
0.0281982421875
1.670947265625
3.037353515625
3.0365478515624997
3.0389648437499996
3.037353515625
3.0389648437499996
3.0325195312499997
3.0389648437499996
2.8786376953125
3.0389648437499996
2.7328124999999996
2.6369384765625
2.5724853515625
2.4274658203125
2.26552734375
3.034130859375
3.0317138671875
3.0357421875
3.034130859375
3.037353515625
3.0357421875
2.0173828124999997
0.8201660156249999
0.02578125
0.030615234374999998
0.0281982421875
0.0314208984375
0.0298095703125
0.0298095703125
0.0281982421875
0.030615234374999998
0.0322265625
0.02578125
0.0298095703125
0.0298095703125
0.030615234374999998
0.030615234374999998
0.0298095703125
0.030615234374999998
0.0298095703125
0.0298095703125
0.0298095703125
0.026586914062499998
2.85849609375
3.0349365234374996
3.0301025390625
3.0397705078125
3.0333251953125
3.037353515625
3.0333251953125
2.9914306640625
3.0357421875
2.7408691406249996
2.6868896484375
2.5740966796875
2.40732421875
2.2751953124999997
2.9962646484374997
3.034130859375
3.0365478515624997
3.037353515625
3.034130859375
3.0389648437499996
2.8270751953124997
1.3502929687499998
0.0298095703125
0.02900390625
0.030615234374999998
0.02900390625
0.030615234374999998
0.033032226562499996
0.026586914062499998
0.030615234374999998
0.0314208984375
0.11037597656249999
0.0322265625
0.0733154296875
0.09023437499999999
0.033032226562499996
0.030615234374999998
0.02900390625
0.0314208984375
0.0346435546875
0.030615234374999998
0.0314208984375
1.8369140625
3.0325195312499997
3.037353515625
3.0333251953125
3.037353515625
3.0357421875
3.0365478515624997
3.0043212890624997
2.9438964843749997
3.0139892578125
2.7183105468749997
2.5934326171874997
2.5168945312499997
2.36220703125
2.6200195312499996
3.034130859375
3.0357421875
3.0357421875
3.0365478515624997
3.0365478515624997
3.0349365234374996
1.4800048828124999
0.0845947265625
0.0298095703125
0.0322265625
0.0298095703125
0.02900390625
0.030615234374999998
0.0298095703125
0.033837890625
0.027392578124999997
0.030615234374999998
0.0314208984375
0.026586914062499998
0.0346435546875
0.0298095703125
0.0298095703125
0.0314208984375
0.030615234374999998
0.030615234374999998
0.030615234374999998
0.033032226562499996
1.7821289062499999
3.0333251953125
3.0325195312499997
3.0365478515624997
3.037353515625
3.0405761718749997
3.0381591796875
3.037353515625
3.0389648437499996
2.779541015625
2.7271728515625
2.6820556640624997
2.560400390625
2.358984375
1.5879638671874998
3.0357421875
3.0357421875
3.0357421875
3.0357421875
3.037353515625
3.0357421875
1.7080078125
0.6904541015625
0.033032226562499996
0.030615234374999998
0.030615234374999998
0.030615234374999998
0.0322265625
0.0298095703125
0.026586914062499998
0.0281982421875
0.0298095703125
0.030615234374999998
0.030615234374999998
0.0314208984375
0.030615234374999998
0.030615234374999998
0.0314208984375
0.0298095703125
0.030615234374999998
0.0314208984375
0.027392578124999997
0.2940673828125
3.0357421875
3.0357421875
3.0365478515624997
3.0365478515624997
3.0365478515624997
3.0357421875
3.034130859375
2.9946533203124996
2.9664550781249996
2.8375488281249996
2.7166992187499996
2.5837646484374996
2.489501953125
2.3315917968749997
3.0365478515624997
3.0349365234374996
3.0365478515624997
3.037353515625
3.0381591796875
3.0381591796875
2.63291015625
0.6413085937499999
0.0314208984375
0.0314208984375
0.0322265625
0.0298095703125
0.030615234374999998
0.0314208984375
0.0346435546875
0.0298095703125
0.033837890625
0.030615234374999998
0.0314208984375
0.030615234374999998
0.033032226562499996
0.026586914062499998
0.0298095703125
0.030615234374999998
0.02900390625
0.030615234374999998
0.0298095703125
0.033032226562499996
3.037353515625
3.0365478515624997
3.0381591796875
3.0365478515624997
3.034130859375
3.0397705078125
3.0381591796875
3.0252685546875
2.634521484375
2.7352294921875
2.7344238281249997
2.5773193359374997
2.4524414062499997
2.30419921875
3.0325195312499997
3.0357421875
3.037353515625
3.0333251953125
3.034130859375
3.0357421875
2.6925292968749996
1.287451171875
0.0298095703125
0.033032226562499996
0.0281982421875
0.030615234374999998
0.0394775390625
0.0298095703125
0.0314208984375
0.033032226562499996
0.02900390625
0.0314208984375
0.030615234374999998
0.0322265625
0.0314208984375
0.0298095703125
0.0281982421875
0.030615234374999998
0.030615234374999998
0.030615234374999998
0.0298095703125
0.0298095703125
2.2671386718749997
3.0357421875
3.0317138671875
3.0357421875
3.0365478515624997
3.0357421875
3.037353515625
3.0123779296874997
3.0349365234374996
2.7650390624999996
2.6683593749999996
2.4943359375
2.325146484375
2.2502197265625
1.3946044921874998
3.0317138671875
3.034130859375
3.0333251953125
3.0349365234374996
3.0349365234374996
3.0365478515624997
1.5758789062499998
0.0298095703125
0.026586914062499998
0.0314208984375
0.02900390625
0.0314208984375
0.030615234374999998
0.0298095703125
0.030615234374999998
0.0298095703125
0.0298095703125
0.0298095703125
0.042700195312499994
0.033032226562499996
0.09990234375
0.0298095703125
0.0298095703125
0.030615234374999998
0.033032226562499996
0.033837890625
0.030615234374999998
1.4074951171874999
3.0357421875
3.0325195312499997
3.0333251953125
3.0365478515624997
3.0389648437499996
3.0349365234374996
3.0333251953125
2.9044189453125
2.6748046875
2.7408691406249996
2.7328124999999996
2.4919189453125
2.389599609375
2.231689453125
3.034130859375
3.034130859375
3.037353515625
3.0381591796875
3.0357421875
3.0357421875
1.6266357421875
0.38349609375
0.0298095703125
0.0298095703125
0.0298095703125
0.033032226562499996
0.0298095703125
0.0298095703125
0.0298095703125
0.02578125
0.0281982421875
0.030615234374999998
0.330322265625
0.0910400390625
0.072509765625
0.0298095703125
0.030615234374999998
0.02900390625
0.0298095703125
0.027392578124999997
0.0298095703125
1.1053710937499999
3.0357421875
3.0365478515624997
3.0365478515624997
3.0349365234374996
3.037353515625
3.037353515625
3.034130859375
2.9970703125
3.037353515625
2.7851806640624996
2.6739990234374997
2.5475097656249996
2.4919189453125
2.3009765625
3.0365478515624997
3.0389648437499996
3.034130859375
3.0357421875
3.034130859375
3.037353515625
2.334814453125
0.9603515625
0.0314208984375
0.0298095703125
0.0281982421875
0.0281982421875
0.0314208984375
0.027392578124999997
0.0346435546875
0.0314208984375
0.02900390625
0.027392578124999997
0.033837890625
0.0394775390625
0.0314208984375
0.033032226562499996
0.026586914062499998
0.0298095703125
0.030615234374999998
0.0298095703125
0.0298095703125
0.027392578124999997
2.7545654296874997
3.0365478515624997
3.0357421875
3.037353515625
3.0365478515624997
3.037353515625
2.9672607421875
3.0357421875
2.9592041015625
2.760205078125
2.7545654296874997
2.6538574218749997
2.4822509765625
2.3968505859375
2.5394531249999996
3.0349365234374996
3.0349365234374996
3.0389648437499996
3.0325195312499997
3.0365478515624997
