3.0381591796875
3.0333251953125
3.0349365234374996
3.0357421875
3.0357421875
3.0357421875
3.0357421875
3.0357421875
2.9181152343749996
2.8238525390625
2.8149902343749997
2.7046142578124996
2.6619140624999997
2.53623046875
3.0365478515624997
3.0357421875
3.0309082031249996
3.0333251953125
3.0317138671875
3.034130859375
1.3849365234375
0.0298095703125
0.030615234374999998
0.0298095703125
0.0298095703125
0.0298095703125
0.027392578124999997
0.02578125
0.0314208984375
0.0314208984375
0.030615234374999998
0.033032226562499996
0.0281982421875
0.033032226562499996
0.026586914062499998
0.023364257812499997
0.02900390625
0.0298095703125
0.0298095703125
0.0322265625
0.0298095703125
0.02900390625
3.034130859375
3.0357421875
3.0349365234374996
3.0357421875
3.0381591796875
3.0309082031249996
3.0397705078125
3.037353515625
3.0389648437499996
2.8512451171874997
2.8206298828125
2.8069335937499997
2.7368408203124996
2.5837646484374996
3.0357421875
3.0333251953125
3.0333251953125
3.0325195312499997
3.0333251953125
3.0349365234374996
3.0349365234374996
0.030615234374999998
0.0298095703125
0.02900390625
0.030615234374999998
0.0298095703125
0.0298095703125
0.0298095703125
0.0298095703125
0.02900390625
0.0322265625
0.0298095703125
0.02900390625
0.0298095703125
0.0298095703125
0.0298095703125
0.0322265625
0.026586914062499998
0.030615234374999998
0.0298095703125
0.0281982421875
0.0298095703125
3.0349365234374996
3.0357421875
3.0333251953125
3.034130859375
3.034130859375
3.0357421875
3.0357421875
3.034130859375
3.0349365234374996
3.0357421875
2.8883056640625
2.7908203124999997
2.7569824218749996
2.5386474609375
2.4419677734375
3.037353515625
3.0333251953125
3.0349365234374996
3.0357421875
3.034130859375
3.0349365234374996
0.5905517578125
0.02900390625
0.02900390625
0.02900390625
0.02900390625
0.027392578124999997
0.0314208984375
0.0298095703125
0.026586914062499998
0.030615234374999998
0.030615234374999998
0.02900390625
0.0298095703125
0.02900390625
0.030615234374999998
0.0322265625
0.0298095703125
0.0281982421875
0.02900390625
0.0298095703125
0.0281982421875
0.0314208984375
3.0446044921874997
3.034130859375
3.0357421875
3.034130859375
3.0365478515624997
3.0357421875
3.0357421875
3.0397705078125
3.034130859375
2.8464111328125
2.892333984375
2.7352294921875
2.6723876953124996
2.6127685546875
3.034130859375
3.0333251953125
3.0349365234374996
3.0333251953125
3.034130859375
3.034130859375
0.605859375
0.0281982421875
0.0298095703125
0.026586914062499998
0.030615234374999998
0.0314208984375
0.02900390625
0.030615234374999998
0.02900390625
0.0298095703125
0.0298095703125
0.0314208984375
0.0298095703125
0.02900390625
0.030615234374999998
0.0298095703125
0.026586914062499998
0.0322265625
0.0298095703125
0.027392578124999997
0.02900390625
0.02578125
2.9737060546875
3.0365478515624997
3.0389648437499996
3.0365478515624997
3.0333251953125
3.0349365234374996
3.0365478515624997
3.0333251953125
3.0365478515624997
3.0147949218749996
3.0268798828124996
2.9100585937499996
2.771484375
2.63291015625
3.0365478515624997
3.034130859375
3.0357421875
3.029296875
3.034130859375
3.034130859375
3.0325195312499997
0.02578125
0.027392578124999997
0.026586914062499998
0.0298095703125
0.02900390625
0.0298095703125
0.026586914062499998
0.02900390625
0.0298095703125
0.0322265625
0.0298095703125
0.02900390625
0.0314208984375
0.0298095703125
0.0298095703125
0.030615234374999998
0.02900390625
0.02900390625
0.0314208984375
0.02900390625
0.033032226562499996
3.0357421875
3.0365478515624997
3.0381591796875
3.034130859375
3.034130859375
3.034130859375
3.034130859375
3.0365478515624997
3.0317138671875
3.0357421875
2.8915283203124997
2.802099609375
2.785986328125
2.60068359375
3.0002929687499997
3.0349365234374996
3.0333251953125
3.0365478515624997
3.0357421875
3.0365478515624997
3.0333251953125
0.4125
0.026586914062499998
0.0281982421875
0.0322265625
0.026586914062499998
0.0322265625
0.02900390625
0.030615234374999998
0.030615234374999998
0.02900390625
0.0346435546875
0.026586914062499998
0.0314208984375
0.02900390625
0.0298095703125
0.02900390625
0.026586914062499998
0.02578125
0.0314208984375
0.027392578124999997
0.0249755859375
0.02900390625
3.0107666015624996
3.034130859375
3.0357421875
3.034130859375
3.034130859375
3.037353515625
3.0365478515624997
3.0333251953125
3.0357421875
2.8721923828125
2.89716796875
2.7932373046874996
2.70380859375
2.5289794921874997
3.0349365234374996
3.037353515625
3.0309082031249996
3.034130859375
3.0357421875
3.0309082031249996
0.5035400390625
0.02900390625
0.0298095703125
0.0322265625
0.02900390625
0.0298095703125
0.0322265625
0.0298095703125
0.02578125
0.0298095703125
0.030615234374999998
0.030615234374999998
0.026586914062499998
0.02900390625
0.030615234374999998
0.0314208984375
0.02578125
0.02900390625
0.0322265625
0.02900390625
0.02900390625
0.0298095703125
3.0357421875
3.0333251953125
3.0357421875
3.0357421875
3.0357421875
3.0317138671875
3.0357421875
3.037353515625
3.0349365234374996
3.0317138671875
2.9302001953124996
2.8423828125
2.7142822265624997
2.5716796874999996
3.0389648437499996
3.034130859375
3.0333251953125
3.0357421875
3.037353515625
3.0357421875
2.8431884765624997
0.027392578124999997
0.0298095703125
0.02900390625
0.0314208984375
0.0322265625
0.030615234374999998
0.0281982421875
0.026586914062499998
0.0298095703125
0.030615234374999998
0.02900390625
0.0298095703125
0.0322265625
0.030615234374999998
0.0281982421875
0.0298095703125
0.02900390625
0.02900390625
0.0314208984375
0.0314208984375
0.02900390625
3.037353515625
3.034130859375
3.034130859375
3.0357421875
3.0349365234374996
3.0317138671875
3.037353515625
3.0325195312499997
2.73603515625
2.9463134765624996
2.9020019531249996
2.8141845703125
2.7263671874999997
2.5475097656249996
3.0365478515624997
3.0317138671875
3.0357421875
3.034130859375
3.0357421875
3.0357421875
3.034130859375
0.41572265625
0.02900390625
0.0322265625
0.02900390625
0.033837890625
0.0281982421875
0.0314208984375
0.030615234374999998
0.0314208984375
0.030615234374999998
0.026586914062499998
0.0298095703125
0.02900390625
0.0249755859375
0.02900390625
0.027392578124999997
0.0281982421875
0.02578125
0.030615234374999998
0.0322265625
0.02578125
0.0281982421875
3.029296875
3.0357421875
3.0381591796875
3.034130859375
3.0357421875
3.0349365234374996
3.0365478515624997
3.0357421875
3.037353515625
2.8834716796874997
2.8874999999999997
2.8230468749999997
2.6603027343749996
2.4983642578125
3.0349365234374996
3.0349365234374996
3.037353515625
3.0349365234374996
3.034130859375
3.037353515625
0.5679931640625
0.02900390625
0.033032226562499996
0.02900390625
0.0281982421875
0.0298095703125
0.02900390625
0.026586914062499998
0.027392578124999997
0.0281982421875
0.02578125
0.02900390625
0.033837890625
0.02578125
0.0298095703125
0.02900390625
0.026586914062499998
0.0298095703125
0.02900390625
0.02900390625
0.0281982421875
0.027392578124999997
2.6490234375
3.0365478515624997
3.034130859375
3.037353515625
3.0333251953125
3.0365478515624997
3.0325195312499997
3.037353515625
2.9495361328125
3.0147949218749996
2.89072265625
2.8077392578125
2.6820556640624997
2.534619140625
3.0365478515624997
3.0381591796875
3.0309082031249996
3.0309082031249996
3.0333251953125
3.0333251953125
2.5458984375
0.0322265625
0.02900390625
0.02900390625
0.02900390625
0.02900390625
0.02900390625
0.02900390625
0.0322265625
0.0298095703125
0.027392578124999997
0.033032226562499996
0.0281982421875
0.02900390625
0.0298095703125
0.027392578124999997
0.0281982421875
0.033032226562499996
0.02578125
0.033032226562499996
0.026586914062499998
0.02900390625
2.802099609375
3.0357421875
3.0357421875
3.0365478515624997
3.037353515625
3.034130859375
3.0365478515624997
3.034130859375
2.60068359375
2.850439453125
2.921337890625
2.8947509765625
2.76181640625
2.65869140625
3.034130859375
3.0349365234374996
3.0357421875
3.0333251953125
3.034130859375
3.0349365234374996
3.034130859375
0.2892333984375
0.02900390625
0.02900390625
0.026586914062499998
0.0281982421875
0.0298095703125
0.030615234374999998
0.033032226562499996
0.0281982421875
0.02900390625
0.0314208984375
0.0298095703125
0.02900390625
0.0298095703125
0.0281982421875
0.02900390625
0.0298095703125
0.02900390625
0.0298095703125
0.02900390625
0.0314208984375
0.027392578124999997
2.9825683593749996
3.0325195312499997
3.0357421875
3.0333251953125
3.034130859375
3.034130859375
3.0325195312499997
3.0357421875
3.0204345703124997
2.8625244140625
2.83271484375
2.7408691406249996
2.616796875
2.5209228515624997
3.0349365234374996
3.0357421875
3.0325195312499997
3.037353515625
3.034130859375
3.0349365234374996
0.620361328125
0.02900390625
0.02900390625
0.02900390625
0.02578125
0.02900390625
0.0314208984375
0.0298095703125
0.027392578124999997
0.0314208984375
0.026586914062499998
0.0249755859375
0.02900390625
0.0281982421875
0.030615234374999998
0.033032226562499996
0.027392578124999997
0.0298095703125
0.02900390625
0.0298095703125
0.030615234374999998
0.02900390625
2.389599609375
3.0349365234374996
3.0325195312499997
3.034130859375
3.0349365234374996
3.0357421875
3.0365478515624997
3.0349365234374996
2.78759765625
2.9398681640624997
2.8254638671874996
2.7658447265625
2.689306640625
2.56201171875
3.0349365234374996
3.0349365234374996
3.0349365234374996
3.0349365234374996
3.0365478515624997
3.0333251953125
2.2083251953125
0.0298095703125
0.033837890625
0.030615234374999998
0.0281982421875
0.0249755859375
0.02900390625
0.027392578124999997
0.02900390625
0.0314208984375
0.02900390625
0.030615234374999998
0.0298095703125
0.0322265625
0.030615234374999998
0.0281982421875
0.027392578124999997
0.0298095703125
0.0298095703125
0.0281982421875
0.02900390625
0.02900390625
2.4419677734375
3.0365478515624997
3.0357421875
3.0333251953125
3.0357421875
3.034130859375
3.0309082031249996
3.0365478515624997
3.0333251953125
2.802099609375
2.8899169921874996
2.8552734374999997
2.7183105468749997
2.6159912109374996
3.0325195312499997
3.037353515625
3.0365478515624997
3.0349365234374996
3.037353515625
3.034130859375
2.8399658203125
0.33354492187499996
0.024169921875
0.0298095703125
0.0298095703125
0.0298095703125
0.0281982421875
0.02900390625
0.02900390625
0.040283203125
0.02900390625
0.0281982421875
0.0298095703125
0.0298095703125
0.0298095703125
0.0298095703125
0.0298095703125
0.0298095703125
0.02900390625
0.030615234374999998
0.02900390625
0.0298095703125
0.027392578124999997
3.02607421875
3.0357421875
3.0349365234374996
3.0333251953125
3.0268798828124996
3.0349365234374996
3.0357421875
3.0357421875
2.956787109375
2.9269775390625
2.8633300781249997
2.7465087890624997
2.6643310546874996
2.576513671875
3.0365478515624997
3.0333251953125
3.0333251953125
3.0333251953125
3.0357421875
3.0357421875
0.6582275390625
0.033032226562499996
0.0298095703125
0.02900390625
0.0298095703125
0.0298095703125
0.027392578124999997
0.02900390625
0.030615234374999998
0.02578125
0.02900390625
0.030615234374999998
0.026586914062499998
0.0281982421875
0.0298095703125
0.0298095703125
0.02578125
0.02578125
0.02900390625
0.0314208984375
0.02900390625
0.02900390625
3.0244628906249997
3.0389648437499996
3.0389648437499996
3.0349365234374996
3.034130859375
3.034130859375
3.0333251953125
3.0389648437499996
2.827880859375
3.0172119140625
2.9608154296875
2.8673583984374997
2.7424804687499997
2.5869873046875
3.0349365234374996
3.034130859375
3.0357421875
3.0317138671875
3.034130859375
3.0349365234374996
0.597802734375
0.0281982421875
0.0298095703125
0.02900390625
0.02578125
0.0314208984375
0.0249755859375
0.0298095703125
0.030615234374999998
0.0298095703125
0.0314208984375
0.0281982421875
0.0298095703125
0.0281982421875
0.0281982421875
0.026586914062499998
0.0281982421875
0.027392578124999997
0.02900390625
0.033032226562499996
0.0298095703125
0.033032226562499996
2.260693359375
3.0349365234374996
3.0349365234374996
3.034130859375
3.0349365234374996
3.0317138671875
3.0333251953125
3.0349365234374996
3.034130859375
3.0147949218749996
2.8883056640625
2.8294921874999996
2.6917236328125
2.5644287109375
3.037353515625
3.0357421875
3.0357421875
3.0365478515624997
3.037353515625
3.0317138671875
2.1760986328125
0.275537109375
0.02900390625
0.02900390625
0.0298095703125
0.0298095703125
0.030615234374999998
0.02900390625
0.0322265625
0.1087646484375
0.02900390625
0.0314208984375
0.0298095703125
0.0314208984375
0.02900390625
0.02900390625
0.0362548828125
0.0298095703125
0.0314208984375
0.0298095703125
0.02900390625
0.030615234374999998
0.0281982421875
3.0357421875
3.0357421875
3.034130859375
3.037353515625
3.0349365234374996
3.0349365234374996
3.0317138671875
2.6699707031249997
2.9414794921875
2.9414794921875
2.9608154296875
2.7561767578125
2.67158203125
2.5483154296875
3.0349365234374996
3.0365478515624997
3.0365478515624997
3.034130859375
3.0333251953125
3.0357421875
0.8467529296874999
0.0314208984375
0.033837890625
0.026586914062499998
0.026586914062499998
0.02900390625
0.030615234374999998
0.02900390625
0.02900390625
0.0322265625
0.0314208984375
0.037060546874999996
0.027392578124999997
0.0322265625
0.033032226562499996
0.0298095703125
0.02900390625
0.030615234374999998
0.02900390625
0.026586914062499998
0.0322265625
0.0281982421875
2.9334228515625
3.034130859375
3.0357421875
3.034130859375
3.0349365234374996
3.0357421875
3.0333251953125
3.0357421875
2.8238525390625
2.921337890625
2.9044189453125
2.7690673828124996
2.6876953125
2.5096435546875
3.034130859375
3.0309082031249996
3.0357421875
3.034130859375
3.0349365234374996
3.0349365234374996
0.7532958984375
0.0322265625
0.02900390625
0.0346435546875
0.02900390625
0.02900390625
0.02900390625
0.026586914062499998
0.02900390625
0.02900390625
0.0322265625
0.0298095703125
0.02900390625
0.0281982421875
0.027392578124999997
0.030615234374999998
0.026586914062499998
0.02900390625
0.027392578124999997
0.043505859375
0.027392578124999997
0.0298095703125
2.13662109375
3.0357421875
3.0333251953125
3.0365478515624997
3.0357421875
3.0317138671875
3.0365478515624997
3.0365478515624997
3.0309082031249996
3.01962890625
2.8915283203124997
2.8367431640625
2.6965576171874996
2.5402587890625
3.0365478515624997
3.0365478515624997
3.0349365234374996
3.0309082031249996
3.034130859375
3.034130859375
2.0133544921874997
0.0298095703125
0.033032226562499996
0.030615234374999998
0.0298095703125
0.02900390625
0.030615234374999998
0.0249755859375
0.033032226562499996
0.026586914062499998
0.0314208984375
0.0281982421875
0.02900390625
0.0298095703125
0.02900390625
0.0281982421875
0.0322265625
0.026586914062499998
0.030615234374999998
0.026586914062499998
0.0281982421875
0.030615234374999998
2.176904296875
3.034130859375
3.0349365234374996
3.034130859375
3.037353515625
3.0317138671875
3.0357421875
3.0389648437499996
3.0349365234374996
2.7569824218749996
2.8818603515624996
2.8190185546874997
2.6965576171874996
2.602294921875
3.0349365234374996
3.0389648437499996
3.037353515625
3.034130859375
3.0349365234374996
3.0421875
3.037353515625
0.26748046875
0.02578125
0.030615234374999998
0.027392578124999997
0.0298095703125
0.0298095703125
0.02900390625
0.0298095703125
0.1313232421875
0.033032226562499996
0.0298095703125
0.02900390625
0.043505859375
0.02900390625
0.02578125
0.0281982421875
0.02900390625
0.02900390625
0.0322265625
0.02900390625
0.030615234374999998
0.0298095703125
3.01318359375
3.0325195312499997
3.0309082031249996
3.0357421875
3.037353515625
3.037353515625
3.0357421875
3.0333251953125
3.034130859375
2.9583984374999996
2.8915283203124997
2.7481201171875
2.7166992187499996
2.5555664062499996
3.034130859375
3.0325195312499997
3.0333251953125
3.0357421875
3.0349365234374996
3.0381591796875
1.036083984375
0.0322265625
0.030615234374999998
0.027392578124999997
0.0281982421875
0.0298095703125
0.030615234374999998
0.0298095703125
0.0298095703125
0.0298095703125
0.0298095703125
0.02900390625
0.02900390625
0.0314208984375
0.0322265625
0.0298095703125
0.0298095703125
0.0281982421875
0.0298095703125
0.0322265625
0.0298095703125
0.02578125
2.9761230468749997
3.0357421875
3.034130859375
3.0317138671875
3.034130859375
3.034130859375
3.034130859375
3.0357421875
2.70703125
2.8528564453125
2.7577880859375
2.7650390624999996
2.5813476562499997
2.4749999999999996
3.0349365234374996
3.0333251953125
3.034130859375
3.0357421875
3.0325195312499997
3.034130859375
0.8290283203125
0.0281982421875
0.02900390625
0.02900390625
0.0298095703125
0.0298095703125
0.0298095703125
0.0298095703125
0.0322265625
0.02578125
0.02900390625
0.030615234374999998
0.026586914062499998
0.02900390625
0.026586914062499998
0.033032226562499996
0.027392578124999997
0.030615234374999998
0.0298095703125
0.0298095703125
0.02900390625
0.0281982421875
1.835302734375
3.037353515625
3.0349365234374996
3.0381591796875
3.0333251953125
3.037353515625
3.0325195312499997
3.037353515625
3.0365478515624997
2.7521484375
2.872998046875
2.7626220703124997
2.6240478515624996
2.5273681640624996
3.034130859375
3.0365478515624997
3.0357421875
3.0357421875
3.034130859375
3.0365478515624997
3.0325195312499997
0.167578125
0.0281982421875
0.027392578124999997
0.02900390625
0.02900390625
0.026586914062499998
0.027392578124999997
0.030615234374999998
0.0346435546875
0.02900390625
0.027392578124999997
0.027392578124999997
0.02900390625
0.0298095703125
0.0322265625
0.0298095703125
0.0298095703125
0.02900390625
0.0281982421875
0.0314208984375
0.0298095703125
0.024169921875
2.9930419921875
3.034130859375
3.0365478515624997
3.034130859375
3.0365478515624997
3.0317138671875
3.0357421875
3.0333251953125
3.0389648437499996
2.9414794921875
2.8818603515624996
2.7481201171875
2.6256591796874997
2.49755859375
3.0389648437499996
3.0333251953125
3.034130859375
3.0349365234374996
3.0381591796875
3.0381591796875
0.749267578125
0.0281982421875
0.026586914062499998
0.02900390625
0.02900390625
0.02900390625
0.0298095703125
0.0322265625
0.02900390625
0.02900390625
0.0281982421875
0.0249755859375
0.030615234374999998
0.030615234374999998
0.0298095703125
0.0322265625
0.026586914062499998
0.0314208984375
0.02900390625
0.0298095703125
0.0314208984375
0.0298095703125
2.4911132812499996
3.0357421875
3.0365478515624997
3.0317138671875
3.0325195312499997
3.037353515625
3.034130859375
3.0325195312499997
2.8125732421875
2.8536621093749996
2.8375488281249996
2.7021972656249997
2.65546875
2.553955078125
3.0365478515624997
3.0349365234374996
3.0349365234374996
3.0381591796875
3.034130859375
3.0333251953125
1.0642822265625
0.0249755859375
0.0298095703125
0.0298095703125
0.0298095703125
0.0298095703125
0.0298095703125
0.026586914062499998
0.02900390625
0.027392578124999997
0.0298095703125
0.027392578124999997
0.02900390625
0.02900390625
0.0314208984375
0.030615234374999998
0.0322265625
0.0322265625
0.02900390625
0.02900390625
0.0281982421875
0.0281982421875
2.463720703125
3.0349365234374996
3.0365478515624997
3.0349365234374996
3.034130859375
3.0357421875
3.034130859375
3.0357421875
3.0325195312499997
2.8528564453125
2.9817626953125
2.8230468749999997
2.7642333984375
2.6699707031249997
3.0349365234374996
3.034130859375
3.034130859375
3.0381591796875
3.0357421875
3.034130859375
3.037353515625
0.0322265625
0.0281982421875
0.0314208984375
0.02900390625
0.0298095703125
0.02900390625
0.02900390625
0.0298095703125
0.0314208984375
0.0281982421875
0.02900390625
0.02900390625
0.02900390625
0.0322265625
0.026586914062499998
0.02900390625
0.02900390625
0.0298095703125
0.0281982421875
0.0298095703125
0.02900390625
0.4600341796875
3.0357421875
3.0349365234374996
3.034130859375
3.0325195312499997
3.0325195312499997
3.034130859375
3.0365478515624997
3.034130859375
3.034130859375
2.9583984374999996
2.9011962890625
2.8061279296875
2.6466064453125
2.5168945312499997
3.034130859375
3.0357421875
3.0365478515624997
3.0365478515624997
3.0357421875
3.0349365234374996
0.620361328125
0.02900390625
0.0298095703125
0.030615234374999998
0.02900390625
0.0322265625
0.02900390625
0.0281982421875
0.0298095703125
0.0298095703125
0.0322265625
0.033032226562499996
0.027392578124999997
0.02900390625
0.0298095703125
0.02578125
0.0281982421875
0.0298095703125
0.0298095703125
0.0298095703125
0.030615234374999998
0.02900390625
2.341259765625
3.0349365234374996
3.034130859375
3.0365478515624997
3.0349365234374996
3.0357421875
3.0349365234374996
3.0349365234374996
3.0333251953125
2.9028076171875
2.8705810546875
2.7368408203124996
2.6401611328124996
2.5716796874999996
3.0333251953125
3.0365478515624997
3.0365478515624997
3.0357421875
3.034130859375
3.0365478515624997
0.8838134765625
0.02900390625
0.0298095703125
0.030615234374999998
0.0322265625
0.0298095703125
0.02900390625
0.033837890625
0.026586914062499998
0.0281982421875
0.0281982421875
0.0298095703125
0.026586914062499998
0.033032226562499996
0.0281982421875
0.033032226562499996
0.0298095703125
0.0298095703125
0.0281982421875
0.02900390625
0.02900390625
0.030615234374999998
2.3082275390625
3.037353515625
3.0349365234374996
3.0357421875
3.034130859375
3.0357421875
3.0349365234374996
3.0357421875
3.0381591796875
2.9253662109375
2.9704833984374996
2.8866943359375
2.792431640625
2.6490234375
3.034130859375
3.0365478515624997
3.0357421875
3.034130859375
3.034130859375
3.0349365234374996
3.0389648437499996
0.0298095703125
0.0298095703125
0.0346435546875
0.0298095703125
0.0298095703125
0.0298095703125
0.026586914062499998
0.0298095703125
0.02900390625
0.0298095703125
0.02900390625
0.0314208984375
0.02900390625
0.030615234374999998
0.0281982421875
0.026586914062499998
0.02900390625
0.026586914062499998
0.0281982421875
0.0322265625
0.02900390625
2.898779296875
3.037353515625
3.0357421875
3.037353515625
3.0357421875
3.0349365234374996
3.034130859375
3.0357421875
3.0349365234374996
3.037353515625
2.947119140625
2.8141845703125
2.7739013671875
2.5934326171874997
2.55234375
3.037353515625
3.0357421875
3.0317138671875
3.0357421875
3.0357421875
3.037353515625
0.51884765625
0.0298095703125
0.026586914062499998
0.030615234374999998
0.026586914062499998
0.026586914062499998
0.02900390625
0.0298095703125
0.0298095703125
0.02900390625
0.0298095703125
0.027392578124999997
0.026586914062499998
0.033032226562499996
0.030615234374999998
0.02900390625
0.0298095703125
0.02900390625
0.027392578124999997
0.02900390625
0.030615234374999998
0.02578125
2.89072265625
3.0357421875
3.0317138671875
3.0357421875
3.0349365234374996
3.0357421875
3.037353515625
3.0349365234374996
3.034130859375
2.892333984375
2.924560546875
2.7642333984375
2.65869140625
2.5579833984375
3.034130859375
3.0349365234374996
3.0349365234374996
3.0357421875
3.037353515625
3.0365478515624997
0.5124023437499999
0.02900390625
0.0281982421875
0.02900390625
0.0298095703125
0.026586914062499998
0.0314208984375
0.0281982421875
0.033032226562499996
0.0298095703125
0.02900390625
0.026586914062499998
0.02900390625
0.02900390625
0.02578125
0.0281982421875
0.0298095703125
0.0298095703125
0.02900390625
0.0298095703125
0.02900390625
0.02578125
2.18173828125
3.0357421875
3.0357421875
3.0357421875
3.0357421875
3.0381591796875
3.0357421875
3.0365478515624997
3.0357421875
2.9672607421875
2.8939453124999996
2.860107421875
2.7900146484375
2.6232421875
3.0357421875
3.0333251953125
3.034130859375
3.034130859375
3.0325195312499997
3.0365478515624997
3.0349365234374996
0.0314208984375
0.0298095703125
0.0298095703125
0.0298095703125
0.033032226562499996
0.0281982421875
0.02900390625
0.027392578124999997
0.0298095703125
0.0298095703125
0.02900390625
0.02900390625
0.027392578124999997
0.0314208984375
0.027392578124999997
0.027392578124999997
0.0298095703125
0.02900390625
0.0298095703125
0.02900390625
0.0298095703125
2.1382324218749997
3.0365478515624997
3.0317138671875
3.0349365234374996
3.034130859375
3.034130859375
3.0317138671875
3.034130859375
3.0389648437499996
3.0309082031249996
2.9720947265624997
2.8617187499999996
2.8391601562499997
2.63291015625
3.034130859375
3.034130859375
3.0325195312499997
3.0365478515624997
3.0357421875
3.0349365234374996
3.0381591796875
0.42539062499999997
0.033032226562499996
0.02900390625
0.02900390625
0.030615234374999998
0.02900390625
0.02900390625
0.0281982421875
0.02900390625
0.0298095703125
0.0298095703125
0.02900390625
0.0298095703125
0.02900390625
0.0298095703125
0.0298095703125
0.02578125
0.033032226562499996
0.02900390625
0.030615234374999998
0.030615234374999998
0.033032226562499996
2.818212890625
3.034130859375
3.037353515625
3.037353515625
3.0349365234374996
3.037353515625
3.0333251953125
3.0333251953125
3.0349365234374996
2.8810546875
2.900390625
2.7690673828124996
2.6691650390625
2.495947265625
3.0333251953125
3.0357421875
3.0333251953125
3.037353515625
3.0333251953125
3.0349365234374996
0.47050781249999996
0.02900390625
0.02900390625
0.0298095703125
0.030615234374999998
0.0298095703125
0.030615234374999998
0.027392578124999997
0.033032226562499996
0.030615234374999998
0.02578125
0.033032226562499996
0.0281982421875
0.0281982421875
0.027392578124999997
0.02900390625
0.02900390625
0.0281982421875
0.0298095703125
0.02900390625
0.0298095703125
0.030615234374999998
2.6723876953124996
3.034130859375
3.0357421875
3.0357421875
3.0349365234374996
3.0317138671875
3.0357421875
3.034130859375
3.0357421875
2.9769287109375
2.91650390625
2.8037109375
2.7384521484374997
2.5555664062499996
3.0357421875
3.0349365234374996
3.034130859375
3.034130859375
3.0349365234374996
3.0357421875
3.034130859375
0.0298095703125
0.0298095703125
0.030615234374999998
0.0298095703125
0.030615234374999998
0.0298095703125
0.02900390625
0.026586914062499998
0.02900390625
0.0281982421875
0.02900390625
0.02578125
0.02578125
0.02900390625
0.0314208984375
0.0298095703125
0.0298095703125
0.0281982421875
0.030615234374999998
0.030615234374999998
0.0298095703125
2.410546875
3.0381591796875
3.0357421875
3.0365478515624997
3.0365478515624997
3.034130859375
3.0333251953125
3.034130859375
2.9600097656249997
3.0397705078125
2.9559814453124997
2.8552734374999997
2.7900146484375
2.5894042968749997
3.0357421875
3.0365478515624997
3.0309082031249996
3.0357421875
3.0309082031249996
3.0365478515624997
3.034130859375
0.510791015625
0.0322265625
0.033032226562499996
0.0298095703125
0.0298095703125
0.027392578124999997
0.030615234374999998
0.02578125
0.02578125
0.02578125
0.027392578124999997
0.0249755859375
0.02578125
0.0298095703125
0.04189453125
0.027392578124999997
0.0298095703125
0.02578125
0.0314208984375
0.02900390625
0.033032226562499996
0.0281982421875
2.6764160156249996
3.0357421875
3.0349365234374996
3.0389648437499996
3.0333251953125
3.0349365234374996
3.037353515625
3.0381591796875
3.034130859375
2.900390625
2.8552734374999997
2.848828125
2.6868896484375
2.5257568359375
3.034130859375
3.034130859375
3.0357421875
3.0333251953125
3.0333251953125
3.0325195312499997
0.871728515625
0.0298095703125
0.027392578124999997
0.027392578124999997
0.030615234374999998
0.02578125
0.02900390625
0.0298095703125
0.033032226562499996
0.0298095703125
0.0281982421875
0.0298095703125
0.0298095703125
0.030615234374999998
0.0322265625
0.02900390625
0.02900390625
0.0298095703125
0.0298095703125
0.0298095703125
0.02900390625
0.0298095703125
2.6594970703125
3.0333251953125
3.034130859375
3.0357421875
3.034130859375
3.0365478515624997
3.0349365234374996
3.0349365234374996
3.0365478515624997
3.0268798828124996
2.9543701171874996
2.840771484375
2.8359375
2.631298828125
3.0357421875
3.034130859375
3.0333251953125
3.0349365234374996
3.0365478515624997
3.034130859375
0.43505859375
0.0298095703125
0.02900390625
0.02900390625
0.033032226562499996
0.033837890625
0.02900390625
0.02900390625
0.0298095703125
0.0314208984375
0.0281982421875
0.0298095703125
0.02900390625
0.02578125
0.027392578124999997
0.033032226562499996
0.0281982421875
0.0298095703125
0.0298095703125
0.0298095703125
0.027392578124999997
0.0298095703125
2.7400634765625
3.0333251953125
3.0349365234374996
3.0325195312499997
3.0365478515624997
3.0317138671875
3.0357421875
3.0349365234374996
2.5579833984375
2.969677734375
2.9801513671874997
2.8850830078125
2.82626953125
2.6159912109374996
3.0349365234374996
3.0309082031249996
3.0349365234374996
3.0333251953125
3.0349365234374996
3.0357421875
3.0357421875
0.407666015625
0.0298095703125
0.02900390625
0.02900390625
0.0298095703125
0.0281982421875
0.02900390625
0.027392578124999997
0.0298095703125
0.027392578124999997
0.030615234374999998
0.030615234374999998
0.02900390625
0.02900390625
0.0281982421875
0.0298095703125
0.033032226562499996
0.02900390625
0.027392578124999997
0.0298095703125
0.027392578124999997
0.0314208984375
2.856884765625
3.0381591796875
3.0357421875
3.0333251953125
3.0333251953125
3.034130859375
3.0357421875
3.034130859375
3.037353515625
2.9108642578125
2.860107421875
2.9044189453125
2.7513427734375
2.5724853515625
3.034130859375
3.034130859375
3.0349365234374996
3.0365478515624997
3.034130859375
3.0357421875
0.64453125
0.0298095703125
0.027392578124999997
0.02900390625
0.0298095703125
0.027392578124999997
0.02900390625
0.030615234374999998
0.030615234374999998
0.02900390625
0.02900390625
0.0298095703125
0.027392578124999997
0.02900390625
0.02900390625
0.0298095703125
0.02900390625
0.02900390625
0.0298095703125
0.02900390625
0.02900390625
0.0346435546875
2.47822265625
3.0357421875
3.0365478515624997
3.0357421875
3.0333251953125
3.0357421875
3.034130859375
3.0357421875
2.89072265625
3.01962890625
2.8963623046875
2.7996826171875
2.7424804687499997
2.5418701171875
3.0365478515624997
3.0325195312499997
3.0349365234374996
3.0357421875
3.0317138671875
3.034130859375
0.48017578125
0.0322265625
0.030615234374999998
0.0298095703125
0.0298095703125
0.0314208984375
0.02900390625
0.0298095703125
0.0298095703125
0.0298095703125
0.02900390625
0.0281982421875
0.02900390625
0.0298095703125
0.030615234374999998
0.02900390625
0.02900390625
0.02900390625
0.0298095703125
0.026586914062499998
0.0298095703125
0.02900390625
2.9608154296875
3.0357421875
3.0381591796875
3.0357421875
3.0333251953125
3.0357421875
3.0349365234374996
3.037353515625
2.6490234375
3.0244628906249997
2.892333984375
2.8552734374999997
2.7142822265624997
2.5845703125
3.0317138671875
3.034130859375
3.0381591796875
3.0357421875
3.0325195312499997
3.0309082031249996
3.0357421875
0.285205078125
0.027392578124999997
0.02578125
0.0281982421875
0.02900390625
0.02900390625
0.0314208984375
0.0281982421875
0.027392578124999997
0.0298095703125
0.02578125
0.02900390625
0.030615234374999998
0.0322265625
0.0281982421875
0.0298095703125
0.0298095703125
0.030615234374999998
0.033032226562499996
0.0281982421875
0.0298095703125
0.027392578124999997
3.0349365234374996
3.0325195312499997
3.0357421875
3.0349365234374996
3.037353515625
3.0357421875
3.0365478515624997
2.81015625
3.037353515625
2.9503417968749996
2.9414794921875
2.8963623046875
2.76181640625
2.6111572265625
3.0365478515624997
3.034130859375
3.0309082031249996
3.0317138671875
3.0365478515624997
3.0349365234374996
0.694482421875
0.026586914062499998
0.02900390625
0.0298095703125
0.030615234374999998
0.0298095703125
0.030615234374999998
0.033032226562499996
0.030615234374999998
0.027392578124999997
0.02900390625
0.02900390625
0.02900390625
0.02900390625
0.0281982421875
0.0298095703125
0.02900390625
0.030615234374999998
0.0322265625
0.0362548828125
0.027392578124999997
0.0281982421875
2.9028076171875
3.0381591796875
3.034130859375
3.0381591796875
3.034130859375
3.0349365234374996
3.0357421875
3.034130859375
2.7610107421874996
2.9970703125
2.8472167968749997
2.73603515625
2.615185546875
2.4274658203125
3.034130859375
3.0357421875
3.0333251953125
3.0349365234374996
3.0349365234374996
3.0357421875
0.48984374999999997
0.02900390625
0.02900390625
0.0298095703125
0.02900390625
0.02578125
0.02900390625
0.02900390625
0.02900390625
0.0314208984375
0.02900390625
0.026586914062499998
0.02900390625
0.0298095703125
0.02900390625
0.02578125
0.030615234374999998
0.0314208984375
0.02900390625
0.0249755859375
0.0298095703125
0.0298095703125
2.4967529296874997
3.0365478515624997
3.0357421875
3.0325195312499997
3.0365478515624997
3.037353515625
3.0349365234374996
3.034130859375
3.0301025390625
3.0002929687499997
2.9463134765624996
2.9068359375
2.8109619140624997
2.6683593749999996
3.0389648437499996
3.037353515625
3.0365478515624997
3.034130859375
3.0357421875
3.0309082031249996
2.7948486328124997
0.1200439453125
0.0298095703125
0.030615234374999998
0.027392578124999997
0.02900390625
0.024169921875
0.0298095703125
0.0298095703125
0.0298095703125
0.0314208984375
0.02900390625
0.0281982421875
0.0298095703125
0.0314208984375
0.0281982421875
0.0314208984375
0.0298095703125
0.0314208984375
0.0298095703125
0.02900390625
0.0281982421875
0.030615234374999998
3.034130859375
3.0317138671875
3.0349365234374996
3.037353515625
3.0317138671875
3.0365478515624997
3.037353515625
2.63935546875
3.0333251953125
3.0002929687499997
2.96162109375
2.8335205078124996
2.7263671874999997
2.6208251953125
3.0349365234374996
3.0357421875
3.037353515625
3.0381591796875
3.0357421875
3.0357421875
0.6034423828125
0.0298095703125
0.0298095703125
0.0298095703125
0.033032226562499996
0.0298095703125
0.0298095703125
0.018530273437499998
0.02900390625
0.027392578124999997
0.02578125
0.0298095703125
0.0322265625
0.0298095703125
0.0281982421875
0.0298095703125
0.033032226562499996
0.0322265625
0.0322265625
0.0314208984375
0.0298095703125
0.0314208984375
2.6377441406249997
3.0349365234374996
3.0325195312499997
3.0381591796875
3.0349365234374996
3.0357421875
3.0349365234374996
3.0365478515624997
2.7263671874999997
2.9277832031249997
2.8794433593749997
2.76826171875
2.7078369140625
2.489501953125
3.034130859375
3.0365478515624997
3.0349365234374996
3.0349365234374996
3.0333251953125
3.0333251953125
0.5365722656249999
0.0281982421875
0.02900390625
0.027392578124999997
0.0298095703125
0.0281982421875
0.0362548828125
0.0298095703125
0.0298095703125
0.0281982421875
0.02900390625
0.0322265625
0.02900390625
0.026586914062499998
0.02900390625
0.033032226562499996
0.02900390625
0.033032226562499996
0.0322265625
0.030615234374999998
0.030615234374999998
0.02578125
2.2196044921875
3.0357421875
3.0357421875
3.034130859375
3.0357421875
3.0357421875
3.0333251953125
3.0357421875
3.0357421875
2.956787109375
2.7932373046874996
2.792431640625
2.6385498046875
2.4919189453125
3.0349365234374996
3.0365478515624997
3.0325195312499997
3.037353515625
3.0365478515624997
3.0325195312499997
2.6562744140624996
0.0604248046875
0.030615234374999998
0.02900390625
0.0298095703125
0.02900390625
0.030615234374999998
0.026586914062499998
0.030615234374999998
0.02578125
0.026586914062499998
0.0281982421875
0.0322265625
0.02900390625
0.0298095703125
0.02900390625
0.0298095703125
0.0298095703125
0.030615234374999998
0.027392578124999997
0.0281982421875
0.0298095703125
0.0314208984375
3.0325195312499997
3.0365478515624997
3.0389648437499996
3.0333251953125
3.0349365234374996
3.0357421875
3.0349365234374996
2.6208251953125
2.8294921874999996
2.947119140625
2.9036132812499997
2.7239501953125
2.6449951171875
2.5088378906249997
3.0325195312499997
3.0349365234374996
3.034130859375
3.0333251953125
3.0357421875
3.0357421875
0.20625
0.02900390625
0.017724609375
0.0298095703125
0.026586914062499998
0.0314208984375
0.02900390625
0.0314208984375
0.0314208984375
0.02900390625
0.0298095703125
0.0281982421875
0.0322265625
0.02900390625
0.0314208984375
0.0281982421875
0.0298095703125
0.02900390625
0.02578125
0.030615234374999998
0.02900390625
0.026586914062499998
2.953564453125
3.0357421875
3.0333251953125
3.0325195312499997
3.0357421875
3.0365478515624997
3.0357421875
3.0349365234374996
2.8157958984375
2.8834716796874997
2.874609375
2.7448974609374996
2.6756103515625
2.5201171875
3.0333251953125
3.0349365234374996
3.037353515625
3.0349365234374996
3.04541015625
3.0333251953125
0.517236328125
0.0281982421875
0.0298095703125
0.02900390625
0.033032226562499996
0.030615234374999998
0.02900390625
0.033837890625
0.02578125
0.0281982421875
0.02900390625
0.0298095703125
0.030615234374999998
0.02900390625
0.0249755859375
0.0298095703125
0.02900390625
0.030615234374999998
0.0298095703125
0.02900390625
0.0322265625
0.030615234374999998
2.3726806640625
3.0325195312499997
3.0381591796875
3.0317138671875
3.0349365234374996
3.0365478515624997
3.0349365234374996
3.0349365234374996
3.0357421875
3.001904296875
2.8850830078125
2.876220703125
2.719921875
2.6192138671875
3.0349365234374996
3.034130859375
3.034130859375
3.0325195312499997
3.0357421875
3.0381591796875
2.015771484375
0.033837890625
0.02900390625
0.0298095703125
0.033032226562499996
0.0322265625
0.030615234374999998
0.0298095703125
0.0298095703125
0.02900390625
0.0281982421875
0.02578125
0.02900390625
0.0298095703125
0.0298095703125
0.0281982421875
0.0298095703125
0.02900390625
0.030615234374999998
0.02900390625
0.02900390625
0.0314208984375
0.0281982421875
2.795654296875
3.0325195312499997
3.037353515625
3.0349365234374996
3.037353515625
3.034130859375
3.0381591796875
3.034130859375
2.7932373046874996
2.96162109375
2.85849609375
2.719921875
2.6458007812499997
2.4927246093749997
3.0301025390625
3.037353515625
3.0333251953125
3.0365478515624997
3.0365478515624997
3.0357421875
0.51884765625
0.0298095703125
0.030615234374999998
0.0298095703125
0.026586914062499998
0.0322265625
0.02900390625
0.0281982421875
0.1893310546875
0.02900390625
0.0281982421875
0.0249755859375
0.02900390625
0.02900390625
0.033837890625
0.0281982421875
0.02900390625
0.027392578124999997
0.02578125
0.02900390625
0.02900390625
0.02900390625
2.8866943359375
3.034130859375
3.0349365234374996
3.0349365234374996
3.0365478515624997
3.037353515625
3.0365478515624997
3.0325195312499997
3.034130859375
2.89072265625
2.9011962890625
2.8230468749999997
2.7166992187499996
2.52978515625
3.0365478515624997
3.0333251953125
3.0349365234374996
3.0357421875
3.0349365234374996
3.0389648437499996
0.510791015625
0.0281982421875
0.02900390625
0.023364257812499997
0.0281982421875
0.02900390625
0.033837890625
0.0298095703125
0.024169921875
0.02900390625
0.0298095703125
0.02578125
0.02900390625
0.0298095703125
0.02900390625
0.030615234374999998
0.02900390625
0.02900390625
0.030615234374999998
0.0298095703125
0.0281982421875
0.0298095703125
2.40087890625
3.0325195312499997
3.0357421875
3.0357421875
3.034130859375
3.0357421875
3.0357421875
3.0349365234374996
3.0357421875
2.937451171875
2.874609375
2.8254638671874996
2.695751953125
2.5644287109375
3.034130859375
3.034130859375
3.0357421875
3.0357421875
3.0349365234374996
3.0309082031249996
1.3962158203125
0.0298095703125
0.02900390625
0.02900390625
0.027392578124999997
0.02900390625
0.02900390625
0.026586914062499998
0.02900390625
0.0298095703125
0.0298095703125
0.02900390625
0.0298095703125
0.0314208984375
0.02900390625
0.02578125
0.033032226562499996
0.02900390625
0.02900390625
0.02900390625
0.02900390625
0.0322265625
0.8515869140625
3.0365478515624997
3.0309082031249996
3.0365478515624997
3.0357421875
3.0333251953125
3.0357421875
3.0381591796875
3.0333251953125
2.8947509765625
3.011572265625
2.9205322265625
2.8206298828125
2.7400634765625
2.8270751953124997
3.0317138671875
3.0349365234374996
3.0381591796875
3.0325195312499997
3.0365478515624997
3.0349365234374996
0.38107910156249997
0.0298095703125
0.02900390625
0.0322265625
0.033032226562499996
0.02900390625
0.033032226562499996
0.02578125
0.02900390625
0.040283203125
0.02900390625
0.0298095703125
0.0322265625
0.0298095703125
0.02578125
0.02900390625
0.0322265625
0.0314208984375
0.0298095703125
0.033032226562499996
0.0281982421875
0.02900390625
2.8770263671875
3.0357421875
3.0317138671875
3.0333251953125
3.0349365234374996
3.0349365234374996
3.034130859375
3.0349365234374996
3.0389648437499996
2.8874999999999997
2.866552734375
2.8633300781249997
2.7239501953125
2.5201171875
3.0389648437499996
3.0381591796875
3.0349365234374996
3.0357421875
3.0333251953125
3.034130859375
0.549462890625
0.02900390625
0.02900390625
0.02900390625
0.02900390625
0.0322265625
0.0298095703125
0.02900390625
0.0314208984375
0.02900390625
0.02900390625
0.0249755859375
0.0281982421875
0.026586914062499998
0.0281982421875
0.02900390625
0.030615234374999998
0.0298095703125
0.027392578124999997
0.0314208984375
0.0322265625
0.030615234374999998
2.34609375
3.0357421875
3.0333251953125
3.0349365234374996
3.0357421875
3.0252685546875
3.0357421875
3.034130859375
3.0349365234374996
2.8673583984374997
2.8681640625
2.8544677734375
2.65869140625
2.6014892578124997
3.037353515625
3.0325195312499997
3.034130859375
3.0325195312499997
3.034130859375
3.0309082031249996
1.08603515625
0.030615234374999998
0.027392578124999997
0.02578125
0.0298095703125
0.030615234374999998
0.02900390625
0.02578125
0.02900390625
0.0314208984375
0.0249755859375
0.0249755859375
0.02578125
0.026586914062499998
0.02578125
0.02900390625
0.0314208984375
0.0281982421875
0.026586914062499998
0.026586914062499998
0.033032226562499996
0.02900390625
1.6105224609375
3.0349365234374996
3.0365478515624997
3.0357421875
3.034130859375
3.0357421875
3.0309082031249996
3.0365478515624997
3.0357421875
2.91650390625
2.947119140625
2.850439453125
2.7690673828124996
2.6377441406249997
3.034130859375
3.0349365234374996
3.0365478515624997
3.0349365234374996
3.0365478515624997
3.034130859375
3.034130859375
0.0322265625
0.030615234374999998
0.0281982421875
0.02900390625
0.026586914062499998
0.027392578124999997
0.033837890625
0.0298095703125
0.0298095703125
0.030615234374999998
0.026586914062499998
0.0298095703125
0.027392578124999997
0.02900390625
0.030615234374999998
0.026586914062499998
0.02900390625
0.024169921875
0.0281982421875
0.0298095703125
0.0281982421875
0.2263916015625
3.0349365234374996
3.0357421875
3.0357421875
3.0349365234374996
3.037353515625
3.0357421875
3.0365478515624997
3.0325195312499997
3.0365478515624997
2.9414794921875
2.8480224609375
2.8512451171874997
2.6780273437499997
2.521728515625
3.0349365234374996
3.0325195312499997
3.037353515625
3.0333251953125
3.0365478515624997
3.0325195312499997
0.39316406249999997
0.0322265625
0.02900390625
0.02900390625
0.0298095703125
0.026586914062499998
0.0298095703125
0.0281982421875
0.0281982421875
0.026586914062499998
0.02900390625
0.02900390625
0.026586914062499998
0.02900390625
0.0281982421875
0.018530273437499998
0.0322265625
0.0281982421875
0.0281982421875
0.02900390625
0.0298095703125
0.02900390625
2.7730957031249996
3.0357421875
3.0365478515624997
3.037353515625
3.037353515625
3.0357421875
3.0349365234374996
3.034130859375
3.0365478515624997
2.8528564453125
2.8738037109374996
2.7400634765625
2.6522460937499996
2.5249511718749997
3.034130859375
3.0357421875
3.0357421875
3.034130859375
3.0357421875
3.0349365234374996
0.8765624999999999
0.0298095703125
0.02900390625
0.030615234374999998
0.030615234374999998
0.0298095703125
0.033032226562499996
0.0298095703125
0.0298095703125
0.026586914062499998
0.0298095703125
0.0298095703125
0.02900390625
0.0281982421875
0.02578125
0.026586914062499998
0.0281982421875
0.02900390625
0.0322265625
0.027392578124999997
0.0298095703125
0.0298095703125
2.9704833984374996
3.0325195312499997
3.0357421875
3.0325195312499997
3.0317138671875
3.034130859375
3.037353515625
3.034130859375
3.0333251953125
2.92939453125
2.91650390625
2.8294921874999996
2.7336181640625
2.5845703125
3.0365478515624997
3.0349365234374996
3.0365478515624997
3.0365478515624997
3.034130859375
3.0301025390625
3.0357421875
0.030615234374999998
0.0281982421875
0.0298095703125
0.0281982421875
0.02900390625
0.02900390625
0.02578125
0.0322265625
0.02900390625
0.033032226562499996
0.030615234374999998
0.026586914062499998
0.02578125
0.0298095703125
0.026586914062499998
0.0322265625
0.0298095703125
0.0281982421875
0.02578125
0.026586914062499998
0.030615234374999998
2.8472167968749997
3.0357421875
3.0325195312499997
3.0357421875
3.0357421875
3.037353515625
3.0349365234374996
3.0349365234374996
3.0333251953125
3.034130859375
2.8770263671875
2.779541015625
2.753759765625
2.650634765625
3.0268798828124996
3.0349365234374996
3.0357421875
3.0381591796875
3.0301025390625
3.034130859375
3.0357421875
0.488232421875
0.02900390625
0.02578125
0.027392578124999997
0.0281982421875
0.033032226562499996
0.0281982421875
0.0322265625
0.0298095703125
0.026586914062499998
0.0298095703125
0.030615234374999998
0.0281982421875
0.02900390625
0.033032226562499996
0.02900390625
0.0281982421875
0.0281982421875
0.02900390625
0.02900390625
0.0281982421875
0.0322265625
2.8874999999999997
3.0333251953125
3.0357421875
3.0357421875
3.0357421875
3.0357421875
3.0357421875
3.0309082031249996
2.900390625
2.8319091796875
2.8633300781249997
2.7819580078125
2.647412109375
2.4814453125
3.0357421875
3.0349365234374996
3.0357421875
3.0333251953125
3.0333251953125
3.034130859375
0.6405029296875
0.0298095703125
0.0249755859375
0.0298095703125
0.0298095703125
0.0314208984375
0.02900390625
0.0322265625
0.0281982421875
0.0314208984375
0.027392578124999997
0.0298095703125
0.030615234374999998
0.02900390625
0.02900390625
0.019335937499999997
0.02900390625
0.033032226562499996
0.030615234374999998
0.030615234374999998
0.0281982421875
0.0281982421875
2.5934326171874997
3.0357421875
3.0357421875
3.0317138671875
3.0333251953125
3.037353515625
3.0381591796875
3.0309082031249996
3.0357421875
2.9318115234374997
2.82626953125
2.737646484375
2.6804443359374996
2.5249511718749997
3.0333251953125
3.0325195312499997
3.0349365234374996
3.034130859375
3.034130859375
3.0357421875
2.7328124999999996
0.0298095703125
0.0281982421875
0.030615234374999998
0.0298095703125
0.02900390625
0.0298095703125
0.02900390625
0.02900390625
0.026586914062499998
0.027392578124999997
0.027392578124999997
0.02900390625
0.030615234374999998
0.02900390625
0.0281982421875
0.0281982421875
0.027392578124999997
0.0314208984375
0.0298095703125
0.02578125
0.02900390625
3.0309082031249996
3.0357421875
3.0357421875
3.034130859375
3.0349365234374996
3.037353515625
3.034130859375
3.034130859375
2.953564453125
3.0325195312499997
2.8351318359374997
2.8166015625
2.78759765625
2.63291015625
3.0309082031249996
3.034130859375
3.0309082031249996
3.0325195312499997
3.0357421875
3.0349365234374996
3.0365478515624997
0.25620117187499997
0.02900390625
0.0298095703125
0.030615234374999998
0.0298095703125
0.0314208984375
0.0298095703125
0.0298095703125
0.0298095703125
0.0281982421875
0.0281982421875
0.033032226562499996
0.02900390625
0.0281982421875
0.02578125
0.030615234374999998
0.0322265625
0.026586914062499998
0.0298095703125
0.0281982421875
0.02900390625
0.02900390625
3.0349365234374996
3.0357421875
3.0317138671875
3.0349365234374996
3.037353515625
3.0365478515624997
3.0309082031249996
3.0349365234374996
2.834326171875
2.843994140625
2.8431884765624997
2.7432861328125
2.599072265625
2.44599609375
3.0349365234374996
3.0357421875
3.0357421875
3.0357421875
3.0325195312499997
3.0349365234374996
0.4165283203125
0.02578125
0.02900390625
0.02900390625
0.0298095703125
0.0281982421875
0.02900390625
0.027392578124999997
0.0298095703125
0.0298095703125
0.02900390625
0.0314208984375
0.0314208984375
0.02900390625
0.027392578124999997
0.0298095703125
0.02900390625
0.027392578124999997
0.0298095703125
0.02578125
0.0298095703125
0.0281982421875
2.8625244140625
3.0349365234374996
3.034130859375
3.0357421875
3.034130859375
3.0357421875
3.0381591796875
3.0357421875
2.9986816406249996
2.9672607421875
2.7811523437499996
2.7561767578125
2.6280761718749996
2.5225341796875
3.0349365234374996
3.034130859375
3.0333251953125
3.034130859375
3.0309082031249996
3.0349365234374996
2.34931640625
0.0298095703125
0.027392578124999997
0.030615234374999998
0.02900390625
0.02578125
0.0249755859375
0.02900390625
0.027392578124999997
0.0314208984375
0.02900390625
0.027392578124999997
0.030615234374999998
0.02900390625
0.033032226562499996
0.02900390625
0.0281982421875
0.02900390625
0.0281982421875
0.0281982421875
0.027392578124999997
0.0281982421875
0.02900390625
3.0333251953125
3.0357421875
3.0349365234374996
3.0357421875
3.037353515625
3.0325195312499997
3.0365478515624997
2.5869873046875
2.908447265625
2.8367431640625
2.8190185546874997
2.6965576171874996
2.5475097656249996
3.0349365234374996
3.0349365234374996
3.0333251953125
3.0365478515624997
3.034130859375
3.0349365234374996
3.0349365234374996
0.1796630859375
0.0298095703125
0.02578125
0.02900390625
0.02578125
0.02900390625
0.027392578124999997
0.02900390625
0.0281982421875
0.030615234374999998
0.02900390625
0.040283203125
0.0281982421875
0.02900390625
0.0298095703125
0.02578125
0.0322265625
0.026586914062499998
0.02900390625
0.02578125
0.02900390625
0.027392578124999997
3.0365478515624997
3.0349365234374996
3.0349365234374996
3.0381591796875
3.0349365234374996
3.0397705078125
3.0349365234374996
3.0357421875
2.7247558593749996
2.8496337890624996
2.874609375
2.7489257812499996
2.6353271484375
2.4564697265624997
3.037353515625
3.0333251953125
3.0333251953125
3.0349365234374996
3.0333251953125
3.0349365234374996
0.2940673828125
0.02900390625
0.02900390625
0.027392578124999997
0.02900390625
0.030615234374999998
0.02900390625
0.030615234374999998
0.027392578124999997
0.0322265625
0.0281982421875
0.02900390625
0.0281982421875
0.0322265625
0.030615234374999998
0.0322265625
0.027392578124999997
0.02578125
0.02900390625
0.0298095703125
0.02578125
0.026586914062499998
3.0139892578125
3.0317138671875
3.0381591796875
3.0333251953125
3.0357421875
3.0333251953125
3.0349365234374996
3.034130859375
2.92294921875
2.9318115234374997
2.785986328125
2.7247558593749996
2.591015625
2.4709716796875
3.0349365234374996
3.0349365234374996
3.0357421875
3.0357421875
3.034130859375
3.034130859375
2.205908203125
0.02578125
0.026586914062499998
0.02900390625
0.02900390625
0.033032226562499996
0.0281982421875
0.02900390625
0.0281982421875
0.0314208984375
0.02900390625
0.027392578124999997
0.02900390625
0.0281982421875
0.0281982421875
0.027392578124999997
0.0281982421875
0.0298095703125
0.030615234374999998
0.024169921875
0.026586914062499998
0.02900390625
2.65869140625
3.0333251953125
3.0365478515624997
3.0397705078125
3.034130859375
3.0309082031249996
3.034130859375
3.0357421875
2.415380859375
2.7996826171875
2.8375488281249996
2.7658447265625
2.657080078125
2.5797363281249996
3.0357421875
3.0325195312499997
3.0349365234374996
3.034130859375
3.0333251953125
3.0349365234374996
3.0317138671875
0.246533203125
0.0281982421875
0.0298095703125
0.02900390625
0.02900390625
0.027392578124999997
0.030615234374999998
0.02900390625
0.026586914062499998
0.0314208984375
0.02900390625
0.0281982421875
0.0281982421875
0.0394775390625
0.026586914062499998
0.02900390625
0.026586914062499998
0.027392578124999997
0.0298095703125
0.02900390625
0.0298095703125
0.0314208984375
3.0365478515624997
3.0333251953125
3.0357421875
3.0381591796875
3.0357421875
3.0349365234374996
3.0357421875
3.0381591796875
2.6836669921875
2.7610107421874996
2.7126708984374996
2.6176025390624997
2.487890625
2.2969482421875
3.0333251953125
3.0365478515624997
3.037353515625
3.034130859375
3.0325195312499997
3.0365478515624997
0.32951660156249996
0.02578125
0.02900390625
0.0298095703125
0.033032226562499996
0.0298095703125
0.02900390625
0.027392578124999997
0.02900390625
0.0298095703125
0.02900390625
0.02900390625
0.0298095703125
0.0322265625
0.0322265625
0.0281982421875
0.026586914062499998
0.0298095703125
0.02578125
0.030615234374999998
0.02900390625
0.0314208984375
3.0349365234374996
3.0365478515624997
3.0357421875
3.037353515625
3.0357421875
3.037353515625
3.034130859375
3.0325195312499997
2.7223388671874997
2.8705810546875
2.7183105468749997
2.62646484375
2.513671875
2.360595703125
3.037353515625
3.0333251953125
3.034130859375
3.037353515625
3.0325195312499997
3.034130859375
2.0149658203125
0.02900390625
0.033032226562499996
0.02900390625
0.0298095703125
0.02578125
0.02900390625
0.0298095703125
0.02578125
0.0281982421875
0.0298095703125
0.0298095703125
0.0298095703125
0.0298095703125
0.02900390625
0.0322265625
0.030615234374999998
0.0298095703125
0.0298095703125
0.02900390625
0.02900390625
0.0281982421875
3.0325195312499997
3.0333251953125
3.0357421875
3.0325195312499997
3.0349365234374996
3.0325195312499997
3.0349365234374996
3.037353515625
2.6159912109374996
2.7408691406249996
2.7666503906249997
2.7158935546875
2.55234375
2.3807373046875
3.0317138671875
3.034130859375
3.0365478515624997
3.0357421875
3.037353515625
3.0317138671875
2.2260498046875
0.026586914062499998
0.0314208984375
0.030615234374999998
0.02900390625
0.02900390625
0.02900390625
0.030615234374999998
0.0281982421875
0.026586914062499998
0.02900390625
0.027392578124999997
0.0298095703125
0.0322265625
0.043505859375
0.0281982421875
0.02900390625
0.0298095703125
0.027392578124999997
0.0281982421875
0.02578125
0.02900390625
1.7507080078125
3.0325195312499997
3.0357421875
3.0333251953125
3.0349365234374996
3.037353515625
3.0349365234374996
3.0309082031249996
2.9898193359375
2.8576904296874996
2.7569824218749996
2.7513427734375
2.591015625
2.4298828125
2.2236328125
3.0381591796875
3.0357421875
3.0333251953125
3.0325195312499997
3.0357421875
3.0349365234374996
0.21914062499999998
0.0281982421875
0.02578125
0.02900390625
0.02578125
0.02900390625
0.0298095703125
0.0322265625
0.02900390625
0.033032226562499996
0.0281982421875
0.027392578124999997
0.0539794921875
0.0717041015625
0.0314208984375
0.030615234374999998
0.0281982421875
0.02900390625
0.0281982421875
0.0298095703125
0.0298095703125
0.0314208984375
3.0357421875
3.0349365234374996
3.034130859375
3.0357421875
3.0333251953125
3.034130859375
3.0333251953125
3.0349365234374996
2.70380859375
2.8625244140625
2.7481201171875
2.6119628906249996
2.46533203125
2.34609375
3.0325195312499997
3.034130859375
3.037353515625
3.0349365234374996
3.0365478515624997
3.034130859375
0.1353515625
0.02900390625
0.026586914062499998
0.02900390625
0.0298095703125
0.0298095703125
0.0298095703125
0.02578125
0.0281982421875
0.02900390625
0.0298095703125
0.0298095703125
0.030615234374999998
0.0281982421875
0.0281982421875
0.0298095703125
0.02900390625
0.0298095703125
0.026586914062499998
0.027392578124999997
0.027392578124999997
0.02578125
3.0365478515624997
3.0365478515624997
3.0325195312499997
3.037353515625
3.037353515625
3.0349365234374996
3.0357421875
3.034130859375
2.9946533203124996
2.582958984375
2.7255615234375
2.6683593749999996
2.4822509765625
2.33642578125
3.0349365234374996
3.0301025390625
3.0325195312499997
3.034130859375
3.0365478515624997
3.0349365234374996
2.164013671875
0.0281982421875
0.02900390625
0.02900390625
0.02900390625
0.0281982421875
0.02900390625
0.0322265625
0.02900390625
0.1699951171875
0.033032226562499996
0.0281982421875
0.02578125
0.026586914062499998
0.0298095703125
0.027392578124999997
0.027392578124999997
0.0281982421875
0.0298095703125
0.02900390625
0.02900390625
0.026586914062499998
3.0349365234374996
3.034130859375
3.0333251953125
3.0357421875
3.0357421875
3.0357421875
3.0365478515624997
3.0365478515624997
3.0325195312499997
2.8133789062499996
2.753759765625
2.6699707031249997
2.513671875
2.408935546875
2.25263671875
3.0309082031249996
3.0365478515624997
3.0325195312499997
3.0349365234374996
3.0349365234374996
3.0317138671875
0.3279052734375
0.0281982421875
0.0298095703125
0.0298095703125
0.02578125
0.027392578124999997
0.0281982421875
0.0298095703125
0.0298095703125
0.02900390625
0.0298095703125
0.02900390625
0.0314208984375
0.03544921875
0.02900390625
0.0298095703125
0.02900390625
0.02900390625
0.030615234374999998
0.0281982421875
0.0281982421875
0.0298095703125
3.0365478515624997
3.0357421875
3.0349365234374996
3.0357421875
3.034130859375
3.0357421875
3.0349365234374996
3.034130859375
2.6619140624999997
2.8149902343749997
2.7086425781249996
2.5837646484374996
2.447607421875
2.2518310546875
3.0357421875
3.034130859375
3.0325195312499997
3.0357421875
3.0317138671875
3.034130859375
0.214306640625
0.02900390625
0.02900390625
0.0314208984375
0.0281982421875
0.027392578124999997
0.0322265625
0.0281982421875
0.027392578124999997
0.0281982421875
0.027392578124999997
0.02900390625
0.02900390625
0.059619140625
0.0298095703125
0.02900390625
0.0298095703125
0.0314208984375
0.02900390625
0.0281982421875
0.02900390625
0.02900390625
3.0357421875
3.0325195312499997
3.037353515625
3.0236572265625
3.0365478515624997
3.034130859375
3.0357421875
3.0381591796875
3.034130859375
2.8617187499999996
2.689306640625
2.6192138671875
2.454052734375
2.2985595703125
3.0349365234374996
3.0357421875
3.0349365234374996
3.0349365234374996
3.0365478515624997
3.0349365234374996
2.0294677734374997
0.02900390625
0.02900390625
0.02900390625
0.02900390625
0.0298095703125
0.02900390625
0.0298095703125
0.026586914062499998
0.27231445312499997
0.0322265625
0.02900390625
0.02900390625
0.0346435546875
0.02900390625
0.02900390625
0.0298095703125
0.030615234374999998
0.02900390625
0.026586914062499998
0.0298095703125
0.0298095703125
3.0357421875
3.034130859375
3.0357421875
3.0317138671875
3.0349365234374996
3.0357421875
3.0357421875
3.0357421875
2.5789306640625
2.7819580078125
2.8423828125
2.719921875
2.5338134765625
2.4177978515625
2.270361328125
3.0349365234374996
3.0309082031249996
3.034130859375
3.0333251953125
3.0357421875
2.921337890625
0.388330078125
0.02900390625
0.02900390625
0.033032226562499996
0.0298095703125
0.02578125
0.02900390625
0.027392578124999997
0.030615234374999998
0.02900390625
0.0322265625
0.0298095703125
0.0281982421875
0.026586914062499998
0.02900390625
0.0281982421875
0.02900390625
0.0281982421875
0.0281982421875
0.0298095703125
0.0281982421875
0.02578125
3.0349365234374996
3.0349365234374996
3.0381591796875
3.0349365234374996
3.0357421875
3.034130859375
3.0333251953125
3.0357421875
2.745703125
2.7811523437499996
2.737646484375
2.6458007812499997
2.5096435546875
2.33642578125
3.0357421875
3.0349365234374996
3.0389648437499996
3.0349365234374996
3.0365478515624997
3.0365478515624997
0.55751953125
0.02900390625
0.027392578124999997
0.0298095703125
0.0249755859375
0.0322265625
0.0298095703125
0.0298095703125
0.0298095703125
0.02900390625
0.0249755859375
0.027392578124999997
0.02900390625
0.02900390625
0.02900390625
0.02900390625
0.0298095703125
0.0281982421875
0.0298095703125
0.0298095703125
0.02900390625
0.0281982421875
2.1865722656249997
3.0333251953125
3.0381591796875
3.0357421875
3.0357421875
3.0357421875
3.0333251953125
3.0309082031249996
3.034130859375
2.9398681640624997
2.840771484375
2.8480224609375
2.70380859375
2.582958984375
3.034130859375
3.034130859375
3.034130859375
3.034130859375
3.0349365234374996
3.0309082031249996
1.9223144531249998
0.0298095703125
0.0298095703125
0.0298095703125
0.0281982421875
0.030615234374999998
0.027392578124999997
0.02900390625
0.02900390625
0.0281982421875
0.030615234374999998
0.0322265625
0.0281982421875
0.02578125
0.0298095703125
0.0298095703125
0.0281982421875
0.0281982421875
0.0298095703125
0.033032226562499996
0.0281982421875
0.0298095703125
2.72314453125
3.0333251953125
3.0325195312499997
3.034130859375
3.034130859375
3.0349365234374996
3.0333251953125
3.0365478515624997
3.0357421875
2.7255615234375
2.92294921875
2.8431884765624997
2.6659423828124997
2.5579833984375
2.47177734375
3.034130859375
3.034130859375
3.0333251953125
3.0349365234374996
3.0357421875
3.0317138671875
0.0322265625
0.0298095703125
0.0298095703125
0.024169921875
0.0298095703125
0.0298095703125
0.02900390625
0.030615234374999998
0.127294921875
0.02900390625
0.0322265625
0.02900390625
0.026586914062499998
0.0322265625
0.02900390625
0.026586914062499998
0.02578125
0.0298095703125
0.02900390625
0.0298095703125
0.02900390625
0.38188476562499996
3.034130859375
3.0357421875
3.0365478515624997
3.037353515625
3.034130859375
3.0333251953125
3.034130859375
3.037353515625
2.9398681640624997
2.8609130859375
2.8214355468749996
2.6562744140624996
2.5080322265625
2.3879882812499997
3.0357421875
3.034130859375
3.0333251953125
3.0349365234374996
3.0349365234374996
3.0365478515624997
0.50595703125
0.0322265625
0.0322265625
0.02900390625
0.030615234374999998
0.0298095703125
0.02900390625
0.02900390625
0.0322265625
0.022558593749999998
0.02578125
0.027392578124999997
0.026586914062499998
0.0281982421875
0.0281982421875
0.02900390625
0.0314208984375
0.0281982421875
0.0298095703125
0.027392578124999997
0.02900390625
0.02900390625
3.0107666015624996
3.0381591796875
3.034130859375
3.034130859375
3.0357421875
3.0357421875
3.0349365234374996
3.034130859375
3.0357421875
2.8899169921874996
2.744091796875
2.7690673828124996
2.631298828125
2.4927246093749997
3.0349365234374996
3.0357421875
3.0325195312499997
3.0357421875
3.0333251953125
3.0357421875
1.26005859375
0.030615234374999998
0.0298095703125
0.0298095703125
0.02578125
0.0298095703125
0.02900390625
0.0298095703125
0.0281982421875
0.024169921875
0.033032226562499996
0.0322265625
0.0298095703125
0.02900390625
0.0322265625
0.02900390625
0.02900390625
0.02900390625
0.02900390625
0.0298095703125
0.0298095703125
0.027392578124999997
3.0333251953125
3.0325195312499997
3.0325195312499997
3.0317138671875
3.0357421875
3.0325195312499997
3.0301025390625
3.0381591796875
3.0349365234374996
2.7593994140625
2.8641357421875
2.7448974609374996
2.578125
2.47822265625
2.553955078125
3.0357421875
3.0349365234374996
3.0357421875
3.0349365234374996
3.0317138671875
2.9140869140624996
0.024169921875
0.033032226562499996
0.0298095703125
0.02578125
0.0322265625
0.026586914062499998
0.02900390625
0.0322265625
0.0298095703125
0.0281982421875
0.0249755859375
0.02578125
0.02900390625
0.0298095703125
0.026586914062499998
0.027392578124999997
0.02900390625
0.0298095703125
0.0281982421875
0.02900390625
0.0298095703125
0.027392578124999997
3.034130859375
3.034130859375
3.0357421875
3.0333251953125
3.0357421875
3.0325195312499997
3.0349365234374996
3.037353515625
3.0357421875
2.8311035156249997
2.8037109375
2.650634765625
2.5716796874999996
2.39443359375
3.0357421875
3.0357421875
3.0309082031249996
3.037353515625
3.0357421875
3.0349365234374996
0.2827880859375
0.02900390625
0.02900390625
0.0298095703125
0.02900390625
0.0322265625
0.0298095703125
0.0322265625
0.0281982421875
0.0298095703125
0.0298095703125
0.0281982421875
0.0298095703125
0.0281982421875
0.027392578124999997
0.0298095703125
0.0314208984375
0.02578125
0.0281982421875
0.02900390625
0.02900390625
0.0298095703125
3.0349365234374996
3.0357421875
3.0349365234374996
3.0397705078125
3.034130859375
3.0365478515624997
3.034130859375
3.034130859375
3.0333251953125
2.8447998046875
2.7980712890625
2.7867919921874997
2.4903076171875
2.3887939453125
3.0365478515624997
3.0365478515624997
3.0357421875
3.034130859375
3.0357421875
3.0397705078125
0.8145263671874999
0.0281982421875
0.02900390625
0.02900390625
0.0314208984375
0.033032226562499996
0.0322265625
0.02900390625
0.0298095703125
0.02900390625
0.0298095703125
0.030615234374999998
0.0281982421875
0.033032226562499996
0.02900390625
0.0298095703125
0.030615234374999998
0.02900390625
0.030615234374999998
0.0298095703125
0.027392578124999997
0.02900390625
3.034130859375
3.0333251953125
3.0349365234374996
3.034130859375
3.0357421875
3.0349365234374996
3.0349365234374996
3.0349365234374996
3.037353515625
2.7747070312499997
2.8157958984375
2.6852783203125
2.5757080078124996
2.434716796875
3.0309082031249996
3.0349365234374996
3.034130859375
3.0381591796875
3.0357421875
3.0349365234374996
2.634521484375
0.09345703124999999
0.02900390625
0.0281982421875
0.02900390625
0.02900390625
0.027392578124999997
0.027392578124999997
0.026586914062499998
0.02900390625
0.02900390625
0.030615234374999998
0.030615234374999998
0.0281982421875
0.026586914062499998
0.0322265625
0.027392578124999997
0.027392578124999997
0.0314208984375
0.0298095703125
0.02900390625
0.0281982421875
0.026586914062499998
3.0389648437499996
3.0333251953125
3.0333251953125
3.0349365234374996
3.0365478515624997
3.037353515625
3.0325195312499997
3.0349365234374996
3.0317138671875
2.72314453125
2.73603515625
2.67158203125
2.512060546875
2.3477050781249997
3.0365478515624997
3.0365478515624997
3.0325195312499997
3.0365478515624997
3.0381591796875
3.0317138671875
0.198193359375
0.02578125
0.0322265625
0.0314208984375
0.0322265625
0.0314208984375
0.030615234374999998
0.0281982421875
0.02900390625
0.027392578124999997
0.030615234374999998
0.02900390625
0.0298095703125
0.0322265625
0.0298095703125
0.0298095703125
0.026586914062499998
0.0298095703125
0.026586914062499998
0.0281982421875
0.02900390625
0.02900390625
3.034130859375
3.0357421875
3.0333251953125
3.0333251953125
3.034130859375
3.0349365234374996
3.0357421875
3.0365478515624997
2.94873046875
2.7867919921874997
2.8818603515624996
2.834326171875
2.6691650390625
2.5418701171875
3.034130859375
3.0365478515624997
3.0365478515624997
3.0333251953125
3.0349365234374996
3.0357421875
0.8225830078124999
0.030615234374999998
0.02900390625
0.0298095703125
0.0281982421875
0.027392578124999997
0.0281982421875
0.02578125
0.0298095703125
0.0314208984375
0.02900390625
0.0322265625
0.02900390625
0.0281982421875
0.0281982421875
0.0298095703125
0.0249755859375
0.0281982421875
0.02900390625
0.02900390625
0.02900390625
0.02900390625
2.715087890625
3.0357421875
3.0349365234374996
3.0357421875
3.034130859375
3.0349365234374996
3.0349365234374996
3.034130859375
3.0333251953125
2.9020019531249996
2.8850830078125
2.82626953125
2.7030029296875
2.5789306640625
3.0349365234374996
3.0349365234374996
3.0365478515624997
3.0349365234374996
3.0325195312499997
3.0325195312499997
3.0357421875
0.0298095703125
0.02900390625
0.026586914062499998
0.026586914062499998
0.0322265625
0.0298095703125
0.033032226562499996
0.02900390625
0.0281982421875
0.0281982421875
0.02900390625
0.02900390625
0.027392578124999997
0.02900390625
0.02900390625
0.027392578124999997
0.02900390625
0.0298095703125
0.030615234374999998
0.0314208984375
0.0281982421875
0.507568359375
3.0357421875
3.0357421875
3.0349365234374996
3.034130859375
3.0381591796875
3.0333251953125
3.034130859375
3.0365478515624997
3.0357421875
2.8375488281249996
2.8359375
2.7819580078125
2.6885009765624996
2.82626953125
3.0357421875
3.0357421875
3.034130859375
3.0325195312499997
3.0325195312499997
3.037353515625
0.40927734374999997
0.02900390625
0.02900390625
0.02578125
0.026586914062499998
0.0322265625
0.030615234374999998
0.02578125
0.0322265625
0.026586914062499998
0.0281982421875
0.02578125
0.0298095703125
0.02578125
0.0322265625
0.026586914062499998
0.0298095703125
0.02578125
0.02578125
0.02578125
0.02578125
0.0281982421875
2.466943359375
3.0389648437499996
3.0309082031249996
3.0381591796875
3.034130859375
3.0325195312499997
3.0357421875
3.0333251953125
2.9422851562499996
2.8576904296874996
2.8818603515624996
2.808544921875
2.6965576171874996
2.5732910156249997
3.037353515625
3.037353515625
3.0333251953125
3.037353515625
3.0325195312499997
3.0325195312499997
0.7500732421874999
0.0298095703125
0.0314208984375
0.02900390625
0.02578125
0.0298095703125
0.0298095703125
0.0314208984375
0.0298095703125
0.02900390625
0.0322265625
0.027392578124999997
0.0281982421875
0.0281982421875
0.027392578124999997
0.02900390625
0.02900390625
0.0281982421875
