2.0761962890625
1.7208984374999998
1.5146484375
1.46953125
1.4284423828125
1.3849365234375
1.229443359375
1.17626953125
1.3059814453124998
1.4816162109375
1.496923828125
1.5484863281249999
1.5315673828124998
1.5283447265624999
1.4945068359375
1.6056884765625
1.5460693359375
1.558154296875
1.5654052734375
1.5492919921875
1.4735595703125
0.9224853515625
1.48564453125
1.606494140625
1.5919921874999998
1.6483886718749998
1.6927001953124998
2.1197021484375
1.9617919921875
1.6532226562499999
1.5283447265624999
1.5033691406249998
1.513037109375
1.5605712890624999
1.5202880859374999
1.5106201171875
1.529150390625
1.5380126953125
1.5162597656249999
1.5565429687499999
1.5218994140625
1.5202880859374999
2.1003662109375
1.6508056640625
1.5734619140625
1.5194824218749998
1.4671142578124998
1.416357421875
1.1754638671875
1.1698242187499999
1.2858398437499998
1.429248046875
1.4880615234374999
1.5283447265624999
1.4896728515625
1.5299560546875
1.554931640625
1.6411376953124999
1.5758789062499998
1.56298828125
1.5726562499999999
1.5678222656249998
1.5621826171875
0.8765624999999999
1.4381103515625
1.5662109375
1.5766845703124999
1.6121337890624998
1.6532226562499999
2.04638671875
1.9505126953124998
1.7281494140625
1.5758789062499998
1.5525146484374999
1.5323730468749999
1.5517089843749998
1.5090087890625
1.5009521484375
1.5218994140625
1.509814453125
1.5605712890624999
1.5484863281249999
1.5009521484375
1.4993408203124998
2.0818359374999997
1.7813232421874998
1.5686279296874999
1.506591796875
1.4268310546874998
1.43408203125
1.1996337890625
1.21494140625
1.2286376953125
1.4252197265625
1.4977294921875
1.538818359375
1.51787109375
1.5541259765625
1.5863525390625
1.5799072265624998
1.561376953125
1.5460693359375
1.5517089843749998
1.5597656249999998
1.5509033203125
0.913623046875
1.268115234375
1.5782958984375
1.571044921875
1.6403320312499998
1.6773925781249999
1.9062011718749998
2.14951171875
1.7587646484375
1.5984375
1.5428466796875
1.5057861328125
1.52109375
1.5299560546875
1.5323730468749999
1.513037109375
1.4912841796874998
1.522705078125
1.5090087890625
1.5017578125
1.529150390625
1.7700439453124999
1.8296630859374998
1.5597656249999998
1.5380126953125
1.442138671875
1.4066894531249998
1.3599609375
1.198828125
1.2503906249999999
1.3768798828125
1.490478515625
1.5114257812499998
1.5194824218749998
1.5637939453124998
1.55009765625
1.5718505859374998
1.5718505859374998
1.5589599609375
1.56943359375
1.5484863281249999
1.525927734375
0.9410156249999999
1.252001953125
1.5807128906249999
1.5734619140625
1.6242187499999998
1.6620849609375
1.791796875
2.1970458984375
1.803076171875
1.6773925781249999
1.5251220703125
1.513037109375
1.5186767578125
1.5218994140625
1.5476806640624998
1.4759765624999999
1.5041748046874999
1.506591796875
1.5243164062499999
1.5436523437499998
1.513037109375
1.71123046875
1.9835449218749999
1.5509033203125
1.5492919921875
1.5194824218749998
1.4034667968749999
1.351904296875
1.181103515625
1.22783203125
1.384130859375
1.480810546875
1.5154541015624998
1.52109375
1.51787109375
1.5380126953125
1.58232421875
1.5678222656249998
1.58232421875
1.574267578125
1.5799072265624998
1.5517089843749998
1.3543212890624998
1.22138671875
1.542041015625
1.587158203125
1.5976318359375
1.65
1.69189453125
2.126953125
1.85625
1.622607421875
1.5509033203125
1.5299560546875
1.5275390624999998
1.5202880859374999
1.538818359375
1.5146484375
1.53720703125
1.529150390625
1.5364013671874999
1.5283447265624999
1.4928955078125
1.6314697265625
2.0149658203125
1.6242187499999998
1.53720703125
1.4977294921875
1.4493896484375
1.4671142578124998
1.19560546875
1.19560546875
1.3180664062499998
1.4791992187499998
1.52109375
1.5331787109375
1.5476806640624998
1.574267578125
1.554931640625
1.571044921875
1.5533203125
1.4928955078125
1.5315673828124998
1.5533203125
1.4276367187499999
1.0014404296875
1.53076171875
1.5404296874999999
1.593603515625
1.65
1.7297607421874999
2.112451171875
1.9650146484375
1.651611328125
1.5654052734375
1.52109375
1.4912841796874998
1.5090087890625
1.53076171875
1.5146484375
1.4920898437499999
1.5267333984375
1.5162597656249999
1.5243164062499999
1.545263671875
1.522705078125
2.0302734375
1.6540283203125
1.5565429687499999
1.542041015625
1.4356933593749999
1.400244140625
1.1835205078125
1.2020507812499999
1.3365966796875
1.4477783203124999
1.4961181640624999
1.5299560546875
1.52109375
1.5541259765625
1.5243164062499999
1.56298828125
1.577490234375
1.5678222656249998
1.5517089843749998
1.5702392578125
1.571044921875
0.9812988281249999
1.4864501953125
1.5637939453124998
1.5782958984375
1.609716796875
1.670947265625
2.1148681640625
1.9827392578124998
1.7184814453125
1.6129394531249999
1.5484863281249999
1.53076171875
1.5605712890624999
1.5275390624999998
1.5235107421874998
1.5573486328125
1.513037109375
1.5355957031249998
1.5315673828124998
1.5138427734375
1.5235107421874998
2.1164794921875
1.754736328125
1.5799072265624998
1.5114257812499998
1.4493896484375
1.4228027343749998
1.1923828125
1.1923828125
1.26328125
1.4469726562499998
1.4719482421874999
1.5162597656249999
1.5170654296875
1.5782958984375
1.538818359375
1.56943359375
1.5589599609375
1.5654052734375
1.554931640625
1.56298828125
1.5597656249999998
0.9031494140624999
1.4638916015624999
1.5807128906249999
1.5476806640624998
1.585546875
1.6491943359374999
1.8844482421875
2.147900390625
1.7474853515625
1.6072998046875
1.525927734375
1.5146484375
1.5484863281249999
1.5243164062499999
1.55009765625
1.5412353515625
1.5243164062499999
1.5275390624999998
1.4888671875
1.5114257812499998
1.506591796875
2.1229248046875
1.7724609375
1.5565429687499999
1.5436523437499998
1.4630859374999998
1.40185546875
1.3631835937499999
1.19560546875
1.2374999999999998
1.3664062499999998
1.477587890625
1.5251220703125
1.5122314453124999
1.5323730468749999
1.558154296875
1.5509033203125
1.5968261718749999
1.5645996093749999
1.56943359375
1.6008544921874999
1.542041015625
0.9232910156249999
1.2890625
1.5428466796875
1.5702392578125
1.5766845703124999
1.65
1.8369140625
2.1680419921875
1.84013671875
1.6379150390625
1.5275390624999998
1.5194824218749998
1.5057861328125
1.506591796875
1.5380126953125
1.5283447265624999
1.5218994140625
1.52109375
1.5243164062499999
1.522705078125
1.5106201171875
1.8312744140625
1.9295654296875
1.5734619140625
1.5355957031249998
1.4912841796874998
1.41796875
1.351904296875
1.1939941406249999
1.21171875
1.3994384765624999
1.4800048828124999
1.4953124999999998
1.496923828125
1.5347900390625
1.554931640625
1.5637939453124998
1.5807128906249999
1.5670166015625
1.561376953125
1.571044921875
1.5831298828125
1.20849609375
1.2785888671874999
1.5299560546875
1.5533203125
1.6153564453125
1.683837890625
1.7265380859375
2.1309814453125
1.8506103515624999
1.6451660156249999
1.5517089843749998
1.5041748046874999
1.5283447265624999
1.5235107421874998
1.5283447265624999
1.4961181640624999
1.5517089843749998
1.50498046875
1.5162597656249999
1.5090087890625
1.53720703125
1.7861572265624999
1.9134521484375
1.6282470703124998
1.5436523437499998
1.506591796875
1.429248046875
1.3946044921874998
1.181103515625
1.1754638671875
1.3349853515624999
1.4735595703125
1.5154541015624998
1.5186767578125
1.5436523437499998
1.5323730468749999
1.56298828125
1.5887695312499999
1.5517089843749998
1.5645996093749999
1.5726562499999999
1.5605712890624999
1.2769775390625
1.058642578125
1.5484863281249999
1.5678222656249998
1.6000488281249998
1.654833984375
1.7080078125
2.125341796875
1.94970703125
1.6201904296874998
1.506591796875
1.51787109375
1.51787109375
1.5283447265624999
1.53720703125
1.5243164062499999
1.5364013671874999
1.5460693359375
1.5509033203125
1.53076171875
1.5122314453124999
1.5073974609374998
1.9513183593749999
1.6346923828125
1.5283447265624999
1.5146484375
1.445361328125
1.400244140625
1.1464599609375
1.2189697265625
1.3285400390625
1.4364990234375
1.5299560546875
1.5194824218749998
1.5323730468749999
1.5533203125
1.542041015625
1.5702392578125
1.5726562499999999
1.5355957031249998
1.56943359375
1.5944091796875
1.2705322265624999
1.0223876953125
1.5025634765625
1.5525146484374999
1.6024658203125
1.6346923828125
1.6532226562499999
2.1583740234374997
2.006103515625
1.7257324218749999
1.5984375
1.509814453125
1.5009521484375
1.558154296875
1.546875
1.5073974609374998
1.4840332031249999
1.4928955078125
1.5170654296875
1.529150390625
1.5484863281249999
1.5162597656249999
2.08828125
1.719287109375
1.53076171875
1.5138427734375
1.4558349609374999
1.3873535156249999
1.1778808593749999
1.1819091796874999
1.287451171875
1.442138671875
1.482421875
1.5202880859374999
1.5138427734375
1.5637939453124998
1.5927978515624999
1.58232421875
1.5863525390625
1.585546875
1.56943359375
1.5476806640624998
1.5533203125
0.903955078125
1.480810546875
1.5597656249999998
1.5734619140625
1.6218017578125
1.6830322265625
1.9062011718749998
2.1180908203124997
1.7257324218749999
1.574267578125
1.5315673828124998
1.545263671875
1.525927734375
1.5138427734375
1.5927978515624999
1.5114257812499998
1.5146484375
1.5162597656249999
1.53076171875
1.5090087890625
1.52109375
2.1035888671875
1.7168701171874998
1.577490234375
1.5267333984375
1.4228027343749998
1.4147460937499998
1.3551269531249999
1.187548828125
1.3140380859374998
1.4147460937499998
1.4888671875
1.52109375
1.5114257812499998
1.55009765625
1.5879638671874998
1.603271484375
1.5887695312499999
1.5404296874999999
1.5670166015625
1.5533203125
1.5412353515625
0.8950927734374999
1.3430419921874999
1.5678222656249998
1.5662109375
1.62744140625
1.6846435546874998
1.8900878906249998
2.1245361328125
1.8167724609375
1.5718505859374998
1.5315673828124998
1.5057861328125
1.513037109375
1.490478515625
1.5170654296875
1.50498046875
1.525927734375
1.5557373046874998
1.5589599609375
1.51787109375
1.5251220703125
1.9489013671875
1.9078125
1.5686279296874999
1.529150390625
1.4477783203124999
1.4244140625
1.3148437499999999
1.1698242187499999
1.248779296875
1.413134765625
1.49853515625
1.5283447265624999
1.5444580078124999
1.5476806640624998
1.5726562499999999
1.5766845703124999
1.5557373046874998
1.5476806640624998
1.5605712890624999
1.55009765625
1.5565429687499999
1.0828125
1.3180664062499998
1.542041015625
1.5380126953125
1.61455078125
1.6806152343749998
1.7257324218749999
2.1277587890625
1.8199951171875
1.635498046875
1.5662109375
1.461474609375
1.5243164062499999
1.5283447265624999
1.5428466796875
1.4800048828124999
1.5146484375
1.5194824218749998
1.4912841796874998
1.5138427734375
1.51787109375
1.9150634765624999
1.9215087890625
1.6250244140624999
1.5436523437499998
1.4888671875
1.4244140625
1.332568359375
1.168212890625
1.198828125
1.3382080078124998
1.480810546875
1.5235107421874998
1.533984375
1.558154296875
1.5484863281249999
1.5887695312499999
1.5919921874999998
1.5718505859374998
1.5791015625
1.56943359375
1.5525146484374999
1.1255126953124999
1.1279296875
1.558154296875
1.5758789062499998
1.6072998046875
1.67900390625
1.716064453125
2.151123046875
1.9190917968749999
1.6266357421875
1.522705078125
1.5001464843749999
1.5154541015624998
1.5444580078124999
1.5726562499999999
1.5162597656249999
1.5218994140625
1.5082031249999999
1.513037109375
1.4864501953125
1.5122314453124999
1.529150390625
1.9295654296875
1.5984375
1.50498046875
1.5017578125
1.4501953125
1.3946044921874998
1.1690185546875
1.2189697265625
1.4026611328124998
1.4469726562499998
1.4928955078125
1.5138427734375
1.542041015625
1.5541259765625
1.5380126953125
1.5791015625
1.5444580078124999
1.5791015625
1.5533203125
1.5621826171875
1.139208984375
1.0707275390625
1.5573486328125
1.5758789062499998
1.6177734375
1.654833984375
1.6604736328124998
2.1277587890625
1.9408447265625
1.6975341796874999
1.5815185546875
1.5404296874999999
1.5041748046874999
1.513037109375
1.5509033203125
1.5218994140625
1.5194824218749998
1.5090087890625
1.5396240234374998
1.5122314453124999
1.5154541015624998
1.53720703125
2.0971435546875
1.590380859375
1.525927734375
1.51787109375
1.4872558593749998
1.409912109375
1.17626953125
1.216552734375
1.345458984375
1.4679199218749999
1.46953125
1.5122314453124999
1.529150390625
1.5541259765625
1.5807128906249999
1.5678222656249998
1.53720703125
1.5565429687499999
1.5517089843749998
1.5662109375
1.56298828125
1.1206787109375
1.513037109375
1.56298828125
1.5662109375
1.6403320312499998
1.6773925781249999
1.972265625
1.9658203125
1.699951171875
1.5702392578125
1.5114257812499998
1.5082031249999999
1.5565429687499999
1.509814453125
1.525927734375
1.5355957031249998
1.5460693359375
1.5122314453124999
1.5444580078124999
1.5057861328125
1.4977294921875
2.096337890625
1.6967285156249998
1.5662109375
1.5476806640624998
1.474365234375
1.4381103515625
1.17626953125
1.1690185546875
1.300341796875
1.4598632812499999
1.5073974609374998
1.5146484375
1.509814453125
1.5355957031249998
1.5807128906249999
1.5662109375
1.545263671875
1.5267333984375
1.5565429687499999
1.606494140625
1.574267578125
0.8991210937499999
1.3954101562499999
1.5541259765625
1.5702392578125
1.6081054687499998
1.6540283203125
1.9489013671875
2.075390625
1.7289550781249998
1.574267578125
1.5001464843749999
1.5090087890625
1.5170654296875
1.49853515625
1.533984375
1.5670166015625
1.5758789062499998
1.5944091796875
1.5662109375
1.5404296874999999
1.5114257812499998
2.0012695312499997
1.6822265625
1.5251220703125
1.496923828125
1.4437499999999999
1.4091064453125
1.303564453125
1.1786865234375
1.284228515625
1.42119140625
1.4920898437499999
1.5404296874999999
1.4848388671875
1.56298828125
1.5815185546875
1.5678222656249998
1.571044921875
1.55009765625
1.5799072265624998
1.561376953125
1.5396240234374998
0.920068359375
1.3921875
1.5895751953125
1.5589599609375
1.590380859375
1.6363037109374998
1.8884765625
2.0947265625
1.8393310546875
1.62744140625
1.4977294921875
1.5017578125
1.506591796875
1.5283447265624999
1.5573486328125
1.5243164062499999
1.4961181640624999
1.5073974609374998
1.52109375
1.5251220703125
1.5114257812499998
2.00771484375
1.8626953124999999
1.5597656249999998
1.546875
1.4606689453125
1.4228027343749998
1.3027587890624999
1.1698242187499999
1.2020507812499999
1.42119140625
1.5041748046874999
1.5364013671874999
1.5170654296875
1.53720703125
1.5315673828124998
1.5839355468749998
1.5726562499999999
1.56943359375
1.5734619140625
1.6024658203125
1.5645996093749999
0.9933837890624999
1.3656005859375
1.558154296875
1.5412353515625
1.619384765625
1.65966796875
1.719287109375
2.167236328125
1.815966796875
1.6129394531249999
1.525927734375
1.5194824218749998
1.5154541015624998
1.4945068359375
1.542041015625
1.490478515625
1.5106201171875
1.50498046875
1.5444580078124999
1.5847412109374999
1.5251220703125
1.9569580078125
1.8755859375
1.5968261718749999
1.5315673828124998
1.4155517578124999
1.4381103515625
1.368017578125
1.1794921875
1.2101074218749999
1.3599609375
1.4711425781249998
1.53720703125
1.554931640625
1.5444580078124999
1.5637939453124998
1.606494140625
1.5750732421875
1.5799072265624998
1.5355957031249998
1.546875
1.5565429687499999
1.02158203125
1.200439453125
1.56943359375
1.5645996093749999
1.6169677734374999
1.65966796875
1.7418457031249999
2.1849609375
1.909423828125
1.5895751953125
1.525927734375
1.5243164062499999
1.5380126953125
1.5347900390625
1.5460693359375
1.558154296875
1.5170654296875
1.5138427734375
1.4977294921875
1.5122314453124999
1.513037109375
1.5589599609375
1.8699462890624998
1.5968261718749999
1.5396240234374998
1.5186767578125
1.429248046875
1.4042724609375
1.1529052734375
1.224609375
1.3494873046875
1.4719482421874999
1.5041748046874999
1.4767822265625
1.51787109375
1.554931640625
1.6048828124999999
1.5927978515624999
1.574267578125
1.5662109375
1.58232421875
1.5364013671874999
1.052197265625
1.16337890625
1.577490234375
1.5726562499999999
1.5895751953125
1.683837890625
1.7023681640625
2.1599853515625
1.9392333984374999
1.6854492187499999
1.5702392578125
1.5138427734375
1.4961181640624999
1.5444580078124999
1.538818359375
1.525927734375
1.48564453125
1.5057861328125
1.506591796875
1.522705078125
1.52109375
1.5517089843749998
2.05283203125
1.6540283203125
1.5243164062499999
1.5114257812499998
1.4397216796874999
1.3962158203125
1.148876953125
1.198828125
1.3736572265625
1.4735595703125
1.4864501953125
1.5299560546875
1.5251220703125
1.5734619140625
1.5476806640624998
1.6008544921874999
1.5662109375
1.5525146484374999
1.5589599609375
1.5396240234374998
1.4920898437499999
0.9603515625
1.5412353515625
1.5645996093749999
1.5984375
1.6532226562499999
1.670947265625
2.0625
2.02705078125
1.687060546875
1.5645996093749999
1.53720703125
1.4920898437499999
1.4977294921875
1.5162597656249999
1.5436523437499998
1.509814453125
1.5404296874999999
1.5323730468749999
1.51787109375
1.5251220703125
1.5283447265624999
2.0729736328125
1.6717529296875
1.56943359375
1.5509033203125
1.474365234375
1.4300537109375
1.232666015625
1.1456542968749999
1.2624755859374999
1.3817138671875
1.5154541015624998
1.5509033203125
1.5428466796875
1.5654052734375
1.5484863281249999
1.5492919921875
1.5766845703124999
1.5597656249999998
1.577490234375
1.5645996093749999
1.5218994140625
0.9353759765624999
1.426025390625
1.5839355468749998
1.5686279296874999
1.6298583984375
1.6725585937499998
2.012548828125
2.05927734375
1.75634765625
1.5919921874999998
1.5412353515625
1.4977294921875
1.5162597656249999
1.5194824218749998
1.529150390625
1.5251220703125
1.5444580078124999
1.5251220703125
1.5138427734375
1.4928955078125
1.4920898437499999
2.0665283203125
1.7982421874999999
1.5621826171875
1.5299560546875
1.4848388671875
1.413134765625
1.1996337890625
1.213330078125
1.3180664062499998
1.44052734375
1.4888671875
1.5315673828124998
1.5057861328125
1.5275390624999998
1.546875
1.56298828125
1.574267578125
1.5621826171875
1.558154296875
1.577490234375
1.5557373046874998
0.9482666015625
1.3929931640625
1.554931640625
1.5726562499999999
1.6072998046875
1.6395263671875
1.76279296875
2.096337890625
1.8344970703124999
1.6048828124999999
1.5355957031249998
1.509814453125
1.5492919921875
1.5267333984375
1.4510009765624998
1.53720703125
1.53076171875
1.5146484375
1.5243164062499999
1.5057861328125
1.4864501953125
2.0173828124999997
1.8054931640624998
1.5565429687499999
1.5347900390625
1.4630859374999998
1.4244140625
1.2689208984375
1.224609375
1.2383056640624999
1.3913818359374999
1.5001464843749999
1.5484863281249999
1.5557373046874998
1.5565429687499999
1.5662109375
1.5597656249999998
1.5484863281249999
1.5597656249999998
1.5492919921875
1.5621826171875
1.5347900390625
0.9450439453124999
1.2495849609374998
1.558154296875
1.56943359375
1.6435546875
1.6636962890625
1.7410400390624998
2.1535400390625
1.877197265625
1.5992431640625
1.529150390625
1.506591796875
1.5275390624999998
1.5202880859374999
1.5525146484374999
1.506591796875
1.5138427734375
1.5355957031249998
1.51787109375
1.52109375
1.5364013671874999
1.7474853515625
1.8385253906249999
1.6081054687499998
1.5533203125
1.4816162109375
1.3946044921874998
1.3599609375
1.1529052734375
1.2093017578125
1.3801025390625
1.4751708984374998
1.5154541015624998
1.5734619140625
1.52109375
1.5686279296874999
1.5750732421875
1.5758789062499998
1.5686279296874999
1.5758789062499998
1.5565429687499999
1.5645996093749999
0.968408203125
1.2270263671875
1.52109375
1.5718505859374998
1.622607421875
1.670947265625
1.7337890624999999
2.1696533203125
1.8812255859375
1.6322753906249998
1.5678222656249998
1.5162597656249999
1.5025634765625
1.5170654296875
1.525927734375
1.5090087890625
1.48564453125
1.5235107421874998
1.5509033203125
1.5476806640624998
1.5194824218749998
1.699951171875
2.0246337890625
1.6612792968749999
1.5670166015625
1.5243164062499999
1.4469726562499998
1.3905761718749998
1.2125244140625
1.171435546875
1.3623779296874998
1.482421875
1.525927734375
1.5355957031249998
1.5396240234374998
1.545263671875
1.5251220703125
1.5517089843749998
1.56298828125
1.5541259765625
1.5597656249999998
1.5517089843749998
1.4115234374999999
1.0481689453125
1.5243164062499999
1.5565429687499999
1.5911865234375
1.6612792968749999
1.7072021484375
2.1293701171875
1.9948242187499998
1.67900390625
1.5766845703124999
1.4961181640624999
1.496923828125
1.5484863281249999
1.5718505859374998
1.5251220703125
1.50498046875
1.513037109375
1.51787109375
1.542041015625
1.4993408203124998
1.4840332031249999
2.0214111328124997
1.6298583984375
1.5605712890624999
1.5082031249999999
1.4364990234375
1.4010498046875
1.14404296875
1.1915771484375
1.3398193359375
1.4461669921875
1.496923828125
1.5347900390625
1.5355957031249998
1.5702392578125
1.58232421875
1.6153564453125
1.5911865234375
1.5702392578125
1.5815185546875
1.5839355468749998
1.4469726562499998
1.039306640625
1.5057861328125
1.5525146484374999
1.5782958984375
1.622607421875
1.651611328125
2.101171875
1.989990234375
1.735400390625
1.5605712890624999
1.5033691406249998
1.4703369140625
1.53720703125
1.4920898437499999
1.4735595703125
1.480810546875
1.5364013671874999
1.5364013671874999
1.525927734375
1.5090087890625
1.513037109375
2.12373046875
1.6645019531249998
1.5799072265624998
1.56298828125
1.4920898437499999
1.41796875
1.1947998046875
1.134375
1.3100097656249998
1.4550292968749998
1.53076171875
1.5484863281249999
1.5533203125
1.5492919921875
1.5750732421875
1.5863525390625
1.5726562499999999
1.5791015625
1.609716796875
1.5484863281249999
1.5702392578125
0.9804931640625
1.4348876953124998
1.5678222656249998
1.5565429687499999
1.625830078125
1.6169677734374999
1.8417480468749998
2.031884765625
1.7499023437499999
1.6008544921874999
1.5033691406249998
1.5605712890624999
1.5509033203125
1.4550292968749998
1.5243164062499999
1.5791015625
1.5525146484374999
1.525927734375
1.5347900390625
1.5331787109375
1.5476806640624998
2.157568359375
1.7579589843749999
1.5299560546875
1.5275390624999998
1.4630859374999998
1.4091064453125
1.184326171875
1.148876953125
1.235888671875
1.4115234374999999
1.482421875
1.53720703125
1.509814453125
1.545263671875
1.5621826171875
1.5662109375
1.6048828124999999
1.5533203125
1.5750732421875
1.577490234375
1.5879638671874998
0.9079833984375
1.332568359375
1.5815185546875
1.5831298828125
1.603271484375
1.6371093749999999
1.8095214843749998
2.14951171875
1.8095214843749998
1.585546875
1.5525146484374999
1.5106201171875
1.48564453125
1.5001464843749999
1.5202880859374999
1.5436523437499998
1.5001464843749999
1.5323730468749999
1.5218994140625
1.5162597656249999
1.545263671875
1.9118408203125
1.8755859375
1.538818359375
1.493701171875
1.4276367187499999
1.3591552734374999
1.2745605468749999
1.0852294921874999
1.2270263671875
1.3833251953124999
1.477587890625
1.5331787109375
1.5492919921875
1.5597656249999998
1.529150390625
1.5791015625
1.5887695312499999
1.5984375
1.6056884765625
1.5911865234375
1.5799072265624998
0.8370849609375
1.281005859375
1.5525146484374999
1.5380126953125
1.5960205078124998
1.658056640625
1.7337890624999999
2.2236328125
1.8538330078124998
1.606494140625
1.50498046875
1.4711425781249998
1.4888671875
1.4945068359375
1.5484863281249999
1.5033691406249998
1.509814453125
1.5380126953125
1.5194824218749998
1.5170654296875
1.5380126953125
1.9198974609375
2.051220703125
1.6564453124999998
1.5170654296875
1.4872558593749998
1.3865478515624998
1.2955078125
1.0828125
1.0675048828125
1.3100097656249998
1.474365234375
1.496923828125
1.4864501953125
1.5782958984375
1.545263671875
1.5355957031249998
1.5323730468749999
1.5517089843749998
1.5138427734375
1.522705078125
1.4993408203124998
1.05380859375
0.9450439453124999
1.480810546875
1.5396240234374998
1.622607421875
1.7474853515625
1.7732666015624998
2.360595703125
2.0552490234375
1.6967285156249998
1.5509033203125
1.442138671875
1.5025634765625
1.4953124999999998
1.5678222656249998
1.546875
1.5380126953125
1.4244140625
1.5194824218749998
1.5275390624999998
1.4896728515625
1.4977294921875
2.086669921875
1.6894775390624999
1.5557373046874998
1.4469726562499998
1.3833251953124999
1.3390136718749999
1.05380859375
1.04736328125
1.22783203125
1.3631835937499999
1.4429443359374998
1.4630859374999998
1.4510009765624998
1.60166015625
1.6048828124999999
1.6483886718749998
1.6483886718749998
1.609716796875
1.6056884765625
1.606494140625
1.2109130859375
0.9611572265624999
1.4800048828124999
1.625830078125
1.6645019531249998
1.6878662109375
1.7257324218749999
2.325146484375
2.0987548828125
1.7684326171875
1.5243164062499999
1.5235107421874998
1.53076171875
1.5799072265624998
1.5412353515625
1.52109375
1.4864501953125
1.49853515625
1.4759765624999999
1.482421875
1.4364990234375
1.4840332031249999
2.2937255859375
1.82080078125
1.5670166015625
1.533984375
1.4397216796874999
1.281005859375
0.9772705078124999
0.9869384765625
1.147265625
1.3897705078125
1.4711425781249998
1.46630859375
1.5017578125
1.587158203125
1.7120361328125
1.63388671875
1.63388671875
1.6234130859375
1.6371093749999999
1.5750732421875
1.5799072265624998
0.678369140625
1.4381103515625
1.5670166015625
1.5839355468749998
1.7047851562499998
1.7772949218749998
2.2437744140625
2.3807373046875
1.8151611328125
1.56943359375
1.4389160156249998
1.4477783203124999
1.4896728515625
1.5267333984375
1.529150390625
1.529150390625
1.4928955078125
1.5138427734375
1.4759765624999999
1.4928955078125
1.5235107421874998
2.4355224609375
1.9086181640625
1.6218017578125
1.4759765624999999
1.3921875
1.2818115234374998
1.06669921875
0.88623046875
1.0803955078125
1.4671142578124998
1.6105224609375
1.6040771484374998
1.5154541015624998
1.603271484375
1.6459716796875
1.571044921875
1.571044921875
1.5436523437499998
1.4558349609374999
1.4348876953124998
1.3656005859375
0.3279052734375
1.0739501953125
1.56298828125
1.6765869140624998
1.7700439453124999
1.8892822265625
2.42666015625
2.711865234375
2.21396484375
1.6588623046875
1.4058837890625
1.4010498046875
1.4542236328125
1.48564453125
1.5017578125
1.4679199218749999
1.49853515625
1.4606689453125
1.4993408203124998
1.4638916015624999
1.458251953125
2.4661376953125
2.2695556640625
1.6878662109375
1.377685546875
1.271337890625
1.2205810546875
0.9659912109375
0.7242919921875
0.871728515625
1.20849609375
1.4203857421875
1.5267333984375
1.525927734375
1.8369140625
2.5241455078125
2.109228515625
1.8304687499999999
1.6081054687499998
1.4638916015624999
1.4759765624999999
1.41796875
0.1861083984375
0.8451416015625
1.4445556640625
1.622607421875
1.7418457031249999
1.877197265625
2.0616943359374997
3.037353515625
2.281640625
1.7507080078125
1.340625
1.2157470703125
1.2673095703125
1.3180664062499998
1.4413330078125
1.4276367187499999
1.4816162109375
1.4445556640625
1.4719482421874999
1.4800048828124999
1.4872558593749998
2.8133789062499996
3.0349365234374996
3.0365478515624997
3.0349365234374996
3.0389648437499996
3.034130859375
3.0389648437499996
1.8908935546874999
0.910400390625
0.31662597656249997
0.030615234374999998
0.0298095703125
0.030615234374999998
0.0322265625
0.0322265625
0.16032714843749998
0.02900390625
0.0298095703125
0.033837890625
0.02900390625
0.061230468749999996
0.030615234374999998
0.0249755859375
0.030615234374999998
0.030615234374999998
0.0298095703125
0.027392578124999997
0.026586914062499998
2.0431640625
2.8375488281249996
3.0349365234374996
3.0389648437499996
3.0365478515624997
3.037353515625
3.037353515625
3.0357421875
3.0357421875
3.037353515625
3.0357421875
3.0309082031249996
2.9978759765625
2.985791015625
3.0333251953125
3.034130859375
3.0381591796875
3.037353515625
3.0365478515624997
3.0349365234374996
3.037353515625
2.2760009765625
1.2366943359375
0.34160156249999996
0.033837890625
0.02900390625
0.0322265625
0.027392578124999997
0.0298095703125
0.02900390625
0.030615234374999998
0.027392578124999997
0.030615234374999998
0.030615234374999998
0.033032226562499996
0.030615234374999998
0.0169189453125
0.026586914062499998
0.0322265625
0.026586914062499998
0.030615234374999998
0.0298095703125
1.2157470703125
2.5579833984375
3.0349365234374996
3.0357421875
3.037353515625
3.0365478515624997
3.0357421875
3.0357421875
3.0325195312499997
3.0357421875
3.0357421875
3.0357421875
3.0365478515624997
2.9688720703125
2.8528564453125
3.0349365234374996
3.034130859375
3.0325195312499997
3.0349365234374996
3.0389648437499996
3.0325195312499997
2.24619140625
1.22138671875
0.472119140625
0.030615234374999998
0.02900390625
0.02578125
0.030615234374999998
0.02578125
0.02900390625
0.0298095703125
0.0298095703125
0.026586914062499998
0.0298095703125
0.0298095703125
0.0298095703125
0.026586914062499998
0.027392578124999997
0.033032226562499996
0.02900390625
0.0281982421875
0.0298095703125
0.030615234374999998
2.4129638671875
3.0002929687499997
3.0365478515624997
3.0325195312499997
3.0365478515624997
3.037353515625
3.0357421875
3.0365478515624997
3.0325195312499997
3.0357421875
3.0325195312499997
3.029296875
2.985791015625
2.9342285156249996
3.0381591796875
3.0381591796875
3.0357421875
3.0365478515624997
3.0349365234374996
3.0333251953125
2.3952392578125
1.590380859375
0.668701171875
0.1039306640625
0.0298095703125
0.033837890625
0.026586914062499998
0.02900390625
0.0394775390625
0.0298095703125
0.027392578124999997
0.0322265625
0.030615234374999998
0.0298095703125
0.0298095703125
0.024169921875
0.0298095703125
0.030615234374999998
0.0298095703125
0.0298095703125
0.030615234374999998
0.0298095703125
2.25263671875
2.808544921875
3.037353515625
3.037353515625
3.0349365234374996
3.0357421875
3.0357421875
3.0365478515624997
3.0333251953125
3.0357421875
3.0357421875
3.0027099609374996
2.9640380859374997
2.89072265625
3.0365478515624997
3.0365478515624997
3.037353515625
3.0325195312499997
3.037353515625
3.0381591796875
3.0365478515624997
1.925537109375
0.6823974609375
0.0837890625
0.033837890625
0.0298095703125
0.033837890625
0.030615234374999998
0.030615234374999998
0.0298095703125
0.030615234374999998
0.033837890625
0.033032226562499996
0.0298095703125
0.033032226562499996
0.026586914062499998
0.0314208984375
0.0298095703125
0.030615234374999998
0.027392578124999997
0.02900390625
0.033837890625
1.606494140625
2.8552734374999997
3.0397705078125
3.0365478515624997
3.034130859375
3.0357421875
3.0397705078125
3.0365478515624997
3.0365478515624997
3.0357421875
3.0349365234374996
3.034130859375
2.9455078125
2.8713867187499997
2.808544921875
3.0357421875
3.037353515625
3.0365478515624997
3.0357421875
3.0381591796875
3.0357421875
2.204296875
0.9321533203125
0.2892333984375
0.0298095703125
0.033032226562499996
0.018530273437499998
0.026586914062499998
0.0322265625
0.0298095703125
0.0298095703125
0.030615234374999998
0.0298095703125
0.02578125
0.0298095703125
0.0322265625
0.033837890625
0.0298095703125
0.0298095703125
0.02900390625
0.0322265625
0.0298095703125
0.78310546875
2.544287109375
3.0357421875
3.0389648437499996
3.0365478515624997
3.0357421875
3.037353515625
3.0357421875
3.0333251953125
3.0333251953125
3.034130859375
3.0349365234374996
3.0357421875
2.9608154296875
2.8850830078125
3.0349365234374996
3.0365478515624997
3.0365478515624997
3.034130859375
3.037353515625
3.0325195312499997
2.34287109375
1.34384765625
0.501123046875
0.027392578124999997
0.026586914062499998
0.02900390625
0.02900390625
0.0281982421875
0.0298095703125
0.02900390625
0.0298095703125
0.02900390625
0.0298095703125
0.02578125
0.0314208984375
0.0314208984375
0.0298095703125
0.02900390625
0.033032226562499996
0.02900390625
0.02900390625
0.5696044921875
2.1954345703125
2.921337890625
3.0333251953125
3.037353515625
3.0357421875
3.037353515625
3.0357421875
3.0357421875
3.0381591796875
3.0365478515624997
3.0365478515624997
3.0301025390625
2.95517578125
2.9060302734374996
3.0333251953125
3.0349365234374996
3.0365478515624997
3.0365478515624997
3.0381591796875
3.0389648437499996
2.8254638671874996
1.7080078125
0.47775878906249997
0.027392578124999997
0.02900390625
0.033032226562499996
0.02900390625
0.0298095703125
0.030615234374999998
0.0298095703125
0.0322265625
0.0298095703125
0.02900390625
0.033032226562499996
0.02900390625
0.030615234374999998
0.0298095703125
0.0281982421875
0.030615234374999998
0.027392578124999997
0.0281982421875
0.0298095703125
1.8224121093749999
2.818212890625
3.034130859375
3.0389648437499996
3.0357421875
3.037353515625
3.0365478515624997
3.0381591796875
3.0381591796875
3.0349365234374996
3.0357421875
2.9350341796875
2.8681640625
2.7867919921874997
3.0357421875
3.0365478515624997
3.0357421875
3.0357421875
3.0317138671875
3.0357421875
3.0389648437499996
1.85947265625
0.865283203125
0.2263916015625
0.0298095703125
0.033837890625
0.0322265625
0.0314208984375
0.0298095703125
0.02900390625
0.02900390625
0.026586914062499998
0.0298095703125
0.0298095703125
0.033837890625
0.033032226562499996
0.0281982421875
0.0314208984375
0.030615234374999998
0.026586914062499998
0.0298095703125
0.030615234374999998
1.8659179687499998
2.591015625
3.0357421875
3.037353515625
3.0365478515624997
3.0357421875
3.0357421875
3.0349365234374996
3.0357421875
3.034130859375
3.0301025390625
3.0333251953125
2.9849853515625
2.8931396484375
3.0349365234374996
3.0325195312499997
3.0357421875
3.0349365234374996
3.0365478515624997
3.0349365234374996
3.034130859375
2.2357177734375
1.1964111328125
0.323876953125
0.0314208984375
0.033032226562499996
0.030615234374999998
0.02900390625
0.02900390625
0.033032226562499996
0.02900390625
0.027392578124999997
0.02900390625
0.0298095703125
0.030615234374999998
0.027392578124999997
0.0298095703125
0.02900390625
0.0298095703125
0.027392578124999997
0.030615234374999998
0.0298095703125
1.1448486328125
2.321923828125
3.0301025390625
3.0357421875
3.0349365234374996
3.0325195312499997
3.0397705078125
3.0357421875
3.037353515625
3.034130859375
3.0333251953125
3.0365478515624997
3.01962890625
2.9277832031249997
2.7005859374999996
3.0365478515624997
3.0325195312499997
3.034130859375
3.0333251953125
3.034130859375
3.034130859375
2.0737792968749997
1.181103515625
0.46970214843749997
0.030615234374999998
0.02900390625
0.0298095703125
0.0281982421875
0.0298095703125
0.027392578124999997
0.02900390625
0.033837890625
0.027392578124999997
0.0281982421875
0.030615234374999998
0.0322265625
0.033837890625
0.026586914062499998
0.0281982421875
0.0281982421875
0.0281982421875
0.030615234374999998
0.0322265625
2.2808349609375
2.8705810546875
3.0301025390625
3.0357421875
3.034130859375
3.0397705078125
3.0357421875
3.034130859375
3.0349365234374996
3.0357421875
3.0301025390625
3.0067382812499996
2.9479248046874997
2.9350341796875
3.0365478515624997
3.034130859375
3.0357421875
3.034130859375
3.0357421875
3.0357421875
2.2953369140624997
1.609716796875
0.6904541015625
0.07009277343749999
0.0298095703125
0.0298095703125
0.02900390625
0.0298095703125
0.0322265625
0.030615234374999998
0.0298095703125
0.02900390625
0.09829101562499999
0.0281982421875
0.033837890625
0.026586914062499998
0.033032226562499996
0.0298095703125
0.030615234374999998
0.0298095703125
0.0281982421875
0.0298095703125
2.0633056640625
2.7803466796875
3.037353515625
3.0357421875
3.0357421875
3.037353515625
3.034130859375
3.0381591796875
3.034130859375
3.0349365234374996
3.0349365234374996
3.0147949218749996
2.963232421875
2.8915283203124997
3.0349365234374996
3.0365478515624997
3.0349365234374996
3.0317138671875
3.0325195312499997
3.0397705078125
3.0349365234374996
2.0020751953125
0.9643798828125
0.1119873046875
0.0346435546875
0.02900390625
0.030615234374999998
0.0298095703125
0.0298095703125
0.0281982421875
0.030615234374999998
0.0322265625
0.0314208984375
0.030615234374999998
0.026586914062499998
0.0298095703125
0.026586914062499998
0.0298095703125
0.030615234374999998
0.02900390625
0.02900390625
0.0298095703125
1.4219970703125
2.450830078125
3.034130859375
3.0357421875
3.0365478515624997
3.034130859375
3.0357421875
3.0325195312499997
3.037353515625
3.0357421875
3.0365478515624997
3.0381591796875
2.9970703125
2.9503417968749996
2.8625244140625
3.0389648437499996
3.0349365234374996
3.0397705078125
3.034130859375
3.0325195312499997
3.0365478515624997
2.2083251953125
1.0417236328125
0.37785644531249996
0.0281982421875
0.0314208984375
0.030615234374999998
0.0322265625
0.0281982421875
0.0298095703125
0.0298095703125
0.026586914062499998
0.0281982421875
0.026586914062499998
0.033032226562499996
0.02578125
0.026586914062499998
0.02578125
0.0281982421875
0.030615234374999998
0.033032226562499996
0.0322265625
0.78955078125
2.4749999999999996
2.972900390625
3.0317138671875
3.0349365234374996
3.034130859375
3.034130859375
3.0333251953125
3.034130859375
3.0333251953125
3.0333251953125
3.0357421875
3.0349365234374996
2.956787109375
2.8883056640625
3.0357421875
3.0325195312499997
3.0333251953125
3.034130859375
3.0349365234374996
3.0365478515624997
2.344482421875
1.3390136718749999
0.5744384765625
0.027392578124999997
0.02900390625
0.0298095703125
0.027392578124999997
0.02900390625
0.02900390625
0.0314208984375
0.026586914062499998
0.0322265625
0.030615234374999998
0.0298095703125
0.033032226562499996
0.02900390625
0.02578125
0.0281982421875
0.0298095703125
0.0281982421875
0.0322265625
0.42539062499999997
2.0520263671875
2.7126708984374996
3.0357421875
3.0365478515624997
3.034130859375
3.037353515625
3.0357421875
3.0325195312499997
3.0325195312499997
3.0365478515624997
2.914892578125
2.9592041015625
2.8536621093749996
2.802099609375
3.0349365234374996
3.0309082031249996
3.0365478515624997
3.0357421875
3.037353515625
3.0349365234374996
2.7674560546875
1.76279296875
0.5422119140625
0.07814941406249999
0.0298095703125
0.0281982421875
0.0322265625
0.0322265625
0.0298095703125
0.0314208984375
0.02900390625
0.030615234374999998
0.033032226562499996
0.0298095703125
0.02900390625
0.0298095703125
0.0298095703125
0.033032226562499996
0.0298095703125
0.0322265625
0.0298095703125
0.0298095703125
1.7619873046874999
2.7094482421875
3.0325195312499997
3.034130859375
3.0349365234374996
3.0349365234374996
3.0357421875
3.0365478515624997
3.0357421875
3.037353515625
3.0333251953125
3.0357421875
3.0389648437499996
2.9326171875
3.034130859375
3.0357421875
3.0333251953125
3.0357421875
3.0357421875
3.0333251953125
3.0349365234374996
1.732177734375
0.7702148437499999
0.15468749999999998
0.0281982421875
0.026586914062499998
0.026586914062499998
0.0322265625
0.033032226562499996
0.02900390625
0.02900390625
0.0298095703125
0.0298095703125
0.0322265625
0.0281982421875
0.026586914062499998
0.02900390625
0.02578125
0.033032226562499996
0.026586914062499998
0.0298095703125
0.02900390625
1.8143554687499999
2.5773193359374997
2.9946533203124996
3.0365478515624997
3.0349365234374996
3.0365478515624997
3.0397705078125
3.0357421875
3.0357421875
3.034130859375
3.0325195312499997
3.0325195312499997
3.0164062499999997
2.8673583984374997
3.0365478515624997
3.0357421875
3.0397705078125
3.034130859375
3.0333251953125
3.0365478515624997
3.034130859375
2.2880859375
1.2012451171875
0.35126953125
0.030615234374999998
0.033837890625
0.030615234374999998
0.0298095703125
0.0298095703125
0.0281982421875
0.0322265625
0.0298095703125
0.0298095703125
0.0298095703125
0.02578125
0.026586914062499998
0.0298095703125
0.0298095703125
0.033032226562499996
0.02900390625
0.026586914062499998
0.02900390625
1.15693359375
2.2437744140625
2.9519531249999997
3.0357421875
3.0349365234374996
3.0365478515624997
3.0357421875
3.0365478515624997
3.0333251953125
3.0349365234374996
3.0333251953125
3.037353515625
2.9712890625
2.876220703125
2.7884033203125
3.0349365234374996
3.0325195312499997
3.034130859375
3.0357421875
3.0365478515624997
3.0357421875
2.384765625
1.5815185546875
0.42619628906249996
0.02900390625
0.033032226562499996
0.0322265625
0.030615234374999998
0.027392578124999997
0.033837890625
0.02900390625
0.0298095703125
0.0298095703125
0.030615234374999998
0.0298095703125
0.026586914062499998
0.0281982421875
0.0298095703125
0.02900390625
0.033032226562499996
0.02900390625
0.024169921875
0.027392578124999997
1.9271484374999999
2.8149902343749997
3.0389648437499996
3.0357421875
3.0349365234374996
3.0365478515624997
3.0365478515624997
3.034130859375
3.0357421875
3.0365478515624997
3.0389648437499996
2.94873046875
2.8705810546875
2.8061279296875
3.0349365234374996
3.0357421875
3.0357421875
3.034130859375
3.0357421875
3.0365478515624997
3.0349365234374996
1.6411376953124999
0.7210693359375
0.133740234375
0.030615234374999998
0.0298095703125
0.0322265625
0.030615234374999998
0.030615234374999998
0.026586914062499998
0.0314208984375
0.02900390625
0.0281982421875
0.02578125
0.02578125
0.02900390625
0.027392578124999997
0.02900390625
0.033032226562499996
0.0298095703125
0.033032226562499996
0.026586914062499998
1.9053955078125
2.6675537109375
3.0365478515624997
3.0357421875
3.037353515625
3.0357421875
3.0357421875
3.034130859375
3.0357421875
3.037353515625
3.0325195312499997
2.9672607421875
2.9543701171874996
2.8673583984374997
3.034130859375
3.0357421875
3.0357421875
3.037353515625
3.0357421875
3.034130859375
3.0357421875
2.0334960937499997
0.9724365234375
0.14824218749999998
0.02900390625
0.0298095703125
0.02900390625
0.0298095703125
0.02900390625
0.0298095703125
0.0298095703125
0.0281982421875
0.0298095703125
0.0298095703125
0.030615234374999998
0.02900390625
0.026586914062499998
0.027392578124999997
0.0298095703125
0.0298095703125
0.030615234374999998
0.0322265625
1.4026611328124998
2.399267578125
2.9269775390625
3.0397705078125
3.0405761718749997
3.0349365234374996
3.0365478515624997
3.0317138671875
3.0325195312499997
3.037353515625
3.0244628906249997
3.0333251953125
2.99384765625
2.8899169921874996
2.811767578125
3.037353515625
3.0333251953125
3.0357421875
3.0349365234374996
3.0349365234374996
3.0349365234374996
2.34609375
1.329345703125
0.30856933593749997
0.0322265625
0.02900390625
0.0298095703125
0.0314208984375
0.02900390625
0.030615234374999998
0.027392578124999997
0.0314208984375
0.019335937499999997
0.02900390625
0.0314208984375
0.027392578124999997
0.0298095703125
0.02900390625
0.027392578124999997
0.030615234374999998
0.0314208984375
0.027392578124999997
0.6517822265625
2.060888671875
2.818212890625
3.0349365234374996
3.0357421875
3.0357421875
3.0365478515624997
3.0357421875
3.0365478515624997
3.0309082031249996
3.0349365234374996
3.037353515625
2.9825683593749996
2.940673828125
2.85205078125
3.0333251953125
3.034130859375
3.0357421875
3.034130859375
3.0365478515624997
3.0365478515624997
2.616796875
1.36962890625
0.5808837890624999
0.0958740234375
0.02578125
0.033837890625
0.02900390625
0.0314208984375
0.0298095703125
0.02900390625
0.030615234374999998
0.0281982421875
0.0298095703125
0.02578125
0.02578125
0.0298095703125
0.0298095703125
0.030615234374999998
0.030615234374999998
0.0314208984375
0.033837890625
0.02900390625
2.2268554687499997
2.8633300781249997
3.0317138671875
3.0357421875
3.0357421875
3.0357421875
3.0349365234374996
3.034130859375
3.04541015625
3.0357421875
3.0252685546875
3.0027099609374996
2.9334228515625
2.8037109375
3.0349365234374996
3.0429931640624996
3.0397705078125
3.0357421875
3.0357421875
3.0333251953125
2.8141845703125
1.75634765625
0.7669921875
0.0362548828125
0.0322265625
0.0298095703125
0.030615234374999998
0.02900390625
0.0298095703125
0.0298095703125
0.0298095703125
0.026586914062499998
0.030615234374999998
0.0298095703125
0.033837890625
0.0298095703125
0.0298095703125
0.030615234374999998
0.026586914062499998
0.0298095703125
0.030615234374999998
0.033837890625
1.85302734375
2.56201171875
3.0333251953125
3.0365478515624997
3.0349365234374996
3.037353515625
3.0357421875
3.034130859375
3.0381591796875
2.9865966796874996
3.029296875
2.9519531249999997
2.866552734375
2.8472167968749997
3.0309082031249996
3.0381591796875
3.0349365234374996
3.0357421875
3.0365478515624997
3.0389648437499996
3.0365478515624997
2.0955322265625
0.8225830078124999
0.262646484375
0.033837890625
0.0298095703125
0.0298095703125
0.02900390625
0.0298095703125
0.0314208984375
0.026586914062499998
0.027392578124999997
0.030615234374999998
0.0298095703125
0.030615234374999998
0.02900390625
0.0298095703125
0.0298095703125
0.0298095703125
0.026586914062499998
0.02900390625
0.0314208984375
1.2125244140625
2.4991699218749996
2.9430908203125
3.0325195312499997
3.037353515625
3.0389648437499996
3.0357421875
3.0381591796875
3.0397705078125
3.0333251953125
2.9825683593749996
2.9986816406249996
2.9978759765625
2.88427734375
3.0309082031249996
3.0317138671875
3.0389648437499996
3.0365478515624997
3.034130859375
3.0349365234374996
3.0397705078125
2.14951171875
1.1222900390625
0.38671875
0.0298095703125
0.030615234374999998
0.02578125
0.0346435546875
0.0314208984375
0.0298095703125
0.02900390625
0.033032226562499996
0.030615234374999998
0.0298095703125
0.030615234374999998
0.0298095703125
0.030615234374999998
0.0298095703125
0.02900390625
0.033032226562499996
0.02578125
0.030615234374999998
1.173046875
2.2969482421875
2.818212890625
3.0333251953125
3.0357421875
3.0365478515624997
3.034130859375
3.0357421875
3.037353515625
3.0381591796875
3.0389648437499996
3.0325195312499997
3.0164062499999997
3.0325195312499997
2.8166015625
3.0349365234374996
3.034130859375
3.0357421875
3.0357421875
3.0389648437499996
3.037353515625
2.3775146484375
1.5654052734375
0.5115966796875
0.030615234374999998
0.030615234374999998
0.033032226562499996
0.0298095703125
0.033032226562499996
0.041088867187499996
0.0298095703125
0.0298095703125
0.02900390625
0.030615234374999998
0.0314208984375
0.0298095703125
0.030615234374999998
0.033837890625
0.026586914062499998
0.02900390625
0.02900390625
0.026586914062499998
0.027392578124999997
1.8900878906249998
2.7884033203125
3.0357421875
3.0357421875
3.0365478515624997
3.0357421875
3.0349365234374996
3.0365478515624997
3.0365478515624997
3.0349365234374996
3.037353515625
3.0220458984375
2.9398681640624997
2.8464111328125
3.0365478515624997
3.0325195312499997
3.0365478515624997
3.037353515625
3.0381591796875
3.0389648437499996
3.037353515625
1.8489990234375
0.6098876953125
0.0298095703125
0.02900390625
0.030615234374999998
0.02900390625
0.0314208984375
0.0322265625
0.02900390625
0.033032226562499996
0.02900390625
0.0298095703125
0.030615234374999998
0.0298095703125
0.0298095703125
0.0298095703125
0.0298095703125
0.026586914062499998
0.0298095703125
0.0298095703125
0.0298095703125
1.4703369140625
2.6055175781249997
2.9543701171874996
3.0357421875
3.0357421875
3.0357421875
3.0381591796875
3.0349365234374996
3.0349365234374996
3.0357421875
3.0067382812499996
2.9930419921875
2.9326171875
2.8641357421875
3.0357421875
3.037353515625
3.0365478515624997
3.0333251953125
3.0365478515624997
3.0349365234374996
3.0365478515624997
2.00771484375
0.9990234375
0.323876953125
0.0314208984375
0.026586914062499998
0.0298095703125
0.0298095703125
0.0314208984375
0.026586914062499998
0.0314208984375
0.02900390625
0.022558593749999998
0.026586914062499998
0.033837890625
0.0298095703125
0.0322265625
0.030615234374999998
0.033837890625
0.02900390625
0.02900390625
0.0298095703125
1.4034667968749999
2.4000732421874997
2.8939453124999996
3.0349365234374996
3.037353515625
3.0365478515624997
3.0325195312499997
3.0357421875
3.0349365234374996
3.0309082031249996
2.9390625
2.979345703125
2.89072265625
2.7827636718749997
2.75537109375
3.0349365234374996
3.037353515625
3.0381591796875
3.037353515625
3.0357421875
3.0357421875
2.3227294921875
1.3148437499999999
0.3311279296875
0.02900390625
0.0298095703125
0.030615234374999998
0.0298095703125
0.0298095703125
0.0298095703125
0.02900390625
0.0298095703125
0.0281982421875
0.0281982421875
0.0298095703125
0.0298095703125
0.033032226562499996
0.0298095703125
0.033032226562499996
0.02578125
0.0298095703125
0.0298095703125
0.78955078125
2.115673828125
2.9302001953124996
3.037353515625
3.0365478515624997
3.0397705078125
3.0365478515624997
3.0357421875
3.027685546875
3.0333251953125
3.0317138671875
3.0325195312499997
2.9865966796874996
2.9503417968749996
2.872998046875
3.0349365234374996
3.0349365234374996
3.037353515625
3.034130859375
3.0349365234374996
3.0365478515624997
2.6820556640624997
1.3543212890624998
0.49870605468749996
0.0298095703125
0.0298095703125
0.033837890625
0.02900390625
0.0298095703125
0.027392578124999997
0.026586914062499998
0.02900390625
0.0314208984375
0.0298095703125
0.02900390625
0.030615234374999998
0.02900390625
0.02900390625
0.030615234374999998
0.033837890625
0.030615234374999998
0.0298095703125
0.0298095703125
2.0842529296875
2.698974609375
2.9970703125
3.0365478515624997
3.0357421875
3.0349365234374996
3.0357421875
3.037353515625
3.0389648437499996
3.034130859375
3.029296875
2.9801513671874997
2.8794433593749997
2.8230468749999997
3.037353515625
3.0357421875
3.0397705078125
3.034130859375
3.0349365234374996
3.0357421875
2.6723876953124996
1.7410400390624998
0.6993164062499999
0.1297119140625
0.030615234374999998
0.0298095703125
0.0298095703125
0.0298095703125
0.0298095703125
0.0298095703125
0.0298095703125
0.0298095703125
0.030615234374999998
0.02900390625
0.0298095703125
0.02900390625
0.030615234374999998
0.0281982421875
0.030615234374999998
0.02578125
0.02578125
0.0249755859375
1.8095214843749998
2.608740234375
3.0244628906249997
3.0357421875
3.034130859375
3.0397705078125
3.0357421875
3.0325195312499997
3.034130859375
3.0317138671875
3.0333251953125
3.0252685546875
2.9712890625
2.9640380859374997
3.0389648437499996
3.0365478515624997
3.0349365234374996
3.0325195312499997
3.0389648437499996
3.037353515625
3.0325195312499997
2.1954345703125
1.14404296875
0.230419921875
0.02900390625
0.030615234374999998
0.02900390625
0.030615234374999998
0.0298095703125
0.0281982421875
0.02900390625
0.026586914062499998
0.02578125
0.0249755859375
0.0298095703125
0.030615234374999998
0.030615234374999998
0.0314208984375
0.02578125
0.027392578124999997
0.027392578124999997
0.0298095703125
1.24716796875
2.4919189453125
3.037353515625
3.0365478515624997
3.0365478515624997
3.0333251953125
3.037353515625
3.034130859375
3.0365478515624997
3.0309082031249996
3.0357421875
3.0365478515624997
3.011572265625
2.9221435546874996
2.8786376953125
3.0365478515624997
3.0349365234374996
3.0357421875
3.0381591796875
3.0389648437499996
3.034130859375
2.360595703125
1.2955078125
0.5873291015625
0.111181640625
0.030615234374999998
0.02900390625
3.0325195312499997
3.0365478515624997
3.0357421875
3.0365478515624997
3.0357421875
3.0357421875
3.0349365234374996
3.0349365234374996
3.034130859375
3.0333251953125
3.0357421875
3.037353515625
3.034130859375
3.034130859375
3.0349365234374996
3.034130859375
3.0317138671875
2.9994873046875
2.5724853515625
2.112451171875
1.7265380859375
1.4155517578124999
1.0143310546875
0.8048583984375
0.7516845703124999
1.1786865234375
1.0723388671875
0.84755859375
0.6598388671875
0.6002197265625
1.67900390625
1.1690185546875
0.69287109375
0.5325439453124999
0.43425292968749996
0.3826904296875
0.053173828124999996
0.040283203125
0.1571044921875
0.507568359375
0.6509765624999999
0.7057617187499999
0.7500732421874999
0.8177490234375
0.8910644531249999
0.9128173828124999
0.9611572265624999
0.958740234375
1.0127197265624999
1.0513916015625
1.0570312499999999
0.09829101562499999
0.6123046875
1.11181640625
1.171435546875
1.2745605468749999
1.329345703125
1.5146484375
2.0625
1.5557373046874998
1.300341796875
1.1641845703125
1.1545166015625
1.2173583984375
1.1939941406249999
1.1947998046875
1.2399169921875
1.2536132812499998
1.2705322265624999
1.2777832031249998
1.2745605468749999
1.27939453125
1.786962890625
1.7394287109375
1.4042724609375
1.3905761718749998
1.2423339843749999
1.2350830078125
1.119873046875
0.9450439453124999
0.913623046875
1.1448486328125
1.2665039062499999
1.3639892578125
1.332568359375
1.3551269531249999
1.4622802734375
1.4767822265625
1.4687255859375
1.490478515625
1.4864501953125
1.4429443359374998
1.4308593749999998
0.6034423828125
1.0376953125
1.3825195312499998
1.442138671875
1.5380126953125
1.6048828124999999
1.7410400390624998
2.3517333984374997
1.94970703125
1.6951171875
1.4791992187499998
1.41796875
1.45341796875
1.4638916015624999
1.4872558593749998
1.4630859374999998
1.442138671875
1.4703369140625
1.5073974609374998
1.4928955078125
1.4759765624999999
1.8844482421875
2.05283203125
1.6411376953124999
1.5283447265624999
1.432470703125
1.3599609375
1.248779296875
0.9982177734375
1.0272216796875
1.2141357421874999
1.409912109375
1.4719482421874999
1.474365234375
1.5404296874999999
1.5396240234374998
1.5541259765625
1.58232421875
1.5404296874999999
1.5436523437499998
1.577490234375
1.5186767578125
1.1335693359374999
0.9724365234375
1.4920898437499999
1.5186767578125
1.5815185546875
1.6927001953124998
1.7619873046874999
2.3098388671875
2.1245361328125
1.7096191406249999
1.6395263671875
1.7208984374999998
1.4735595703125
1.4542236328125
1.5404296874999999
1.4735595703125
1.4445556640625
1.5090087890625
1.4848388671875
1.4928955078125
1.5412353515625
1.5404296874999999
2.0649169921875
1.7184814453125
1.590380859375
1.50498046875
1.426025390625
1.3704345703124998
1.08603515625
1.1480712890625
1.2890625
1.3954101562499999
1.4719482421874999
1.51787109375
1.496923828125
1.5541259765625
1.5678222656249998
1.6137451171875
1.5911865234375
1.585546875
1.5807128906249999
1.5887695312499999
1.3212890625
1.02158203125
1.5041748046874999
1.5686279296874999
1.5919921874999998
1.6363037109374998
1.6781982421875
2.1946289062499997
2.0504150390625
1.716064453125
1.5541259765625
1.5162597656249999
1.4945068359375
1.5235107421874998
1.5146484375
1.50498046875
1.5057861328125
1.5186767578125
1.4953124999999998
1.5025634765625
1.52109375
1.4920898437499999
2.164013671875
1.662890625
1.5807128906249999
1.5347900390625
1.4735595703125
1.36962890625
1.1150390625
1.1271240234375
1.29228515625
1.4469726562499998
1.4542236328125
1.496923828125
1.4800048828124999
1.5323730468749999
1.5525146484374999
1.5476806640624998
1.574267578125
1.5718505859374998
1.5839355468749998
1.5573486328125
1.5968261718749999
0.952294921875
1.4389160156249998
1.5331787109375
1.5444580078124999
1.6177734375
1.6564453124999998
1.94970703125
2.077001953125
1.7684326171875
1.5863525390625
1.5541259765625
1.546875
1.5678222656249998
1.5637939453124998
1.5533203125
1.5138427734375
1.4896728515625
1.49853515625
1.4928955078125
1.4945068359375
1.4783935546875
2.157568359375
1.74345703125
1.5766845703124999
1.5315673828124998
1.4840332031249999
1.4469726562499998
1.142431640625
1.11826171875
1.2109130859375
1.4228027343749998
1.4719482421874999
1.4993408203124998
1.4953124999999998
1.533984375
1.5541259765625
1.5621826171875
1.545263671875
1.5726562499999999
1.577490234375
1.5791015625
1.545263671875
0.8685058593749999
1.327734375
1.5799072265624998
1.558154296875
1.5984375
1.6604736328124998
1.8659179687499998
2.1777099609375
1.8659179687499998
1.6089111328124999
1.5589599609375
1.561376953125
1.5106201171875
1.525927734375
1.5525146484374999
1.522705078125
1.5347900390625
1.5702392578125
1.5017578125
1.50498046875
1.4920898437499999
1.9625976562499998
1.7700439453124999
1.5041748046874999
1.5637939453124998
1.4735595703125
1.4518066406249999
1.332568359375
1.15048828125
1.229443359375
1.3414306640625
1.4687255859375
1.5025634765625
2.338037109375
1.9513183593749999
1.5194824218749998
1.4381103515625
1.46953125
1.4977294921875
1.5194824218749998
1.529150390625
1.506591796875
0.8290283203125
1.26005859375
1.506591796875
1.50498046875
1.546875
1.6306640625
1.6935058593749999
2.1245361328125
1.8224121093749999
1.606494140625
1.5114257812499998
1.4961181640624999
1.4630859374999998
1.4791992187499998
1.5057861328125
1.4880615234374999
1.4953124999999998
1.52109375
1.5009521484375
1.5057861328125
1.533984375
1.9376220703125
1.9432617187499999
1.5799072265624998
1.5428466796875
1.4864501953125
1.4284423828125
1.3704345703124998
1.164990234375
1.197216796875
1.4074951171874999
1.496923828125
1.5073974609374998
1.5057861328125
1.5807128906249999
1.5573486328125
1.56943359375
1.5791015625
1.5726562499999999
1.587158203125
1.546875
1.5686279296874999
1.155322265625
1.2584472656249999
1.5347900390625
1.5662109375
1.5976318359375
1.6669189453125
1.738623046875
2.2034912109375
1.8602783203125
1.6733642578124999
1.5645996093749999
1.533984375
1.509814453125
1.53720703125
1.5444580078124999
1.4920898437499999
1.5009521484375
1.4888671875
1.5057861328125
1.5041748046874999
1.5170654296875
1.8908935546874999
1.9529296875
1.6282470703124998
1.5492919921875
1.5170654296875
1.4703369140625
1.4268310546874998
1.1883544921875
1.2334716796875
1.3728515625
1.46953125
1.5017578125
1.5009521484375
1.5364013671874999
1.5662109375
1.5726562499999999
1.5573486328125
1.5476806640624998
1.5517089843749998
1.5396240234374998
1.55009765625
1.139208984375
1.0916748046875
1.49853515625
1.5734619140625
1.6081054687499998
1.658056640625
1.7523193359375
2.1809326171875
1.925537109375
1.6137451171875
1.558154296875
1.533984375
1.5436523437499998
1.545263671875
1.5138427734375
1.533984375
1.5275390624999998
1.529150390625
1.5275390624999998
1.522705078125
1.5162597656249999
1.5114257812499998
2.0826416015625
1.6185791015625
1.533984375
1.5355957031249998
1.4195800781249999
1.3986328124999998
1.147265625
1.200439453125
1.3414306640625
1.47275390625
1.4945068359375
1.5436523437499998
1.5138427734375
1.5565429687499999
1.5565429687499999
1.6000488281249998
1.5678222656249998
1.5702392578125
1.5766845703124999
1.5678222656249998
1.5589599609375
1.08603515625
1.4928955078125
1.5911865234375
1.5895751953125
1.6290527343749999
1.6733642578124999
2.1277587890625
1.9674316406249999
1.7039794921875
1.5791015625
1.5243164062499999
1.5235107421874998
1.5380126953125
1.5380126953125
1.5637939453124998
1.5380126953125
1.4977294921875
1.5323730468749999
1.52109375
1.5315673828124998
1.522705078125
2.1003662109375
1.7072021484375
1.5565429687499999
1.5347900390625
1.4920898437499999
1.4252197265625
1.1738525390624999
1.1947998046875
1.297119140625
1.47275390625
1.5251220703125
1.533984375
1.5444580078124999
1.5726562499999999
1.5750732421875
1.5525146484374999
1.55009765625
1.5509033203125
1.561376953125
1.5678222656249998
1.5758789062499998
0.90234375
1.482421875
1.5654052734375
1.5815185546875
1.609716796875
1.6862548828125
1.94970703125
2.0842529296875
1.6967285156249998
1.571044921875
1.506591796875
1.5041748046874999
1.5138427734375
1.5323730468749999
1.5331787109375
1.5146484375
1.5073974609374998
1.5001464843749999
1.5412353515625
1.4945068359375
1.558154296875
2.1245361328125
1.6806152343749998
1.5404296874999999
1.5654052734375
1.4630859374999998
1.3921875
1.300341796875
1.1964111328125
1.3067871093749999
1.43408203125
1.5041748046874999
1.5218994140625
1.4896728515625
1.5799072265624998
1.5807128906249999
1.5412353515625
1.5444580078124999
1.5484863281249999
1.5605712890624999
1.5927978515624999
1.5718505859374998
0.910400390625
1.3921875
1.585546875
1.5766845703124999
1.5911865234375
1.6475830078125
1.941650390625
2.0794189453125
1.7668212890625
1.5807128906249999
1.5396240234374998
1.5267333984375
1.5194824218749998
1.533984375
1.53720703125
1.5355957031249998
1.50498046875
1.5122314453124999
1.522705078125
1.5323730468749999
1.5347900390625
2.0109375
1.8312744140625
1.5444580078124999
1.5347900390625
1.4679199218749999
1.4236083984374999
1.31162109375
1.2262207031249999
1.2785888671874999
1.4437499999999999
1.5879638671874998
1.5243164062499999
1.4703369140625
1.5380126953125
1.5444580078124999
1.56943359375
1.538818359375
1.5597656249999998
1.5557373046874998
1.5678222656249998
1.533984375
0.98291015625
1.319677734375
1.5509033203125
1.561376953125
1.6081054687499998
1.667724609375
1.740234375
2.1978515625
1.8546386718749999
1.62744140625
1.5509033203125
1.4928955078125
1.5106201171875
1.5017578125
1.545263671875
1.5347900390625
1.5138427734375
1.5283447265624999
1.5170654296875
1.4928955078125
1.4945068359375
1.9754882812499999
1.8731689453125
1.6048828124999999
1.5509033203125
1.4711425781249998
1.4364990234375
1.3744628906249998
1.198828125
1.224609375
1.3801025390625
1.4953124999999998
1.5396240234374998
1.513037109375
1.5807128906249999
1.5412353515625
1.5662109375
1.5686279296874999
1.5839355468749998
1.6000488281249998
1.6000488281249998
1.542041015625
0.9788818359375
1.142431640625
1.5484863281249999
1.5750732421875
1.5960205078124998
1.6483886718749998
1.7370117187499998
2.1760986328125
1.880419921875
1.6379150390625
1.5621826171875
1.5146484375
1.53720703125
1.5364013671874999
1.5347900390625
1.5243164062499999
1.5146484375
1.5275390624999998
1.5444580078124999
1.52109375
1.574267578125
1.5895751953125
1.8780029296874998
1.5807128906249999
1.53720703125
1.5122314453124999
1.4276367187499999
1.3946044921874998
1.1641845703125
1.2286376953125
1.361572265625
1.461474609375
1.5202880859374999
1.53076171875
1.5283447265624999
1.5476806640624998
1.5758789062499998
1.5839355468749998
1.56943359375
1.5517089843749998
1.5766845703124999
1.5573486328125
1.4928955078125
1.1456542968749999
1.5122314453124999
1.558154296875
1.5968261718749999
1.6427490234375
1.6886718749999998
2.1777099609375
1.92392578125
1.67900390625
1.56943359375
1.5267333984375
1.5404296874999999
1.542041015625
1.5364013671874999
1.5533203125
1.533984375
1.546875
1.538818359375
1.5323730468749999
1.5146484375
1.529150390625
2.070556640625
1.6749755859375
1.5057861328125
1.477587890625
1.45341796875
1.3736572265625
1.14404296875
1.1996337890625
1.3124267578125
1.4655029296875
1.5138427734375
1.5275390624999998
1.5218994140625
1.558154296875
1.5396240234374998
1.5919921874999998
1.5758789062499998
1.574267578125
1.5557373046874998
1.5654052734375
1.5202880859374999
0.95390625
1.525927734375
1.6072998046875
1.5944091796875
1.641943359375
1.6612792968749999
2.0069091796875
2.0230224609375
1.69189453125
1.5879638671874998
1.5436523437499998
1.5170654296875
1.5251220703125
1.5283447265624999
1.5517089843749998
1.513037109375
1.5251220703125
1.5275390624999998
1.5082031249999999
1.5057861328125
1.5154541015624998
2.09150390625
1.66611328125
1.5525146484374999
1.506591796875
1.4791992187499998
1.4364990234375
1.2189697265625
1.2173583984375
1.2858398437499998
1.4300537109375
1.4880615234374999
1.5186767578125
1.5138427734375
1.554931640625
1.5911865234375
1.590380859375
1.5782958984375
1.5589599609375
1.561376953125
1.5589599609375
1.5436523437499998
0.9353759765624999
1.3905761718749998
1.5944091796875
1.571044921875
1.5968261718749999
1.6645019531249998
1.9787109374999998
2.0471923828125
1.74345703125
1.5807128906249999
1.545263671875
1.5082031249999999
1.5476806640624998
1.554931640625
1.561376953125
1.5186767578125
1.509814453125
1.5146484375
1.542041015625
1.5122314453124999
1.529150390625
2.0600830078125
1.7853515624999998
1.5428466796875
1.5025634765625
1.47275390625
1.3672119140624999
1.2689208984375
1.21494140625
1.300341796875
1.4219970703125
1.5001464843749999
1.5138427734375
1.4945068359375
1.58232421875
1.5766845703124999
1.5968261718749999
1.5863525390625
1.554931640625
1.554931640625
1.5476806640624998
1.5380126953125
0.926513671875
1.3929931640625
1.5533203125
1.5525146484374999
1.6137451171875
1.667724609375
1.7635986328125
2.1632080078125
1.7724609375
1.603271484375
1.5492919921875
1.5138427734375
1.546875
1.53720703125
1.561376953125
1.5533203125
1.55009765625
1.4574462890625
1.51787109375
1.5082031249999999
1.5243164062499999
2.0254394531249997
1.7982421874999999
1.5645996093749999
1.4993408203124998
1.4356933593749999
1.41796875
1.3849365234375
1.1883544921875
1.252001953125
1.3962158203125
1.4928955078125
1.5331787109375
1.493701171875
1.5517089843749998
1.55009765625
1.5782958984375
1.5686279296874999
1.5645996093749999
1.5678222656249998
1.5670166015625
1.561376953125
0.9821044921875
1.24716796875
1.5839355468749998
1.6201904296874998
1.5799072265624998
1.651611328125
1.7345947265625
2.1922119140625
1.8715576171875
1.5968261718749999
1.561376953125
1.5315673828124998
1.5492919921875
1.5396240234374998
1.5444580078124999
1.4912841796874998
1.4816162109375
1.5396240234374998
1.5404296874999999
1.5323730468749999
1.5154541015624998
1.6967285156249998
1.832080078125
1.56298828125
1.5412353515625
1.4888671875
1.4308593749999998
1.35673828125
1.1819091796874999
1.2640869140625
1.3994384765624999
1.4711425781249998
1.5364013671874999
1.5106201171875
1.5355957031249998
1.533984375
1.5533203125
1.5782958984375
1.574267578125
1.5597656249999998
1.5597656249999998
1.5194824218749998
1.0078857421875
1.2463623046874999
1.5428466796875
1.5702392578125
1.5968261718749999
1.6564453124999998
1.6943115234375
2.1712646484375
1.8683349609375
1.6701416015625
1.5444580078124999
1.493701171875
1.52109375
1.5492919921875
1.5347900390625
1.5154541015624998
1.5251220703125
1.5162597656249999
1.5122314453124999
1.522705078125
1.5146484375
1.641943359375
2.0020751953125
1.6371093749999999
1.5541259765625
1.52109375
1.4501953125
1.3736572265625
1.1923828125
1.2125244140625
1.3881591796875
1.4574462890625
1.4816162109375
1.5114257812499998
1.561376953125
1.5541259765625
1.5331787109375
1.558154296875
1.5662109375
1.5460693359375
1.5984375
1.5525146484374999
1.409912109375
0.9982177734375
1.5355957031249998
1.5621826171875
1.603271484375
1.67578125
1.6935058593749999
2.0842529296875
2.023828125
1.6645019531249998
1.5444580078124999
1.490478515625
1.545263671875
1.545263671875
1.5355957031249998
1.53720703125
1.5251220703125
1.5146484375
1.525927734375
1.5380126953125
1.53076171875
1.5235107421874998
2.0117431640625
1.6209960937499999
1.55009765625
1.493701171875
1.4445556640625
1.4203857421875
1.1802978515625
1.187548828125
1.3390136718749999
1.4598632812499999
1.51787109375
1.5154541015624998
1.509814453125
1.56943359375
1.5331787109375
1.5621826171875
1.5799072265624998
1.558154296875
1.5654052734375
1.5645996093749999
1.4437499999999999
0.98291015625
1.4598632812499999
1.554931640625
1.5750732421875
1.6282470703124998
1.6443603515624998
2.0826416015625
2.0173828124999997
1.72412109375
1.5758789062499998
1.5484863281249999
1.5162597656249999
1.5073974609374998
1.538818359375
1.5364013671874999
1.5525146484374999
1.5509033203125
1.5428466796875
1.5364013671874999
1.5355957031249998
1.506591796875
2.0794189453125
1.6081054687499998
1.5573486328125
1.51787109375
1.4598632812499999
1.4139404296875
1.1899658203124999
1.197216796875
1.3180664062499998
1.4687255859375
1.5122314453124999
1.5186767578125
1.4888671875
1.5517089843749998
1.56298828125
1.5799072265624998
1.5621826171875
1.56943359375
1.56298828125
1.574267578125
1.5621826171875
0.958740234375
1.456640625
1.5541259765625
1.5428466796875
1.585546875
1.65
1.835302734375
2.0197998046875
1.7418457031249999
1.5968261718749999
1.5073974609374998
1.53720703125
1.538818359375
1.5347900390625
1.5364013671874999
1.5533203125
1.5476806640624998
1.5565429687499999
1.5517089843749998
1.513037109375
1.48564453125
2.0947265625
1.7539306640624999
1.5509033203125
1.522705078125
1.4751708984374998
1.4228027343749998
1.2221923828124999
1.213330078125
1.2592529296875
1.4493896484375
1.5073974609374998
1.53076171875
1.513037109375
1.60166015625
1.53076171875
1.5476806640624998
1.5557373046874998
1.5686279296874999
1.558154296875
1.5573486328125
1.5662109375
0.9192626953124999
1.3019531249999998
1.5984375
1.5605712890624999
1.587158203125
1.6201904296874998
1.8256347656249998
2.1793212890625
1.8409423828125
1.5887695312499999
1.5509033203125
1.525927734375
1.5412353515625
1.5396240234374998
1.51787109375
1.50498046875
1.4920898437499999
1.4977294921875
1.506591796875
1.5347900390625
1.522705078125
1.8602783203125
1.7893798828124998
1.609716796875
1.5847412109374999
1.4703369140625
1.432470703125
1.368017578125
1.1851318359375
1.2350830078125
1.397021484375
1.4840332031249999
1.4993408203124998
1.4993408203124998
1.5235107421874998
1.5621826171875
1.56943359375
1.5654052734375
1.5645996093749999
1.574267578125
1.587158203125
1.5533203125
0.9313476562499999
1.2777832031249998
1.5082031249999999
1.546875
1.6185791015625
1.6620849609375
1.7152587890625
2.1591796875
1.8465820312499999
1.658056640625
1.5355957031249998
1.4977294921875
1.5025634765625
1.5235107421874998
1.55009765625
1.5218994140625
1.53076171875
1.5686279296874999
1.5162597656249999
1.5041748046874999
1.525927734375
1.7821289062499999
1.9456787109375
1.5791015625
1.5533203125
1.48564453125
1.4155517578124999
1.3792968749999999
