1.4703369140625
1.46953125
1.5484863281249999
1.5791015625
1.5863525390625
1.577490234375
1.5299560546875
1.529150390625
1.5782958984375
1.561376953125
0.700927734375
1.3390136718749999
1.509814453125
1.513037109375
1.6749755859375
1.7007568359374998
2.2236328125
2.34287109375
1.8788085937499999
1.7660156249999999
1.603271484375
1.529150390625
1.5662109375
1.5355957031249998
1.5404296874999999
1.4461669921875
1.5533203125
1.5331787109375
1.4977294921875
1.5017578125
1.5146484375
2.305810546875
1.8240234375
1.6910888671875
1.6089111328124999
1.5114257812499998
1.4066894531249998
1.1110107421875
1.00546875
1.074755859375
1.2769775390625
1.405078125
1.4389160156249998
1.4574462890625
1.542041015625
1.5734619140625
1.5436523437499998
1.5517089843749998
1.561376953125
1.56943359375
1.5758789062499998
1.5509033203125
0.6791748046874999
1.1698242187499999
1.4590576171874998
1.5380126953125
1.6177734375
1.6862548828125
2.244580078125
2.357373046875
2.0302734375
1.6991455078125
1.5968261718749999
1.5243164062499999
1.5484863281249999
1.5436523437499998
1.5533203125
1.5218994140625
1.5275390624999998
1.52109375
1.5041748046874999
1.4953124999999998
1.5025634765625
2.1462890624999997
2.067333984375
1.6910888671875
1.606494140625
1.4800048828124999
1.4026611328124998
1.1021484375
1.042529296875
1.0546142578125
1.2802001953125
1.4107177734374998
1.4630859374999998
1.4590576171874998
1.5782958984375
1.4880615234374999
1.5380126953125
1.5492919921875
1.5565429687499999
1.5662109375
1.6177734375
1.587158203125
0.7742431640624999
1.168212890625
1.461474609375
1.493701171875
1.61455078125
1.6959228515625
1.9408447265625
2.505615234375
2.0230224609375
1.77890625
1.6056884765625
1.5436523437499998
1.5662109375
1.525927734375
1.5428466796875
1.5146484375
1.5364013671874999
1.4961181640624999
1.5162597656249999
1.5170654296875
1.5243164062499999
2.0713623046875
2.0890869140625
1.7345947265625
1.6346923828125
1.5170654296875
1.41796875
1.348681640625
1.052197265625
1.0127197265624999
1.1851318359375
1.380908203125
1.4308593749999998
1.4316650390624999
1.4945068359375
1.49853515625
1.5347900390625
1.585546875
1.5645996093749999
1.5573486328125
1.5557373046874998
1.5565429687499999
0.8483642578124999
0.9474609374999999
1.409912109375
1.513037109375
1.574267578125
1.687060546875
1.7861572265624999
2.487890625
2.2187988281249997
1.8038818359375
1.6564453124999998
1.5702392578125
1.5565429687499999
1.5243164062499999
1.5355957031249998
1.5476806640624998
1.5476806640624998
1.538818359375
1.5315673828124998
1.4912841796874998
1.5267333984375
1.5678222656249998
2.2582763671875
1.7893798828124998
1.6242187499999998
1.538818359375
1.4066894531249998
1.3422363281249998
1.0691162109374999
1.03125
1.213330078125
1.35673828125
1.4308593749999998
1.4284423828125
1.4638916015624999
1.542041015625
1.5589599609375
1.5565429687499999
1.5645996093749999
1.561376953125
1.5766845703124999
1.558154296875
1.493701171875
0.8967041015624999
1.3792968749999999
1.480810546875
1.6000488281249998
1.658056640625
1.7184814453125
2.3315917968749997
2.1793212890625
1.85302734375
1.674169921875
1.554931640625
1.53076171875
1.542041015625
1.5637939453124998
1.5565429687499999
1.5154541015624998
1.5331787109375
1.50498046875
1.5194824218749998
1.5323730468749999
1.538818359375
2.3267578125
1.8538330078124998
1.641943359375
1.5428466796875
1.4574462890625
1.4171630859375
1.04736328125
0.9974121093749999
1.0973144531249999
1.2914794921875
1.4195800781249999
1.4711425781249998
1.4751708984374998
1.5428466796875
1.5863525390625
1.5283447265624999
1.5315673828124998
1.5589599609375
1.545263671875
1.56943359375
1.5186767578125
0.6888427734375
1.2495849609374998
1.4816162109375
1.542041015625
1.6161621093749998
1.7249267578124998
2.222021484375
2.3291748046875
1.8868652343749999
1.7080078125
1.6161621093749998
1.6048828124999999
1.606494140625
1.5734619140625
1.5815185546875
1.5380126953125
1.55009765625
1.533984375
1.5194824218749998
1.477587890625
1.5476806640624998
2.2276611328125
1.8425537109374999
1.6781982421875
1.63388671875
1.4679199218749999
1.3736572265625
1.1158447265625
1.0078857421875
1.061865234375
1.248779296875
1.3688232421875
1.456640625
1.4308593749999998
1.5315673828124998
1.5678222656249998
1.5323730468749999
1.5557373046874998
1.5702392578125
1.5702392578125
1.5799072265624998
1.5267333984375
0.6485595703125
1.222998046875
1.4783935546875
1.5364013671874999
1.6153564453125
1.7233154296875
1.896533203125
2.34287109375
2.012548828125
1.7635986328125
1.5734619140625
1.525927734375
1.5243164062499999
1.5662109375
1.5807128906249999
1.5444580078124999
1.52109375
1.5589599609375
1.571044921875
1.53720703125
1.5355957031249998
2.1462890624999997
2.0262451171875
1.7418457031249999
1.574267578125
1.4719482421874999
1.38896484375
1.2020507812499999
1.042529296875
0.9982177734375
1.2673095703125
1.400244140625
1.4791992187499998
1.4550292968749998
1.4961181640624999
1.5073974609374998
1.5090087890625
1.5927978515624999
1.6024658203125
1.5412353515625
1.574267578125
1.5686279296874999
0.8177490234375
0.9869384765625
1.43408203125
1.5162597656249999
1.6185791015625
1.674169921875
1.786962890625
2.45888671875
2.0488037109375
1.7732666015624998
1.6403320312499998
1.58232421875
1.5670166015625
1.5492919921875
1.5815185546875
1.5364013671874999
1.5114257812499998
1.4896728515625
1.4880615234374999
1.5235107421874998
1.5355957031249998
1.654833984375
2.1068115234375
1.72734375
1.6443603515624998
1.50498046875
1.377685546875
1.2914794921875
1.0014404296875
0.9498779296875
1.1666015625
1.33740234375
1.4679199218749999
1.480810546875
1.4928955078125
1.5589599609375
1.5662109375
1.6024658203125
1.593603515625
1.5839355468749998
1.603271484375
1.5686279296874999
0.8693115234375
0.9305419921875
1.3897705078125
1.490478515625
1.574267578125
1.690283203125
1.8312744140625
2.4121582031249997
2.1301757812499997
1.8232177734375
1.6532226562499999
1.60166015625
1.496923828125
1.5283447265624999
1.5347900390625
1.5670166015625
1.5122314453124999
1.5146484375
1.47275390625
1.522705078125
1.5758789062499998
1.5879638671874998
2.225244140625
1.7587646484375
1.6322753906249998
1.5895751953125
1.4977294921875
1.3502929687499998
1.026416015625
0.9724365234375
1.1923828125
1.3494873046875
1.4042724609375
1.4679199218749999
1.4928955078125
1.5251220703125
1.5492919921875
1.56298828125
1.5557373046874998
1.5476806640624998
1.5355957031249998
1.545263671875
1.4880615234374999
0.6985107421875
1.3720458984375
1.4840332031249999
1.5654052734375
1.6725585937499998
1.7208984374999998
2.2341064453125
2.21396484375
1.8973388671875
1.658056640625
1.5815185546875
1.5404296874999999
1.5637939453124998
1.577490234375
1.5807128906249999
1.52109375
1.53076171875
1.5243164062499999
1.5283447265624999
1.4953124999999998
1.5218994140625
2.2937255859375
1.8361083984375
1.7055908203124999
1.55009765625
1.46630859375
1.4091064453125
1.0006347656249999
0.966796875
1.0691162109374999
1.3140380859374998
1.4026611328124998
1.445361328125
1.46953125
1.5009521484375
1.5573486328125
1.60166015625
1.5670166015625
1.5573486328125
1.5557373046874998
1.5750732421875
1.574267578125
0.7565185546875
1.2447509765625
1.5114257812499998
1.5565429687499999
1.6363037109374998
1.690283203125
2.1342041015624997
2.34287109375
2.0214111328124997
1.7120361328125
1.5807128906249999
1.5484863281249999
1.546875
1.5283447265624999
1.5412353515625
1.52109375
1.5243164062499999
1.53076171875
1.5202880859374999
1.5017578125
1.5533203125
2.2695556640625
1.8586669921874999
1.6935058593749999
1.6209960937499999
1.4848388671875
1.4123291015625
1.1496826171874999
0.9933837890624999
1.0916748046875
1.27939453125
1.3897705078125
1.4550292968749998
1.426025390625
1.5146484375
1.5428466796875
1.5565429687499999
1.585546875
1.5597656249999998
1.53076171875
1.5444580078124999
1.545263671875
0.7734375
1.2366943359375
1.5001464843749999
1.5243164062499999
1.619384765625
1.6612792968749999
1.8248291015625
2.3638183593749997
2.0310791015625
1.7813232421874998
1.6411376953124999
1.5517089843749998
1.5476806640624998
1.529150390625
1.5218994140625
1.506591796875
1.5073974609374998
1.5557373046874998
1.5186767578125
1.5484863281249999
1.5186767578125
2.2260498046875
2.0173828124999997
1.73056640625
1.6314697265625
1.4735595703125
1.393798828125
1.15693359375
1.003857421875
1.00546875
1.2076904296875
1.397021484375
1.46630859375
1.4606689453125
1.546875
1.538818359375
1.577490234375
1.574267578125
1.5517089843749998
1.5799072265624998
1.5605712890624999
1.5605712890624999
0.7694091796875
1.0086914062499999
1.4630859374999998
1.4953124999999998
1.6000488281249998
1.6765869140624998
1.848193359375
2.46533203125
2.1301757812499997
1.7595703125
1.5960205078124998
1.561376953125
1.5436523437499998
1.5460693359375
1.5525146484374999
1.5597656249999998
1.5146484375
1.5154541015624998
1.5243164062499999
1.533984375
1.5355957031249998
1.7015624999999999
2.0455810546874997
1.7281494140625
1.62744140625
1.5404296874999999
1.4139404296875
1.3124267578125
1.0167480468749999
1.0288330078124999
1.1859374999999999
1.3502929687499998
1.4477783203124999
1.4373046875
1.477587890625
1.5251220703125
1.5887695312499999
1.5863525390625
1.5331787109375
1.58232421875
1.5509033203125
1.5533203125
1.327734375
0.897509765625
1.4091064453125
1.46953125
1.606494140625
1.6806152343749998
1.7289550781249998
2.4596923828125
2.0987548828125
1.8739746093749998
1.6612792968749999
1.58232421875
1.571044921875
1.56298828125
1.5887695312499999
1.5976318359375
1.5170654296875
1.5146484375
1.50498046875
1.5090087890625
1.525927734375
1.6282470703124998
2.2429687499999997
1.8280517578125
1.6250244140624999
1.5404296874999999
1.4364990234375
1.348681640625
1.00224609375
0.9949951171875
1.1408203125
1.3607666015625
1.4244140625
1.458251953125
1.506591796875
1.529150390625
1.545263671875
1.5565429687499999
1.538818359375
1.5299560546875
1.5766845703124999
1.5678222656249998
1.4203857421875
0.765380859375
1.3913818359374999
1.4832275390624998
1.5412353515625
1.6298583984375
1.7200927734375
2.2832519531249997
2.2993652343749997
1.8626953124999999
1.65966796875
1.6040771484374998
1.554931640625
1.5380126953125
1.5283447265624999
1.4800048828124999
1.5355957031249998
1.5315673828124998
1.5243164062499999
1.509814453125
1.6177734375
1.4896728515625
2.270361328125
1.82080078125
1.651611328125
1.5621826171875
1.4155517578124999
1.3881591796875
1.07958984375
0.9998291015624999
1.132763671875
1.264892578125
1.4155517578124999
1.4526123046875
1.4759765624999999
1.5815185546875
1.56298828125
1.5605712890624999
1.5597656249999998
1.5702392578125
1.5436523437499998
1.538818359375
1.585546875
0.6791748046874999
1.248779296875
1.493701171875
1.558154296875
1.6314697265625
1.72412109375
2.24619140625
2.321923828125
1.9706542968749998
1.72734375
1.5984375
1.546875
1.56298828125
1.5758789062499998
1.5476806640624998
1.4977294921875
1.50498046875
1.5186767578125
1.5525146484374999
1.522705078125
1.4953124999999998
2.296142578125
1.9787109374999998
1.6951171875
1.5911865234375
1.4574462890625
1.3946044921874998
1.095703125
1.0256103515625
1.06669921875
1.2834228515625
1.3905761718749998
1.45341796875
1.4912841796874998
1.533984375
1.56298828125
1.5911865234375
1.56943359375
1.5597656249999998
1.554931640625
1.5726562499999999
1.5702392578125
0.7259033203124999
1.2528076171875
1.4912841796874998
1.490478515625
1.6081054687499998
1.667724609375
1.8763916015625
2.421826171875
2.0415527343749997
1.767626953125
1.6081054687499998
1.5807128906249999
1.5509033203125
1.5509033203125
1.5041748046874999
1.4945068359375
1.5299560546875
1.5436523437499998
1.538818359375
1.529150390625
1.5106201171875
2.2244384765625
1.989990234375
1.7096191406249999
1.6314697265625
1.51787109375
1.43408203125
1.3075927734375
1.010302734375
1.0288330078124999
1.2189697265625
1.2979248046874998
1.4526123046875
1.47275390625
1.529150390625
1.5275390624999998
1.577490234375
1.56943359375
1.5517089843749998
1.56943359375
1.5807128906249999
1.587158203125
0.7758544921874999
0.9998291015624999
1.3857421875
1.4864501953125
1.6024658203125
1.690283203125
1.82724609375
2.4677490234375
2.1462890624999997
1.843359375
1.6129394531249999
1.546875
1.55009765625
1.5194824218749998
1.5492919921875
1.5525146484374999
1.5355957031249998
1.533984375
1.52109375
1.50498046875
1.5114257812499998
1.7442626953125
2.18818359375
1.7047851562499998
1.6242187499999998
1.5565429687499999
1.4139404296875
1.2673095703125
0.9998291015624999
1.0062744140625
1.206884765625
1.3559326171875
1.448583984375
1.4880615234374999
1.5033691406249998
1.5283447265624999
1.493701171875
1.546875
1.5782958984375
1.574267578125
1.5758789062499998
1.6000488281249998
1.3043701171875
0.9788818359375
1.3865478515624998
1.48564453125
1.5557373046874998
1.6765869140624998
1.751513671875
2.367041015625
2.1454833984375
1.828857421875
1.6532226562499999
1.5597656249999998
1.5919921874999998
1.5654052734375
1.5831298828125
1.5436523437499998
1.522705078125
1.5380126953125
1.509814453125
1.5106201171875
1.5170654296875
1.6540283203125
2.2308837890624997
1.8264404296874999
1.654833984375
1.53720703125
1.4445556640625
1.3881591796875
0.9853271484374999
0.9812988281249999
1.1287353515625
1.3237060546875
1.4268310546874998
1.4518066406249999
1.4590576171874998
1.5404296874999999
1.5299560546875
1.5799072265624998
1.5726562499999999
1.5597656249999998
1.546875
1.5750732421875
1.380908203125
0.7597412109374999
1.2987304687499999
1.4679199218749999
1.5662109375
1.6282470703124998
1.7047851562499998
2.2905029296875
2.2760009765625
1.9569580078125
1.667724609375
1.606494140625
1.5879638671874998
1.574267578125
1.558154296875
1.538818359375
1.5001464843749999
1.5138427734375
1.5186767578125
1.5154541015624998
1.5218994140625
1.4896728515625
2.309033203125
1.8232177734375
1.6765869140624998
1.6024658203125
1.46953125
1.3728515625
1.0288330078124999
1.00224609375
1.1271240234375
1.3027587890624999
1.4058837890625
1.4501953125
1.4356933593749999
1.5323730468749999
1.5017578125
1.5444580078124999
1.5573486328125
1.5807128906249999
1.593603515625
1.545263671875
1.5597656249999998
0.7549072265625
1.2536132812499998
1.4574462890625
1.5347900390625
1.6290527343749999
1.703173828125
1.9658203125
2.280029296875
1.996435546875
1.7571533203124998
1.5726562499999999
1.545263671875
1.571044921875
1.5484863281249999
1.5331787109375
1.513037109375
1.496923828125
1.5025634765625
1.5073974609374998
1.5186767578125
1.5331787109375
2.338037109375
1.972265625
1.690283203125
1.611328125
1.5331787109375
1.4469726562499998
1.1287353515625
1.0272216796875
1.0368896484374999
1.1964111328125
1.3833251953124999
1.4413330078125
1.5025634765625
1.490478515625
1.513037109375
1.5517089843749998
1.561376953125
1.561376953125
1.4590576171874998
1.5734619140625
1.5541259765625
0.6872314453124999
1.1053710937499999
1.456640625
1.5138427734375
1.574267578125
1.7281494140625
2.0020751953125
2.4516357421875
2.0987548828125
1.732177734375
1.6024658203125
1.5597656249999998
1.561376953125
1.522705078125
1.5412353515625
1.5460693359375
1.5243164062499999
1.5355957031249998
1.5235107421874998
1.5106201171875
1.5146484375
1.869140625
1.989990234375
1.7200927734375
1.6330810546874999
1.456640625
1.3954101562499999
1.2947021484374999
1.007080078125
1.0489746093749999
1.239111328125
1.3704345703124998
1.432470703125
1.4590576171874998
1.5114257812499998
1.5275390624999998
1.5525146484374999
1.5517089843749998
1.5517089843749998
1.5927978515624999
1.561376953125
1.58232421875
0.7065673828125
1.061865234375
1.4058837890625
1.5033691406249998
1.622607421875
1.6967285156249998
1.7700439453124999
2.470166015625
2.14951171875
1.8304687499999999
1.6427490234375
1.5839355468749998
1.529150390625
1.5186767578125
1.538818359375
1.5082031249999999
1.5782958984375
1.482421875
1.506591796875
1.5243164062499999
1.5001464843749999
1.79501953125
2.231689453125
1.8312744140625
1.6749755859375
1.5637939453124998
1.4397216796874999
1.316455078125
0.9949951171875
0.9547119140625
1.1456542968749999
1.3382080078124998
1.4300537109375
1.4679199218749999
1.5162597656249999
1.5033691406249998
1.5138427734375
1.5412353515625
1.5766845703124999
1.561376953125
1.585546875
1.5758789062499998
1.198828125
0.84111328125
1.4276367187499999
1.4840332031249999
1.5847412109374999
1.6749755859375
1.7370117187499998
2.384765625
2.2212158203125
1.8119384765625
1.6346923828125
1.5782958984375
1.561376953125
1.561376953125
1.5404296874999999
1.5106201171875
1.5114257812499998
1.51787109375
1.5218994140625
1.5428466796875
1.5275390624999998
1.506591796875
2.1777099609375
1.7845458984375
1.65
1.5541259765625
1.4364990234375
1.36962890625
1.0578369140625
1.010302734375
1.1690185546875
1.3237060546875
1.4510009765624998
1.4783935546875
1.4928955078125
1.5283447265624999
1.5218994140625
1.5791015625
1.5839355468749998
1.5879638671874998
1.5686279296874999
1.5670166015625
1.2802001953125
0.7613525390625
1.3156494140625
1.4445556640625
1.5380126953125
1.6910888671875
1.6991455078125
2.33642578125
2.2373291015625
1.94970703125
1.6556396484375
1.6177734375
1.5686279296874999
1.6081054687499998
1.5637939453124998
1.5597656249999998
1.5170654296875
1.5396240234374998
1.522705078125
1.5073974609374998
1.5106201171875
1.5170654296875
2.3388427734375
1.9190917968749999
1.654833984375
1.635498046875
1.5025634765625
1.3849365234375
1.019970703125
0.994189453125
1.084423828125
1.3059814453124998
1.432470703125
1.456640625
1.4759765624999999
1.50498046875
1.542041015625
1.5573486328125
1.554931640625
1.546875
1.5750732421875
1.5565429687499999
1.5718505859374998
0.671923828125
1.3067871093749999
1.490478515625
1.4920898437499999
1.6169677734374999
1.714453125
1.98193359375
2.42666015625
1.964208984375
1.6967285156249998
1.619384765625
1.55009765625
1.5380126953125
1.542041015625
1.5017578125
1.5355957031249998
1.5396240234374998
1.558154296875
1.5154541015624998
1.5025634765625
1.4993408203124998
2.2905029296875
1.9392333984374999
1.670947265625
1.635498046875
1.51787109375
1.4477783203124999
1.287451171875
0.9490722656249999
1.0675048828125
1.2262207031249999
1.4123291015625
1.4364990234375
1.4622802734375
1.50498046875
1.445361328125
1.5525146484374999
1.56298828125
1.5597656249999998
1.56298828125
1.5750732421875
1.5573486328125
0.6993164062499999
1.132763671875
1.442138671875
1.52109375
1.61455078125
1.6717529296875
1.94970703125
2.4427734375
2.1019775390624997
1.7660156249999999
1.641943359375
1.546875
1.513037109375
1.5186767578125
1.5428466796875
1.56298828125
1.55009765625
1.558154296875
1.4961181640624999
1.477587890625
1.4832275390624998
1.9513183593749999
2.1615966796875
1.6749755859375
1.6177734375
1.5347900390625
1.41796875
1.2955078125
1.0288330078124999
1.0650878906249999
1.229443359375
1.3543212890624998
1.4284423828125
1.461474609375
1.5017578125
1.56943359375
1.5645996093749999
1.5412353515625
1.529150390625
1.5404296874999999
1.619384765625
1.5887695312499999
1.0634765625
1.0828125
1.429248046875
1.5025634765625
1.6056884765625
1.7668212890625
1.7329833984374998
2.4041015624999997
2.14306640625
1.8095214843749998
1.6669189453125
1.506591796875
1.5726562499999999
1.554931640625
1.5267333984375
1.5114257812499998
1.5146484375
1.5170654296875
1.464697265625
1.5315673828124998
1.53720703125
1.8780029296874998
2.1889892578125
1.79501953125
1.606494140625
1.5444580078124999
1.4276367187499999
1.3575439453125
1.0481689453125
1.003857421875
1.155322265625
1.3631835937499999
1.405078125
1.456640625
1.4888671875
1.5114257812499998
1.5355957031249998
1.577490234375
1.5492919921875
1.554931640625
1.5847412109374999
1.5718505859374998
1.155322265625
0.8564208984374999
1.3390136718749999
1.4977294921875
1.5968261718749999
1.6701416015625
1.7539306640624999
2.3678466796874997
2.2349121093749997
1.82080078125
1.65966796875
1.58232421875
1.5492919921875
1.59521484375
1.5726562499999999
1.561376953125
1.533984375
1.5033691406249998
1.5162597656249999
1.5267333984375
1.525927734375
1.5073974609374998
2.3009765625
1.791796875
1.6806152343749998
1.6000488281249998
1.405078125
1.3430419921874999
1.0078857421875
0.9958007812499999
1.2157470703125
1.30517578125
1.3792968749999999
1.4606689453125
1.4469726562499998
1.5355957031249998
1.58232421875
1.5927978515624999
1.5766845703124999
1.5758789062499998
1.5799072265624998
1.558154296875
1.5057861328125
0.813720703125
1.329345703125
1.4783935546875
1.5275390624999998
1.67578125
1.764404296875
2.135009765625
2.3050048828125
1.9593749999999999
1.714453125
1.554931640625
1.5315673828124998
1.56298828125
1.5122314453124999
1.5025634765625
1.4993408203124998
1.5114257812499998
1.5009521484375
1.5114257812499998
1.5251220703125
1.52109375
2.3904052734375
1.9650146484375
1.7039794921875
1.5758789062499998
1.4550292968749998
1.3801025390625
0.9788818359375
0.9418212890625
1.0489746093749999
1.3317626953125
1.3881591796875
1.477587890625
1.4719482421874999
1.529150390625
1.5436523437499998
1.55009765625
1.585546875
1.56298828125
1.5839355468749998
1.5992431640625
1.5541259765625
0.6388916015624999
1.119873046875
1.4622802734375
1.513037109375
1.6129394531249999
1.6886718749999998
2.0109375
2.437939453125
1.96904296875
1.738623046875
1.6282470703124998
1.5637939453124998
1.574267578125
1.5557373046874998
1.5799072265624998
1.542041015625
1.513037109375
1.4961181640624999
1.5702392578125
1.5194824218749998
1.53076171875
2.1197021484375
1.93681640625
1.71123046875
1.6451660156249999
1.490478515625
1.405078125
1.1819091796874999
0.91845703125
1.0143310546875
1.2334716796875
1.4115234374999999
1.4920898437499999
1.4896728515625
1.545263671875
1.5355957031249998
1.5509033203125
1.577490234375
1.542041015625
1.5380126953125
1.529150390625
1.56943359375
0.639697265625
1.1045654296875
1.4445556640625
1.5235107421874998
1.62744140625
1.7128417968749998
2.0536376953124997
2.528173828125
2.1221191406249997
1.8224121093749999
1.611328125
1.525927734375
1.533984375
1.5589599609375
1.585546875
1.5017578125
1.4655029296875
1.50498046875
1.51787109375
1.5460693359375
1.5267333984375
2.077001953125
2.1632080078125
1.714453125
1.6540283203125
1.5194824218749998
1.377685546875
1.2044677734375
0.9168457031249999
0.9385986328125
1.2350830078125
1.37607421875
1.4630859374999998
1.4864501953125
1.5243164062499999
1.5758789062499998
1.6105224609375
1.5509033203125
1.574267578125
1.5670166015625
1.5919921874999998
1.5782958984375
0.90234375
1.0812011718749999
1.3962158203125
1.482421875
1.606494140625
1.6975341796874999
1.8199951171875
2.5483154296875
2.2051025390625
1.85947265625
1.6894775390624999
1.5404296874999999
1.5509033203125
1.5484863281249999
1.590380859375
1.53076171875
1.5315673828124998
1.52109375
1.513037109375
1.5082031249999999
1.4816162109375
1.9513183593749999
2.1648193359375
1.7700439453124999
1.6411376953124999
1.4816162109375
1.3349853515624999
1.2463623046874999
0.8789794921874999
0.829833984375
1.0787841796875
1.248779296875
1.4389160156249998
1.5138427734375
1.6234130859375
1.66611328125
1.65
1.6636962890625
1.6081054687499998
1.5927978515624999
1.593603515625
1.5734619140625
0.961962890625
0.7154296874999999
1.2721435546875
1.445361328125
1.5565429687499999
1.735400390625
1.85625
2.6192138671875
2.4049072265625
2.0302734375
1.7039794921875
1.590380859375
1.5122314453124999
1.5194824218749998
1.5364013671874999
1.5202880859374999
1.5186767578125
1.5122314453124999
1.4953124999999998
1.529150390625
1.4993408203124998
1.5315673828124998
2.5313964843749996
1.931982421875
1.770849609375
1.4896728515625
1.3591552734374999
1.287451171875
0.8612548828125
0.784716796875
0.9434326171874999
1.174658203125
1.2503906249999999
1.4558349609374999
1.5033691406249998
1.53720703125
1.6403320312499998
1.611328125
1.6306640625
1.6201904296874998
1.6290527343749999
1.6137451171875
1.5799072265624998
0.6171386718749999
1.171435546875
1.3929931640625
1.538818359375
1.7281494140625
1.8441650390625
2.408935546875
2.5201171875
2.1301757812499997
1.8240234375
1.5807128906249999
1.522705078125
1.5597656249999998
1.5154541015624998
1.5678222656249998
1.477587890625
1.5251220703125
1.5380126953125
1.5025634765625
1.4783935546875
1.5114257812499998
2.5652343749999997
2.0955322265625
1.8336914062499998
1.5887695312499999
1.44052734375
1.3140380859374998
0.7371826171875
0.6429199218749999
0.7959960937499999
1.0675048828125
1.33740234375
1.4373046875
1.4598632812499999
1.577490234375
1.6991455078125
1.6282470703124998
1.6242187499999998
1.5686279296874999
1.5976318359375
1.5984375
1.5589599609375
0.2811767578125
1.00546875
1.340625
1.46630859375
1.6620849609375
1.8071044921875
2.4564697265624997
2.8858886718749996
2.3871826171875
1.835302734375
1.5976318359375
1.4912841796874998
1.5001464843749999
1.4276367187499999
1.52109375
1.5275390624999998
1.55009765625
1.5476806640624998
1.5670166015625
1.5154541015624998
1.4655029296875
2.505615234375
2.199462890625
1.8747802734374999
1.7233154296875
1.4437499999999999
1.2882568359375
0.9031494140624999
0.581689453125
0.60263671875
0.9369873046874999
1.2665039062499999
1.4308593749999998
1.4219970703125
1.5444580078124999
1.5444580078124999
1.538818359375
1.6201904296874998
1.609716796875
1.6781982421875
1.6443603515624998
1.6008544921874999
0.1264892578125
0.7065673828125
1.2221923828124999
1.3857421875
1.690283203125
1.8377197265624998
1.9988525390624998
3.0365478515624997
2.6232421875
2.0826416015625
1.6717529296875
1.4993408203124998
1.4888671875
1.5315673828124998
1.5412353515625
1.5106201171875
1.5218994140625
1.522705078125
1.5041748046874999
1.477587890625
1.4558349609374999
2.5370361328124997
2.534619140625
2.044775390625
1.716064453125
1.4091064453125
1.184326171875
0.8121093749999999
0.41733398437499997
0.38107910156249997
0.7226806640625
1.2052734375
1.5404296874999999
1.5476806640624998
1.62744140625
1.6306640625
1.67900390625
1.6725585937499998
1.716064453125
1.6298583984375
1.6951171875
1.67578125
0.2183349609375
0.19497070312499998
1.0675048828125
1.327734375
1.6475830078125
1.9029785156249999
2.1970458984375
3.034130859375
2.889111328125
2.2107421874999997
1.7829345703125
1.5541259765625
1.5106201171875
1.4832275390624998
1.529150390625
1.3929931640625
1.456640625
1.448583984375
1.4816162109375
1.4630859374999998
1.4872558593749998
1.7023681640625
3.037353515625
2.5612060546874997
2.2179931640625
1.670947265625
1.18271484375
0.8467529296874999
0.0314208984375
0.0281982421875
0.1353515625
0.5671875
0.9563232421875
1.15048828125
1.4268310546874998
1.5863525390625
1.7861572265624999
1.7047851562499998
1.722509765625
1.703173828125
1.719287109375
1.6121337890624998
1.07958984375
0.0314208984375
0.0346435546875
0.0314208984375
0.0322265625
0.033032226562499996
0.0322265625
1.7571533203124998
2.7086425781249996
3.0365478515624997
3.0397705078125
3.0389648437499996
3.0365478515624997
3.037353515625
3.0413818359375
3.0429931640624996
3.0413818359375
3.0389648437499996
3.034130859375
3.037353515625
3.0236572265625
2.7392578125
3.0381591796875
3.034130859375
3.037353515625
3.037353515625
3.0405761718749997
3.0365478515624997
2.52978515625
1.445361328125
0.668701171875
0.033032226562499996
0.0281982421875
0.0346435546875
0.0314208984375
0.0346435546875
0.02900390625
0.03544921875
0.0322265625
0.0322265625
0.0314208984375
0.0322265625
0.0322265625
0.03544921875
0.03544921875
0.0322265625
0.0322265625
0.033837890625
0.033032226562499996
0.0314208984375
1.6540283203125
2.421826171875
2.96484375
3.0365478515624997
3.0389648437499996
3.037353515625
3.0389648437499996
3.0389648437499996
3.0405761718749997
3.0389648437499996
3.0357421875
3.0421875
3.0365478515624997
2.985791015625
3.037353515625
3.0397705078125
3.0381591796875
3.037353515625
3.0365478515624997
3.0389648437499996
2.4419677734375
1.7474853515625
0.5470458984375
0.045117187499999996
0.0362548828125
0.0314208984375
0.02900390625
0.0314208984375
0.03544921875
0.0314208984375
0.0322265625
0.0322265625
0.030615234374999998
0.0362548828125
0.0322265625
0.02900390625
0.0322265625
0.033032226562499996
0.0314208984375
0.022558593749999998
0.0322265625
0.0314208984375
1.2383056640624999
2.28486328125
2.7585937499999997
3.0381591796875
3.0389648437499996
3.0397705078125
3.0389648437499996
3.034130859375
3.0357421875
3.0389648437499996
3.0381591796875
3.0405761718749997
3.0389648437499996
3.0236572265625
3.037353515625
3.037353515625
3.0365478515624997
3.043798828125
3.037353515625
3.0421875
3.037353515625
2.2308837890624997
0.9410156249999999
0.314208984375
0.0314208984375
0.02900390625
0.02900390625
0.0281982421875
0.026586914062499998
0.0322265625
0.030615234374999998
0.0322265625
0.03544921875
0.0322265625
0.0314208984375
0.0314208984375
0.0322265625
0.0281982421875
0.0314208984375
0.033032226562499996
0.0314208984375
0.0322265625
0.03544921875
1.85947265625
2.3678466796874997
2.7392578125
3.037353515625
3.0405761718749997
3.0381591796875
3.0349365234374996
3.037353515625
3.037353515625
3.037353515625
3.034130859375
3.0389648437499996
3.0123779296874997
3.0381591796875
3.037353515625
3.034130859375
3.0413818359375
3.0389648437499996
3.0421875
3.0365478515624997
2.3082275390625
1.3309570312499999
0.605859375
0.030615234374999998
0.0322265625
0.033032226562499996
0.0314208984375
0.030615234374999998
0.0314208984375
0.030615234374999998
0.0346435546875
0.0314208984375
0.0322265625
0.0314208984375
0.033837890625
0.0314208984375
0.033032226562499996
0.03544921875
0.0322265625
0.0314208984375
0.0322265625
0.0322265625
1.4091064453125
2.1052001953125
2.642578125
2.9608154296875
3.0381591796875
3.037353515625
3.037353515625
3.0413818359375
3.0405761718749997
3.0357421875
3.037353515625
3.0421875
3.037353515625
3.018017578125
3.0365478515624997
3.0413818359375
3.0365478515624997
3.0381591796875
3.037353515625
3.037353515625
2.4041015624999997
1.6612792968749999
0.636474609375
0.16677246093749998
0.0322265625
0.033032226562499996
0.0322265625
0.0322265625
0.0314208984375
0.0322265625
0.0322265625
0.033032226562499996
0.18288574218749998
0.0322265625
0.0314208984375
0.02900390625
0.0322265625
0.02900390625
0.033837890625
0.02900390625
0.0314208984375
0.0322265625
0.9724365234375
2.0117431640625
2.4306884765625
2.8302978515625
3.0357421875
3.0357421875
3.0413818359375
3.0365478515624997
3.0381591796875
3.034130859375
3.0389648437499996
3.0389648437499996
3.0389648437499996
3.0107666015624996
3.0397705078125
3.034130859375
3.0397705078125
3.037353515625
3.0365478515624997
3.034130859375
3.0405761718749997
1.8087158203125
0.9579345703125
0.394775390625
0.0346435546875
0.0281982421875
0.030615234374999998
0.03544921875
0.0322265625
0.027392578124999997
0.033032226562499996
0.0314208984375
0.0314208984375
0.0322265625
0.0322265625
0.02900390625
0.033837890625
0.030615234374999998
0.02900390625
0.0322265625
0.02900390625
0.0298095703125
0.837890625
1.641943359375
2.19140625
2.578125
2.956787109375
3.0405761718749997
3.0413818359375
3.0389648437499996
3.0381591796875
3.0381591796875
3.0389648437499996
3.037353515625
3.0381591796875
3.0365478515624997
3.0405761718749997
3.0389648437499996
3.0381591796875
3.037353515625
3.0389648437499996
3.0389648437499996
3.0333251953125
2.4758056640625
1.2334716796875
0.5937744140625
0.0322265625
0.0322265625
0.02900390625
0.033837890625
0.033032226562499996
0.0346435546875
0.033032226562499996
0.0314208984375
0.0346435546875
0.0322265625
0.0314208984375
0.03544921875
0.0322265625
0.0322265625
0.0322265625
0.0281982421875
0.0322265625
0.0322265625
0.0346435546875
1.3309570312499999
2.0471923828125
2.68125
3.0010986328125
3.0381591796875
3.0389648437499996
3.037353515625
3.0349365234374996
3.037353515625
3.037353515625
3.0381591796875
3.0389648437499996
3.034130859375
3.0357421875
3.0365478515624997
3.0389648437499996
3.0365478515624997
3.034130859375
3.0349365234374996
3.0365478515624997
2.6063232421875
1.658056640625
0.6751464843749999
0.17644042968749998
0.02900390625
0.0322265625
0.033032226562499996
0.033032226562499996
0.0314208984375
0.0322265625
0.0322265625
0.033032226562499996
0.0281982421875
0.0322265625
0.0346435546875
0.0362548828125
0.03544921875
0.0322265625
0.0314208984375
0.0314208984375
0.0314208984375
0.0322265625
1.0078857421875
2.14951171875
2.6369384765625
3.0397705078125
3.0349365234374996
3.0421875
3.0389648437499996
3.0365478515624997
3.0381591796875
3.0365478515624997
3.0365478515624997
3.0381591796875
3.0421875
3.0389648437499996
3.0389648437499996
3.0389648437499996
3.0413818359375
3.0389648437499996
3.0389648437499996
3.0413818359375
3.0357421875
1.5686279296874999
0.7919677734374999
0.27392578125
0.02900390625
0.0322265625
0.0322265625
0.0322265625
0.0281982421875
0.0322265625
0.0314208984375
0.03544921875
0.0314208984375
0.0322265625
0.0322265625
0.0314208984375
0.0322265625
0.0322265625
0.0322265625
0.0322265625
0.0322265625
0.0322265625
0.9724365234375
1.8626953124999999
2.4081298828124997
2.7706787109374997
3.034130859375
3.0349365234374996
3.0397705078125
3.0421875
3.0389648437499996
3.0381591796875
3.037353515625
3.0381591796875
3.0389648437499996
3.0365478515624997
3.0405761718749997
3.037353515625
3.034130859375
3.0397705078125
3.0381591796875
3.0405761718749997
3.0413818359375
2.077001953125
1.187548828125
0.47856445312499996
0.033837890625
0.0322265625
0.033032226562499996
0.0322265625
0.0322265625
0.0322265625
0.0314208984375
0.0322265625
0.0314208984375
0.02900390625
0.0281982421875
0.033032226562499996
0.0322265625
0.033032226562499996
0.033837890625
0.033032226562499996
0.0314208984375
0.0322265625
0.0314208984375
1.3422363281249998
1.9529296875
2.5418701171875
2.808544921875
2.995458984375
3.0357421875
3.037353515625
3.0405761718749997
3.0357421875
3.037353515625
3.037353515625
3.0365478515624997
3.0228515624999996
3.037353515625
3.0381591796875
3.0325195312499997
3.0389648437499996
3.0365478515624997
3.0381591796875
3.034130859375
2.4709716796875
1.480810546875
0.5849121093749999
0.1168212890625
0.0322265625
0.0314208984375
0.0322265625
0.0314208984375
0.0322265625
0.0314208984375
0.0322265625
0.0314208984375
0.03544921875
0.0298095703125
0.033032226562499996
0.0322265625
0.030615234374999998
0.0322265625
0.0346435546875
0.0322265625
0.033032226562499996
0.0322265625
1.010302734375
1.7555419921875
2.4298828125
2.8206298828125
3.0357421875
3.0381591796875
3.0413818359375
3.0357421875
3.0397705078125
3.0381591796875
3.037353515625
3.0357421875
3.0365478515624997
3.0405761718749997
3.037353515625
3.0381591796875
3.037353515625
3.0405761718749997
3.034130859375
3.0357421875
2.576513671875
1.8425537109374999
0.781494140625
0.3069580078125
0.030615234374999998
0.0322265625
0.030615234374999998
0.0281982421875
0.0322265625
0.0346435546875
0.0298095703125
0.0322265625
0.0281982421875
0.030615234374999998
0.0322265625
0.0314208984375
0.0298095703125
0.0322265625
0.0281982421875
0.030615234374999998
0.0322265625
0.0322265625
0.813720703125
1.8361083984375
2.3098388671875
2.760205078125
3.0389648437499996
3.0397705078125
3.0389648437499996
3.037353515625
3.0381591796875
3.0365478515624997
3.0381591796875
3.0413818359375
3.037353515625
3.0357421875
3.0365478515624997
3.0381591796875
3.037353515625
3.0349365234374996
3.0389648437499996
3.034130859375
3.037353515625
1.9021728515624998
0.9732421874999999
0.3762451171875
0.0281982421875
0.0314208984375
0.033032226562499996
0.033837890625
0.0322265625
0.0322265625
0.0322265625
0.033837890625
0.0322265625
0.0281982421875
0.033032226562499996
0.0298095703125
0.033032226562499996
0.0322265625
0.033032226562499996
0.02900390625
0.03544921875
0.033032226562499996
0.1651611328125
1.4622802734375
2.08828125
2.7223388671874997
2.9624267578124996
3.0357421875
3.0365478515624997
3.034130859375
3.037353515625
3.0389648437499996
3.0381591796875
3.0381591796875
3.0365478515624997
3.034130859375
3.0389648437499996
3.0365478515624997
3.0333251953125
3.037353515625
3.0389648437499996
3.0397705078125
3.0405761718749997
2.318701171875
1.413134765625
0.53818359375
0.120849609375
0.0314208984375
0.030615234374999998
0.0346435546875
0.030615234374999998
0.0322265625
0.0322265625
0.0322265625
0.0298095703125
0.0281982421875
0.0322265625
0.03544921875
0.0322265625
0.0346435546875
0.0322265625
0.0314208984375
0.0281982421875
0.0322265625
0.0322265625
1.135986328125
1.9996582031249999
2.44921875
2.7730957031249996
2.9608154296875
3.034130859375
3.0421875
3.0421875
3.037353515625
3.0381591796875
3.037353515625
3.0357421875
3.0365478515624997
3.034130859375
3.0349365234374996
3.0357421875
3.0381591796875
3.0462158203125
3.0333251953125
3.0357421875
2.5612060546874997
1.3599609375
0.6888427734375
0.030615234374999998
0.030615234374999998
0.03544921875
0.0314208984375
0.033032226562499996
0.0314208984375
0.0322265625
0.0314208984375
0.0314208984375
0.030615234374999998
0.0346435546875
0.0281982421875
0.0362548828125
0.03544921875
0.033032226562499996
0.03544921875
0.0322265625
0.033032226562499996
0.0322265625
1.264892578125
2.0069091796875
2.5015869140625
2.9068359375
3.0421875
3.0357421875
3.037353515625
3.0397705078125
3.0381591796875
3.037353515625
3.0389648437499996
3.0357421875
3.037353515625
3.0405761718749997
3.0389648437499996
3.0381591796875
3.0405761718749997
3.0357421875
3.0381591796875
3.0349365234374996
3.0357421875
1.7539306640624999
0.9232910156249999
0.41008300781249996
0.0314208984375
0.0322265625
0.0322265625
0.030615234374999998
0.0322265625
0.033032226562499996
0.02578125
0.0314208984375
0.0322265625
0.030615234374999998
0.0322265625
0.033032226562499996
0.0322265625
0.0346435546875
0.0322265625
0.0322265625
0.0322265625
0.0281982421875
0.8628662109374999
1.7362060546875
2.27841796875
2.7263671874999997
2.9221435546874996
3.0413818359375
3.0413818359375
3.0357421875
3.0381591796875
3.0381591796875
3.0381591796875
3.0405761718749997
3.0389648437499996
3.037353515625
3.0405761718749997
3.034130859375
3.0365478515624997
3.0357421875
3.0381591796875
3.0365478515624997
3.0389648437499996
2.183349609375
1.1754638671875
0.31904296875
0.033032226562499996
0.033837890625
0.0362548828125
0.030615234374999998
0.0362548828125
0.0314208984375
0.033837890625
0.0322265625
0.0281982421875
0.0281982421875
0.030615234374999998
0.030615234374999998
0.0322265625
0.0322265625
0.02900390625
0.0281982421875
0.0314208984375
0.03544921875
0.030615234374999998
1.46630859375
2.296142578125
2.7263671874999997
2.9583984374999996
3.0365478515624997
3.0381591796875
3.0357421875
3.0349365234374996
3.037353515625
3.0413818359375
3.0381591796875
3.037353515625
3.0389648437499996
3.0389648437499996
3.0381591796875
3.0381591796875
3.0365478515624997
3.0357421875
3.037353515625
3.0333251953125
2.634521484375
1.213330078125
0.575244140625
0.0346435546875
0.030615234374999998
0.0322265625
0.0314208984375
0.0298095703125
0.026586914062499998
0.0314208984375
0.0314208984375
0.0322265625
0.0314208984375
0.0346435546875
0.030615234374999998
0.0322265625
0.02900390625
0.0322265625
0.0362548828125
0.0314208984375
0.0322265625
0.0322265625
1.4356933593749999
2.126953125
2.60068359375
2.9600097656249997
3.037353515625
3.037353515625
3.037353515625
3.0381591796875
3.037353515625
3.0381591796875
3.037353515625
3.037353515625
3.0381591796875
3.0397705078125
3.0381591796875
3.0381591796875
3.0357421875
3.0381591796875
3.0413818359375
3.0349365234374996
2.5692626953124997
1.5090087890625
0.7710205078125
0.11843261718749999
0.0314208984375
0.0298095703125
0.0322265625
0.030615234374999998
0.033032226562499996
0.0322265625
0.030615234374999998
0.0322265625
0.03544921875
0.033032226562499996
0.033837890625
0.0314208984375
0.0314208984375
0.033032226562499996
0.0322265625
0.0314208984375
0.0322265625
0.0362548828125
0.913623046875
1.8635009765625
2.5112548828124996
2.8133789062499996
3.0325195312499997
3.034130859375
3.037353515625
3.037353515625
3.0357421875
3.0357421875
3.0389648437499996
3.0389648437499996
3.037353515625
3.0010986328125
3.037353515625
3.037353515625
3.037353515625
3.0421875
3.0381591796875
3.0381591796875
3.02607421875
1.9295654296875
0.7532958984375
0.2618408203125
0.033032226562499996
0.0322265625
0.033837890625
0.0314208984375
0.030615234374999998
0.030615234374999998
0.033837890625
0.033032226562499996
0.03544921875
0.0314208984375
0.0322265625
0.0298095703125
0.0346435546875
0.0322265625
0.0322265625
0.0281982421875
0.0322265625
0.0281982421875
0.21672363281249998
1.7724609375
2.2679443359375
2.6280761718749996
2.9221435546874996
3.0397705078125
3.037353515625
3.0381591796875
3.0389648437499996
3.0413818359375
3.0365478515624997
3.0389648437499996
3.037353515625
3.0381591796875
3.037353515625
3.037353515625
3.037353515625
3.0389648437499996
3.0365478515624997
3.0405761718749997
3.0389648437499996
2.4298828125
1.110205078125
0.4793701171875
0.030615234374999998
0.033032226562499996
0.0322265625
0.0322265625
0.02900390625
0.0322265625
0.0314208984375
0.0362548828125
0.0314208984375
0.0314208984375
0.0346435546875
0.0322265625
0.0298095703125
0.0322265625
0.02900390625
0.0322265625
0.03544921875
0.0322265625
0.0322265625
1.32451171875
1.9859619140625
2.47822265625
2.8286865234375
3.0188232421874996
3.0365478515624997
3.0429931640624996
3.0381591796875
3.0389648437499996
3.037353515625
3.0389648437499996
3.0381591796875
3.0365478515624997
3.0381591796875
3.037353515625
3.037353515625
3.034130859375
3.034130859375
3.0357421875
3.0413818359375
2.454052734375
1.41796875
0.71220703125
0.064453125
0.0281982421875
0.0322265625
0.030615234374999998
0.033032226562499996
0.027392578124999997
0.03544921875
0.0314208984375
0.0346435546875
0.0314208984375
0.0322265625
0.0314208984375
0.0314208984375
0.030615234374999998
0.0322265625
0.0346435546875
0.030615234374999998
0.0314208984375
0.0314208984375
1.152099609375
1.8892822265625
2.4427734375
2.7610107421874996
2.9761230468749997
3.037353515625
3.0381591796875
3.0389648437499996
3.0397705078125
3.0389648437499996
3.037353515625
3.037353515625
3.0357421875
3.037353515625
3.0349365234374996
3.0381591796875
3.0365478515624997
3.037353515625
3.0381591796875
3.0389648437499996
2.5805419921875
1.7893798828124998
0.7637695312499999
0.2344482421875
0.03544921875
0.0346435546875
0.03544921875
0.030615234374999998
0.0314208984375
0.0322265625
0.0298095703125
0.0322265625
0.033032226562499996
0.0322265625
0.030615234374999998
0.0322265625
0.0322265625
0.0314208984375
0.0314208984375
0.0322265625
0.02900390625
0.03544921875
0.6034423828125
1.6773925781249999
2.1809326171875
2.59423828125
2.8496337890624996
3.0381591796875
3.0381591796875
3.037353515625
3.0381591796875
3.037353515625
3.0389648437499996
3.0357421875
3.0389648437499996
3.0397705078125
3.0357421875
3.0389648437499996
3.037353515625
3.037353515625
3.0397705078125
3.037353515625
3.037353515625
1.9432617187499999
1.044140625
0.40122070312499997
0.02900390625
0.0281982421875
0.033837890625
0.0314208984375
0.033032226562499996
0.027392578124999997
0.0346435546875
0.030615234374999998
0.030615234374999998
0.02900390625
0.0322265625
0.0281982421875
0.0314208984375
0.0314208984375
0.0322265625
0.0322265625
0.0314208984375
0.0298095703125
0.8515869140625
1.5412353515625
2.1744873046874997
2.4548583984375
2.8560791015625
3.0365478515624997
3.0365478515624997
3.0389648437499996
3.0389648437499996
3.0349365234374996
3.0357421875
3.0389648437499996
3.037353515625
3.0357421875
3.037353515625
3.037353515625
3.0389648437499996
3.034130859375
3.0389648437499996
3.0381591796875
3.0421875
2.3783203125
1.361572265625
0.6501708984375
0.0314208984375
0.02900390625
0.0314208984375
0.0322265625
0.0322265625
0.033837890625
0.030615234374999998
0.02900390625
0.027392578124999997
0.0322265625
0.0314208984375
0.033837890625
0.033837890625
0.030615234374999998
0.030615234374999998
0.0314208984375
0.0322265625
0.0322265625
0.0322265625
1.2366943359375
1.9021728515624998
2.5168945312499997
2.834326171875
3.0349365234374996
3.0381591796875
3.037353515625
3.037353515625
3.0381591796875
3.0397705078125
3.0413818359375
3.0365478515624997
3.011572265625
3.0357421875
3.0405761718749997
3.0389648437499996
3.037353515625
3.0429931640624996
3.037353515625
3.037353515625
2.6143798828125
1.67900390625
0.5631591796875
0.10957031249999999
0.02900390625
0.030615234374999998
0.02900390625
0.0314208984375
0.0298095703125
0.0314208984375
0.027392578124999997
0.0346435546875
0.030615234374999998
0.0322265625
0.0322265625
0.0314208984375
0.0322265625
0.0314208984375
0.0322265625
0.03544921875
0.0322265625
0.0322265625
0.78955078125
1.7088134765624998
2.2550537109374997
2.5571777343749997
2.8528564453125
3.034130859375
3.0381591796875
3.0421875
3.037353515625
3.037353515625
3.0381591796875
3.0365478515624997
3.0357421875
3.0349365234374996
3.0389648437499996
3.0389648437499996
3.037353515625
3.0357421875
3.0389648437499996
3.0397705078125
3.0389648437499996
1.6862548828125
0.8225830078124999
0.33354492187499996
0.033837890625
0.033032226562499996
0.0322265625
0.0314208984375
0.0346435546875
0.018530273437499998
0.0298095703125
0.033032226562499996
0.03544921875
0.03544921875
0.0314208984375
0.0314208984375
0.0281982421875
0.0322265625
0.0314208984375
0.033837890625
0.033032226562499996
0.0322265625
0.833056640625
1.5218994140625
2.0689453125
2.5813476562499997
2.8399658203125
3.0365478515624997
3.0397705078125
3.0381591796875
3.037353515625
2.7908203124999997
3.037353515625
3.0421875
3.037353515625
3.0357421875
3.037353515625
3.0389648437499996
3.0389648437499996
3.0333251953125
3.037353515625
3.037353515625
3.0381591796875
2.11083984375
1.155322265625
0.35690917968749997
0.0346435546875
0.03544921875
0.0281982421875
0.033837890625
0.0322265625
0.03544921875
0.033032226562499996
0.0322265625
0.030615234374999998
0.0322265625
0.033837890625
0.0322265625
0.033032226562499996
0.0346435546875
0.0346435546875
0.0314208984375
0.030615234374999998
0.0322265625
0.030615234374999998
1.1947998046875
1.960986328125
2.3783203125
2.7134765625
3.0365478515624997
3.0405761718749997
3.0381591796875
3.0381591796875
3.0389648437499996
3.0365478515624997
3.0389648437499996
3.0389648437499996
3.0389648437499996
3.0365478515624997
3.0405761718749997
3.0333251953125
3.0365478515624997
3.0349365234374996
3.0365478515624997
3.0381591796875
2.9181152343749996
1.2020507812499999
0.53818359375
0.059619140625
0.030615234374999998
0.033837890625
0.033032226562499996
0.033032226562499996
0.033837890625
0.0314208984375
0.02900390625
0.0322265625
0.02900390625
0.030615234374999998
0.0322265625
0.0322265625
0.03544921875
0.0322265625
0.0314208984375
0.0314208984375
0.0322265625
0.0298095703125
1.35673828125
1.9247314453125
2.4049072265625
2.8367431640625
3.0357421875
3.0333251953125
3.037353515625
3.0397705078125
3.037353515625
3.0389648437499996
3.034130859375
3.037353515625
3.0220458984375
3.0405761718749997
3.0365478515624997
3.0365478515624997
3.0365478515624997
3.0357421875
3.0381591796875
3.037353515625
2.49755859375
1.5001464843749999
0.7379882812499999
0.07814941406249999
0.0314208984375
0.0322265625
0.0443115234375
0.0314208984375
0.0314208984375
0.03544921875
0.0322265625
0.02900390625
0.0314208984375
0.030615234374999998
0.033032226562499996
0.033837890625
0.0314208984375
0.0322265625
0.0314208984375
0.0322265625
0.0346435546875
0.02900390625
0.800830078125
1.6701416015625
2.1825439453124997
2.7642333984375
2.9463134765624996
3.037353515625
3.0357421875
3.0365478515624997
3.037353515625
3.0405761718749997
3.0389648437499996
3.0389648437499996
3.037353515625
3.0389648437499996
3.0365478515624997
3.0365478515624997
3.0413818359375
3.037353515625
3.0349365234374996
3.0413818359375
2.9124755859375
1.9392333984374999
1.0094970703125
0.28842773437499997
0.030615234374999998
0.033032226562499996
0.0314208984375
0.0322265625
0.0322265625
0.0314208984375
0.0322265625
0.0322265625
0.027392578124999997
0.0314208984375
0.030615234374999998
0.026586914062499998
0.033032226562499996
0.0314208984375
0.02900390625
0.0322265625
0.0298095703125
0.0298095703125
0.0314208984375
1.5033691406249998
2.2663330078125
2.5483154296875
2.7988769531249997
3.037353515625
3.034130859375
3.0389648437499996
3.037353515625
3.0389648437499996
3.0357421875
3.0357421875
3.0349365234374996
3.0389648437499996
3.0381591796875
3.0405761718749997
3.0349365234374996
3.0365478515624997
3.0397705078125
3.037353515625
3.037353515625
2.3597900390624997
1.0497802734375
0.42216796874999996
0.0346435546875
0.033837890625
0.0314208984375
0.0322265625
0.0314208984375
0.0281982421875
0.030615234374999998
0.0298095703125
0.033032226562499996
0.033032226562499996
0.027392578124999997
0.03544921875
0.033837890625
0.0314208984375
0.0322265625
0.02900390625
0.027392578124999997
0.02900390625
0.03544921875
1.3527099609375
1.9529296875
2.3420654296875
2.8125732421875
3.0156005859375
3.0405761718749997
3.0365478515624997
3.0381591796875
3.037353515625
3.037353515625
3.0365478515624997
3.037353515625
3.0389648437499996
3.0357421875
3.037353515625
3.037353515625
3.037353515625
3.0357421875
3.037353515625
3.0365478515624997
2.2888916015625
1.3744628906249998
0.639697265625
0.0322265625
0.030615234374999998
0.030615234374999998
0.030615234374999998
0.033837890625
0.030615234374999998
0.0322265625
0.02900390625
0.0322265625
0.030615234374999998
0.0322265625
0.0314208984375
0.0322265625
0.02900390625
0.02900390625
0.0314208984375
0.0322265625
0.0346435546875
0.0314208984375
1.074755859375
1.85625
2.4709716796875
2.7465087890624997
2.9527587890625
3.037353515625
3.0381591796875
3.0389648437499996
3.0349365234374996
3.0381591796875
3.037353515625
3.0309082031249996
3.0147949218749996
2.9173095703125
3.0381591796875
3.034130859375
3.0365478515624997
3.0357421875
3.037353515625
3.0397705078125
2.5483154296875
1.7120361328125
0.8201660156249999
0.1297119140625
0.0314208984375
0.030615234374999998
0.02900390625
0.0281982421875
0.0362548828125
0.033837890625
0.0314208984375
0.0314208984375
0.030615234374999998
0.0322265625
0.0322265625
0.0346435546875
0.0314208984375
0.0298095703125
0.0322265625
0.030615234374999998
0.0314208984375
0.02900390625
0.9611572265624999
1.8232177734375
2.260693359375
2.631298828125
2.8713867187499997
3.0381591796875
3.0429931640624996
3.037353515625
3.037353515625
3.0389648437499996
3.0357421875
3.0397705078125
3.0357421875
3.0365478515624997
3.0357421875
3.0365478515624997
3.0381591796875
3.037353515625
3.0357421875
3.0381591796875
3.0365478515624997
2.176904296875
0.98291015625
0.37060546875
0.0322265625
0.0322265625
0.0322265625
0.02900390625
0.0322265625
0.0346435546875
0.0281982421875
0.0362548828125
0.03544921875
0.033837890625
0.0322265625
0.0322265625
0.0314208984375
0.0322265625
0.0322265625
0.037060546874999996
0.0314208984375
0.0314208984375
0.023364257812499997
1.4469726562499998
2.03994140625
2.4532470703125
2.8045166015625
3.0381591796875
3.0365478515624997
3.0381591796875
3.0381591796875
3.037353515625
3.0413818359375
3.0421875
3.0333251953125
3.0309082031249996
3.0365478515624997
3.0389648437499996
3.037353515625
3.037353515625
3.0381591796875
3.0381591796875
3.0357421875
2.1777099609375
1.2745605468749999
0.6171386718749999
0.03544921875
0.0322265625
0.030615234374999998
0.0322265625
0.0314208984375
0.0346435546875
0.03544921875
0.030615234374999998
0.02900390625
0.0314208984375
0.0281982421875
0.033837890625
0.03544921875
0.0314208984375
0.0314208984375
0.033837890625
0.0346435546875
0.030615234374999998
0.033032226562499996
1.268115234375
1.9142578124999998
2.5257568359375
2.7481201171875
2.9108642578125
3.0397705078125
3.0381591796875
3.0357421875
3.0421875
3.043798828125
3.037353515625
3.0357421875
3.0244628906249997
3.0365478515624997
3.0349365234374996
3.037353515625
3.0365478515624997
3.0357421875
3.0381591796875
3.0365478515624997
2.5015869140625
1.5106201171875
0.38510742187499997
0.03544921875
0.03544921875
0.0322265625
0.0314208984375
0.030615234374999998
0.0322265625
0.0346435546875
0.0314208984375
0.02900390625
0.0298095703125
0.0314208984375
0.027392578124999997
0.0314208984375
0.0346435546875
0.0322265625
0.0322265625
0.0322265625
0.0281982421875
0.02900390625
0.9966064453125
2.0560546875
2.5064208984375
2.7948486328124997
3.0357421875
3.0381591796875
3.0421875
3.0357421875
3.0389648437499996
3.0405761718749997
3.0421875
3.034130859375
3.0365478515624997
3.0228515624999996
3.037353515625
3.0349365234374996
3.0389648437499996
3.037353515625
3.0333251953125
3.0365478515624997
3.0397705078125
1.533984375
0.736376953125
0.20463867187499998
0.033032226562499996
0.0362548828125
0.0314208984375
0.0314208984375
0.033837890625
0.0314208984375
0.030615234374999998
0.0314208984375
0.033032226562499996
0.0346435546875
0.0169189453125
0.0314208984375
0.033032226562499996
0.0298095703125
0.033032226562499996
0.0314208984375
0.0314208984375
0.0314208984375
0.8258056640625
1.5202880859374999
2.08828125
2.5418701171875
2.784375
3.02607421875
3.0349365234374996
3.0365478515624997
3.037353515625
3.034130859375
3.0357421875
3.0357421875
2.8166015625
3.0365478515624997
3.037353515625
3.0349365234374996
3.0365478515624997
3.0389648437499996
3.0389648437499996
3.0365478515624997
3.0413818359375
2.0020751953125
1.0094970703125
0.23283691406249998
0.0322265625
0.030615234374999998
0.0322265625
0.030615234374999998
0.0314208984375
0.030615234374999998
0.03544921875
0.03544921875
0.0314208984375
0.0314208984375
0.0314208984375
0.0298095703125
0.030615234374999998
0.030615234374999998
0.0314208984375
0.0281982421875
0.03544921875
0.0346435546875
0.0346435546875
1.3301513671874998
2.1857666015625
2.5660400390625
2.82626953125
2.9865966796874996
3.0365478515624997
3.0357421875
3.0389648437499996
3.0365478515624997
3.0405761718749997
3.0349365234374996
3.0268798828124996
2.979345703125
3.0365478515624997
3.0397705078125
3.037353515625
3.0389648437499996
3.0381591796875
3.0389648437499996
3.037353515625
2.4822509765625
1.4381103515625
0.46970214843749997
0.427001953125
0.033032226562499996
0.0322265625
0.033837890625
0.0322265625
0.030615234374999998
0.0322265625
0.02900390625
0.0298095703125
0.0362548828125
0.030615234374999998
0.0322265625
0.0298095703125
0.0322265625
0.0281982421875
0.0322265625
0.0314208984375
0.0314208984375
0.0322265625
1.0062744140625
1.8925048828125
2.3388427734375
2.6337158203124997
2.9334228515625
3.037353515625
3.037353515625
3.0389648437499996
3.0381591796875
3.0365478515624997
3.0389648437499996
3.0365478515624997
3.0381591796875
3.0164062499999997
3.0381591796875
3.0389648437499996
3.0357421875
3.0365478515624997
3.0421875
3.0421875
2.5902099609375
1.46953125
0.7379882812499999
0.21108398437499998
0.030615234374999998
0.0314208984375
0.0322265625
0.0314208984375
0.0314208984375
0.0322265625
0.0322265625
0.030615234374999998
0.0322265625
0.0314208984375
0.0298095703125
0.0322265625
0.0281982421875
0.0322265625
0.0322265625
0.0322265625
0.0346435546875
0.0281982421875
0.9047607421874999
1.740234375
2.2236328125
2.59423828125
2.8536621093749996
3.0357421875
3.037353515625
3.0413818359375
3.0365478515624997
3.0349365234374996
3.0365478515624997
3.0357421875
2.6788330078125
2.9318115234374997
3.037353515625
3.0397705078125
3.0397705078125
3.0365478515624997
3.0357421875
3.0381591796875
2.7287841796874996
1.869140625
0.97001953125
0.24089355468749998
0.0362548828125
0.033032226562499996
0.033032226562499996
0.0322265625
0.030615234374999998
0.0322265625
0.0314208984375
0.0322265625
0.0314208984375
0.0322265625
0.0322265625
0.0322265625
0.027392578124999997
0.03544921875
0.0298095703125
0.0314208984375
0.0314208984375
0.0322265625
0.030615234374999998
1.2769775390625
1.9996582031249999
2.3243408203125
2.5950439453125
2.9592041015625
3.0357421875
3.037353515625
3.0389648437499996
3.0405761718749997
3.0349365234374996
3.037353515625
3.0389648437499996
3.037353515625
3.0397705078125
3.0357421875
3.037353515625
3.0357421875
3.0365478515624997
3.037353515625
3.0365478515624997
2.1970458984375
0.952294921875
0.3391845703125
0.0298095703125
0.0322265625
0.0322265625
0.0314208984375
0.030615234374999998
0.0314208984375
0.0322265625
0.0298095703125
0.0298095703125
0.0281982421875
0.0314208984375
0.0298095703125
0.0322265625
0.033032226562499996
0.02900390625
0.0322265625
0.0322265625
0.0322265625
0.0298095703125
1.62744140625
1.9303710937499998
2.40087890625
2.776318359375
3.0365478515624997
3.037353515625
3.0389648437499996
3.0389648437499996
3.0389648437499996
3.0381591796875
3.0357421875
3.0405761718749997
3.0397705078125
3.037353515625
3.037353515625
3.037353515625
3.0397705078125
3.0389648437499996
3.037353515625
3.0365478515624997
2.273583984375
1.2310546875
0.4874267578125
0.0314208984375
0.0322265625
0.0314208984375
0.0322265625
0.0314208984375
0.0322265625
0.0322265625
0.0314208984375
0.0314208984375
0.030615234374999998
0.0322265625
0.0314208984375
0.030615234374999998
0.0314208984375
0.0281982421875
0.0314208984375
0.0322265625
0.0314208984375
0.03544921875
1.2318603515625
1.87236328125
2.36220703125
2.76826171875
2.9704833984374996
3.037353515625
3.0381591796875
3.0365478515624997
3.0381591796875
3.0389648437499996
3.034130859375
3.0381591796875
3.0357421875
3.037353515625
3.0349365234374996
3.043798828125
3.0421875
3.0389648437499996
3.037353515625
3.0397705078125
2.50400390625
1.606494140625
0.7718261718749999
0.0580078125
0.0298095703125
0.0314208984375
0.02900390625
0.0298095703125
0.0322265625
0.0314208984375
0.0314208984375
0.0314208984375
0.0314208984375
0.0314208984375
0.02900390625
0.0314208984375
0.0314208984375
0.0281982421875
0.0314208984375
0.030615234374999998
0.030615234374999998
0.0314208984375
0.7218749999999999
1.3736572265625
2.0326904296875
2.4355224609375
2.6530517578125
2.9044189453125
3.034130859375
3.0349365234374996
3.037353515625
3.0381591796875
3.0357421875
3.0365478515624997
3.034130859375
2.9583984374999996
3.0389648437499996
3.037353515625
3.037353515625
3.037353515625
3.0389648437499996
3.0365478515624997
3.0381591796875
2.0069091796875
0.8266113281249999
0.26425781249999997
0.0314208984375
0.0281982421875
0.0322265625
0.033032226562499996
0.0298095703125
0.0298095703125
0.0314208984375
0.0346435546875
0.0322265625
0.030615234374999998
0.0346435546875
0.0314208984375
0.033837890625
0.02900390625
0.0322265625
0.0314208984375
0.0322265625
0.0314208984375
0.0314208984375
1.22783203125
2.080224609375
2.3742919921875
2.6562744140624996
2.99384765625
3.0357421875
3.037353515625
3.0357421875
3.0349365234374996
3.0349365234374996
3.0397705078125
3.0389648437499996
3.003515625
3.0389648437499996
3.0357421875
3.0405761718749997
3.0357421875
3.0389648437499996
3.0421875
3.0365478515624997
2.42666015625
1.09248046875
0.456005859375
0.0346435546875
0.0346435546875
0.03544921875
0.0314208984375
0.03544921875
0.0298095703125
0.0322265625
0.0346435546875
0.033837890625
0.0314208984375
0.02900390625
0.0314208984375
0.0322265625
0.0281982421875
0.0322265625
0.0346435546875
0.030615234374999998
0.0322265625
0.02900390625
1.3527099609375
1.9827392578124998
2.4468017578125
2.7972656249999996
2.979345703125
3.0389648437499996
3.0389648437499996
3.0365478515624997
3.0365478515624997
3.0381591796875
3.0389648437499996
3.0357421875
3.0325195312499997
3.0349365234374996
3.0365478515624997
3.037353515625
3.0365478515624997
3.0405761718749997
3.0365478515624997
3.0389648437499996
2.5547607421875
1.4469726562499998
0.668701171875
0.21914062499999998
0.0346435546875
0.0314208984375
0.02900390625
0.03544921875
0.0314208984375
0.033837890625
0.030615234374999998
0.0346435546875
0.0314208984375
0.0298095703125
0.0314208984375
0.0314208984375
0.030615234374999998
0.0322265625
0.0298095703125
0.030615234374999998
0.030615234374999998
0.02900390625
1.252001953125
1.9988525390624998
2.6852783203125
2.9849853515625
3.0357421875
3.037353515625
3.0389648437499996
3.037353515625
3.0381591796875
3.037353515625
3.037353515625
3.0397705078125
3.034130859375
2.9882080078124997
3.0405761718749997
3.037353515625
3.037353515625
3.037353515625
3.037353515625
3.034130859375
2.68125
1.8175781249999998
0.639697265625
0.1264892578125
0.0322265625
0.0322265625
0.0314208984375
0.0322265625
0.0362548828125
0.0298095703125
0.0322265625
0.0322265625
0.033032226562499996
0.0314208984375
0.0322265625
0.0298095703125
0.0322265625
0.030615234374999998
0.033032226562499996
0.0346435546875
0.0322265625
0.0281982421875
1.0248046874999999
2.11083984375
2.666748046875
2.9761230468749997
3.0365478515624997
3.0381591796875
3.034130859375
3.0357421875
3.0365478515624997
3.0389648437499996
3.0389648437499996
3.0421875
3.0381591796875
3.034130859375
3.037353515625
3.0389648437499996
3.0381591796875
3.0405761718749997
3.0389648437499996
3.0357421875
3.037353515625
2.357373046875
1.0658935546875
0.4552001953125
0.030615234374999998
0.0298095703125
0.0314208984375
0.030615234374999998
0.02900390625
0.033837890625
0.0281982421875
0.0322265625
0.0281982421875
0.0314208984375
0.0314208984375
0.0314208984375
0.03544921875
0.0322265625
0.030615234374999998
0.0346435546875
0.033032226562499996
0.0322265625
1.1239013671875
1.920703125
2.479833984375
2.882666015625
3.0381591796875
3.0397705078125
3.0381591796875
3.0389648437499996
3.0389648437499996
3.037353515625
3.0365478515624997
3.034130859375
3.0381591796875
3.037353515625
3.0365478515624997
3.037353515625
3.037353515625
3.0357421875
3.0413818359375
3.0405761718749997
3.037353515625
3.037353515625
3.034130859375
3.0389648437499996
3.0389648437499996
3.0365478515624997
3.0357421875
3.0429931640624996
3.0357421875
3.037353515625
3.0349365234374996
3.0389648437499996
3.0381591796875
3.0365478515624997
3.0365478515624997
3.0365478515624997
3.0349365234374996
3.037353515625
3.037353515625
3.037353515625
3.034130859375
3.0381591796875
3.0389648437499996
3.0357421875
3.0365478515624997
3.0389648437499996
3.037353515625
3.0357421875
3.037353515625
3.0349365234374996
3.0357421875
3.0421875
3.0365478515624997
3.0389648437499996
3.037353515625
2.8673583984374997
2.5080322265625
3.037353515625
2.3235351562499997
1.7821289062499999
1.3728515625
0.7355712890624999
0.3875244140625
0.033032226562499996
0.030615234374999998
0.02900390625
0.062841796875
0.130517578125
0.18369140625
0.24895019531249998
0.3262939453125
0.34482421874999997
0.5132080078125
0.5003173828124999
0.5422119140625
0.5849121093749999
0.58974609375
0.5841064453125
0.0314208984375
0.327099609375
0.45842285156249996
0.510791015625
0.75732421875
0.9144287109375
1.5484863281249999
2.2236328125
1.8256347656249998
1.3639892578125
0.9812988281249999
0.825
0.8048583984375
0.7734375
0.78955078125
0.8644775390624999
1.003857421875
0.8370849609375
0.8403076171874999
0.8838134765625
0.897509765625
2.2695556640625
1.6886718749999998
1.4558349609374999
1.2383056640624999
1.0191650390625
0.855615234375
0.19094238281249998
0.0322265625
0.16274414062499998
0.56396484375
0.8580322265625
1.019970703125
1.0642822265625
1.2189697265625
1.24072265625
1.2745605468749999
1.335791015625
1.3349853515624999
1.3220947265624998
1.3349853515624999
1.3317626953125
0.038671874999999994
0.5841064453125
1.0207763671874999
1.2802001953125
1.4445556640625
1.5879638671874998
2.101171875
2.6458007812499997
2.2276611328125
1.6749755859375
1.4840332031249999
1.3639892578125
1.3664062499999998
1.3639892578125
1.3599609375
1.3100097656249998
1.36962890625
1.4316650390624999
1.4123291015625
1.4058837890625
1.40185546875
2.16884765625
2.3001708984375
1.7571533203124998
1.59521484375
1.38896484375
1.2205810546875
1.0078857421875
0.646142578125
0.7130126953125
0.9772705078124999
1.1698242187499999
1.2995361328125
1.340625
1.426025390625
1.47275390625
1.5082031249999999
1.5186767578125
1.5251220703125
1.5170654296875
1.5162597656249999
1.590380859375
0.6566162109375
0.7694091796875
1.1851318359375
1.3849365234375
1.5887695312499999
1.8135498046874998
1.869140625
2.7908203124999997
2.373486328125
1.9754882812499999
1.7345947265625
1.5082031249999999
1.4864501953125
1.5186767578125
1.529150390625
1.4606689453125
1.4783935546875
1.4679199218749999
1.46953125
1.4711425781249998
1.46630859375
2.0343017578125
2.3114501953124997
1.8707519531249999
1.65966796875
1.513037109375
1.3551269531249999
1.2318603515625
0.749267578125
0.7476562499999999
0.9490722656249999
1.229443359375
1.351904296875
1.4010498046875
1.4606689453125
1.49853515625
1.522705078125
1.561376953125
1.6024658203125
1.571044921875
1.5573486328125
1.5726562499999999
0.8886474609374999
0.64775390625
1.1698242187499999
1.42119140625
1.593603515625
1.6951171875
1.893310546875
2.6876953125
2.4999755859375
2.02060546875
1.7362060546875
1.5734619140625
1.5267333984375
1.571044921875
1.5364013671874999
1.5654052734375
1.4816162109375
1.4671142578124998
1.5154541015624998
1.5114257812499998
1.5162597656249999
1.5323730468749999
2.5265625
1.9110351562499999
1.7096191406249999
1.5605712890624999
1.327734375
1.26005859375
0.816943359375
0.7484619140625
1.0642822265625
1.2060791015624999
1.3148437499999999
1.4356933593749999
1.4195800781249999
1.5299560546875
1.58232421875
1.6137451171875
1.5758789062499998
1.5734619140625
1.5533203125
1.571044921875
1.5428466796875
0.64453125
1.2125244140625
1.448583984375
1.606494140625
1.7055908203124999
1.7821289062499999
2.3646240234375
2.45888671875
2.086669921875
1.7982421874999999
1.5976318359375
1.53076171875
1.5678222656249998
1.529150390625
1.5267333984375
1.5106201171875
1.4719482421874999
1.5170654296875
1.49853515625
1.5001464843749999
1.5114257812499998
2.5072265624999996
2.0947265625
1.7555419921875
1.6153564453125
1.4920898437499999
1.3825195312499998
0.8999267578125
0.784716796875
0.8685058593749999
1.1432373046875
1.3220947265624998
1.4550292968749998
1.41796875
1.5146484375
1.574267578125
1.5879638671874998
1.5766845703124999
1.6161621093749998
1.6290527343749999
1.5863525390625
1.5267333984375
0.4318359375
0.9861328125
1.400244140625
1.5025634765625
1.625830078125
1.7877685546875
2.1938232421875
2.592626953125
2.1068115234375
1.8344970703124999
1.6822265625
1.5726562499999999
1.5597656249999998
1.5460693359375
1.542041015625
1.4542236328125
1.4896728515625
1.529150390625
1.4759765624999999
1.558154296875
1.5243164062499999
2.328369140625
2.0681396484375
1.74345703125
1.6459716796875
1.4928955078125
1.3792968749999999
1.08603515625
0.8314453125
0.9160400390625
1.1432373046875
1.3148437499999999
1.4034667968749999
1.3865478515624998
1.5001464843749999
1.5170654296875
1.5517089843749998
1.603271484375
1.5847412109374999
1.5758789062499998
1.5782958984375
1.522705078125
0.46083984375
1.0094970703125
1.3462646484374998
1.538818359375
1.6781982421875
1.72734375
1.8578613281249998
2.5958496093749996
2.273583984375
1.9279541015625
1.65966796875
1.5750732421875
1.5170654296875
1.5355957031249998
1.574267578125
1.51787109375
1.51787109375
1.5243164062499999
1.53720703125
1.5315673828124998
1.490478515625
2.1712646484375
2.23330078125
1.7748779296875
1.6733642578124999
1.5057861328125
1.3656005859375
1.184326171875
0.8725341796874999
0.8548095703124999
1.252001953125
1.3100097656249998
1.442138671875
1.4308593749999998
1.4630859374999998
