1.5275390624999998
1.5331787109375
1.61455078125
1.9190917968749999
1.6645019531249998
1.6089111328124999
1.61455078125
1.5202880859374999
1.4397216796874999
1.329345703125
1.2544189453124999
1.3092041015625
1.3913818359374999
1.4461669921875
1.4735595703125
1.5017578125
1.5009521484375
1.5146484375
1.5364013671874999
1.5460693359375
1.55009765625
1.5355957031249998
1.545263671875
1.4574462890625
1.1947998046875
1.432470703125
1.4526123046875
1.513037109375
1.5718505859374998
1.6072998046875
2.0520263671875
1.8715576171875
1.7257324218749999
1.6403320312499998
1.5968261718749999
1.5799072265624998
1.5815185546875
1.5927978515624999
1.5919921874999998
1.522705078125
1.5428466796875
1.53720703125
1.5412353515625
1.5218994140625
1.5484863281249999
1.9706542968749998
1.7297607421874999
1.6177734375
1.5879638671874998
1.5267333984375
1.4373046875
1.3559326171875
1.2374999999999998
1.2802001953125
1.416357421875
1.4518066406249999
1.442138671875
1.4816162109375
1.5323730468749999
1.4920898437499999
1.5404296874999999
1.5251220703125
1.5194824218749998
1.53076171875
1.558154296875
1.5299560546875
1.0836181640625
1.426025390625
1.46953125
1.4896728515625
1.5718505859374998
1.5879638671874998
2.0044921875
1.9424560546874998
1.7378173828124999
1.6427490234375
1.590380859375
1.5702392578125
1.5887695312499999
1.6081054687499998
1.5702392578125
1.5533203125
1.5428466796875
1.5138427734375
1.5315673828124998
1.5275390624999998
1.542041015625
1.9569580078125
1.7289550781249998
1.6814208984374999
1.611328125
1.5573486328125
1.5243164062499999
1.33740234375
1.248779296875
1.2737548828124998
1.368017578125
1.4219970703125
1.4518066406249999
1.4445556640625
1.4848388671875
1.4872558593749998
1.5299560546875
1.545263671875
1.5323730468749999
1.5589599609375
1.5412353515625
1.5428466796875
1.0731445312499999
1.3398193359375
1.4389160156249998
1.4622802734375
1.538818359375
1.5992431640625
1.93359375
1.9376220703125
1.7877685546875
1.6653076171874999
1.6153564453125
1.593603515625
1.6056884765625
1.5782958984375
1.5726562499999999
1.5565429687499999
1.5484863281249999
1.5436523437499998
1.5331787109375
1.5428466796875
1.5509033203125
1.8868652343749999
1.735400390625
1.6395263671875
1.61455078125
1.5637939453124998
1.5082031249999999
1.332568359375
1.2890625
1.2785888671874999
1.3551269531249999
1.3994384765624999
1.4542236328125
1.4590576171874998
1.5114257812499998
1.5017578125
1.529150390625
1.5492919921875
1.542041015625
1.5347900390625
1.5565429687499999
1.545263671875
1.0634765625
1.3212890625
1.4518066406249999
1.448583984375
1.53720703125
1.6040771484374998
1.7015624999999999
1.973876953125
1.7990478515625
1.7120361328125
1.6242187499999998
1.5944091796875
1.59521484375
1.5863525390625
1.5718505859374998
1.590380859375
1.5267333984375
1.5355957031249998
1.5476806640624998
1.554931640625
1.5396240234374998
1.8175781249999998
1.8457763671874998
1.654833984375
1.6089111328124999
1.5654052734375
1.5082031249999999
1.3752685546874999
1.2826171874999999
1.24072265625
1.340625
1.4074951171874999
1.4703369140625
1.477587890625
1.4840332031249999
1.493701171875
1.509814453125
1.5315673828124998
1.5186767578125
1.529150390625
1.5436523437499998
1.5323730468749999
1.2221923828124999
1.1964111328125
1.4598632812499999
1.4550292968749998
1.50498046875
1.6000488281249998
1.6636962890625
2.01416015625
1.835302734375
1.7208984374999998
1.622607421875
1.61455078125
1.60166015625
1.5750732421875
1.5726562499999999
1.5799072265624998
1.5283447265624999
1.5315673828124998
1.5476806640624998
1.5299560546875
1.5428466796875
1.53720703125
1.867529296875
1.6773925781249999
1.6218017578125
1.5589599609375
1.5154541015624998
1.474365234375
1.3124267578125
1.2544189453124999
1.327734375
1.3873535156249999
1.448583984375
1.4437499999999999
1.4590576171874998
1.4993408203124998
1.509814453125
1.5235107421874998
1.53076171875
1.5509033203125
1.5750732421875
1.5275390624999998
1.2906738281249999
1.1666015625
1.4348876953124998
1.4816162109375
1.5146484375
1.5976318359375
1.6435546875
1.9988525390624998
1.8731689453125
1.732177734375
1.6322753906249998
1.5919921874999998
1.609716796875
1.5750732421875
1.5960205078124998
1.5799072265624998
1.561376953125
1.5605712890624999
1.5404296874999999
1.5323730468749999
1.525927734375
1.533984375
1.9585693359374998
1.6749755859375
1.6330810546874999
1.606494140625
1.5331787109375
1.4832275390624998
1.3043701171875
1.255224609375
1.3092041015625
1.3986328124999998
1.4381103515625
1.4679199218749999
1.45341796875
1.4912841796874998
1.506591796875
1.5218994140625
1.525927734375
1.5484863281249999
1.5517089843749998
1.558154296875
1.52109375
1.1279296875
1.405078125
1.458251953125
1.4953124999999998
1.5645996093749999
1.609716796875
1.8828369140624999
1.920703125
1.7619873046874999
1.6653076171874999
1.6056884765625
1.5686279296874999
1.5919921874999998
1.5847412109374999
1.5863525390625
1.5404296874999999
1.5396240234374998
1.542041015625
1.53720703125
1.5412353515625
1.5517089843749998
1.9674316406249999
1.7289550781249998
1.63388671875
1.5992431640625
1.554931640625
1.5146484375
1.3180664062499998
1.2753662109375
1.2777832031249998
1.38896484375
1.4284423828125
1.4542236328125
1.4590576171874998
1.4888671875
1.4896728515625
1.533984375
1.5267333984375
1.53720703125
1.5436523437499998
1.5460693359375
1.5235107421874998
1.087646484375
1.405078125
1.4703369140625
1.4630859374999998
1.5364013671874999
1.5847412109374999
1.72412109375
1.996435546875
1.7764892578125
1.6894775390624999
1.6346923828125
1.6169677734374999
1.5791015625
1.5976318359375
1.5984375
1.5766845703124999
1.5299560546875
1.53720703125
1.5404296874999999
1.5194824218749998
1.5090087890625
1.95615234375
1.7893798828124998
1.66611328125
1.619384765625
1.546875
1.5202880859374999
1.384130859375
1.2673095703125
1.264892578125
1.3502929687499998
1.409912109375
1.4437499999999999
1.4679199218749999
1.4888671875
1.5114257812499998
1.5404296874999999
1.5323730468749999
1.5162597656249999
1.5380126953125
1.5597656249999998
1.5484863281249999
1.0812011718749999
1.2834228515625
1.4284423828125
1.4800048828124999
1.5492919921875
1.585546875
1.7813232421874998
1.9787109374999998
1.80791015625
1.69833984375
1.5911865234375
1.6137451171875
1.571044921875
1.5517089843749998
1.5758789062499998
1.5557373046874998
1.546875
1.558154296875
1.56298828125
1.5605712890624999
1.545263671875
1.7128417968749998
1.8796142578125
1.662890625
1.6089111328124999
1.5645996093749999
1.49853515625
1.42119140625
1.2721435546875
1.2890625
1.3623779296874998
1.4107177734374998
1.4510009765624998
1.477587890625
1.4912841796874998
1.4928955078125
1.5106201171875
1.5436523437499998
1.5267333984375
1.5492919921875
1.571044921875
1.546875
1.319677734375
1.2503906249999999
1.4195800781249999
1.4622802734375
1.533984375
1.611328125
1.65
2.0036865234375
1.8264404296874999
1.7104248046875
1.6572509765624999
1.6169677734374999
1.6056884765625
1.5815185546875
1.5645996093749999
1.546875
1.5436523437499998
1.5597656249999998
1.5315673828124998
1.542041015625
1.5347900390625
1.6306640625
1.9271484374999999
1.714453125
1.63388671875
1.5944091796875
1.5243164062499999
1.4630859374999998
1.3309570312499999
1.27294921875
1.3204833984375
1.3792968749999999
1.4091064453125
1.4622802734375
1.4606689453125
1.5025634765625
1.5283447265624999
1.5146484375
1.5404296874999999
1.5331787109375
1.55009765625
1.538818359375
1.41796875
1.132763671875
1.445361328125
1.4687255859375
1.496923828125
1.5758789062499998
1.6218017578125
1.9166748046875
1.9263427734374998
1.73056640625
1.641943359375
1.6056884765625
1.590380859375
1.606494140625
1.59521484375
1.554931640625
1.5380126953125
1.5565429687499999
1.5492919921875
1.5404296874999999
1.5315673828124998
1.5517089843749998
1.9440673828125
1.716064453125
1.6290527343749999
1.585546875
1.5331787109375
1.4679199218749999
1.2995361328125
1.2503906249999999
1.303564453125
1.3688232421875
1.42119140625
1.477587890625
1.4832275390624998
1.509814453125
1.509814453125
1.5073974609374998
1.522705078125
1.5283447265624999
1.56298828125
1.5645996093749999
1.5001464843749999
1.103759765625
1.384130859375
1.4558349609374999
1.4735595703125
1.5243164062499999
1.60166015625
1.94970703125
1.93681640625
1.7813232421874998
1.654833984375
1.6105224609375
1.5831298828125
1.5605712890624999
1.577490234375
1.5863525390625
1.5654052734375
1.5412353515625
1.533984375
1.5186767578125
1.545263671875
1.5686279296874999
1.972265625
1.7168701171874998
1.6435546875
1.6056884765625
1.5533203125
1.5073974609374998
1.3285400390625
1.26005859375
1.2737548828124998
1.3551269531249999
1.4139404296875
1.4590576171874998
1.4840332031249999
1.5090087890625
1.53076171875
1.5122314453124999
1.542041015625
1.545263671875
1.5202880859374999
1.5541259765625
1.53720703125
1.06669921875
1.3599609375
1.4518066406249999
1.4703369140625
1.5436523437499998
1.5791015625
1.7208984374999998
1.9505126953124998
1.8111328125
1.6814208984374999
1.6250244140624999
1.5895751953125
1.587158203125
1.603271484375
1.5879638671874998
1.5758789062499998
1.5275390624999998
1.5364013671874999
1.5396240234374998
1.545263671875
1.53076171875
1.915869140625
1.8111328125
1.65966796875
1.625830078125
1.5436523437499998
1.493701171875
1.3237060546875
1.287451171875
1.2753662109375
1.3551269531249999
1.41796875
1.4719482421874999
1.458251953125
1.5122314453124999
1.4953124999999998
1.5162597656249999
1.5283447265624999
1.5194824218749998
1.53720703125
1.5364013671874999
1.5347900390625
1.1295410156249999
1.2431396484375
1.4550292968749998
1.4550292968749998
1.5009521484375
1.5919921874999998
1.6814208984374999
2.0302734375
1.828857421875
1.7088134765624998
1.6242187499999998
1.6072998046875
1.5927978515624999
1.5726562499999999
1.5944091796875
1.58232421875
1.558154296875
1.5275390624999998
1.5283447265624999
1.5380126953125
1.5412353515625
1.6330810546874999
1.819189453125
1.6443603515624998
1.6185791015625
1.554931640625
1.5057861328125
1.458251953125
1.271337890625
1.26005859375
1.332568359375
1.3962158203125
1.4574462890625
1.4961181640624999
1.4800048828124999
1.4961181640624999
1.5251220703125
1.5428466796875
1.5138427734375
1.5509033203125
1.5283447265624999
1.5323730468749999
1.17626953125
1.2238037109375
1.4526123046875
1.456640625
1.5025634765625
1.5670166015625
1.6854492187499999
2.02060546875
1.8425537109374999
1.72412109375
1.6524169921874998
1.6105224609375
1.5887695312499999
1.5750732421875
1.6040771484374998
1.561376953125
1.5444580078124999
1.55009765625
1.5766845703124999
1.5251220703125
1.52109375
1.5525146484374999
1.931982421875
1.6620849609375
1.6048828124999999
1.6000488281249998
1.5283447265624999
1.4461669921875
1.2906738281249999
1.2479736328125
1.332568359375
1.3881591796875
1.4268310546874998
1.4598632812499999
1.4735595703125
1.5017578125
1.5082031249999999
1.5267333984375
1.5299560546875
1.5380126953125
1.542041015625
1.55009765625
1.49853515625
1.206884765625
1.4389160156249998
1.442138671875
1.509814453125
1.5702392578125
1.5944091796875
1.9472900390624999
1.8731689453125
1.7257324218749999
1.6588623046875
1.5960205078124998
1.58232421875
1.5621826171875
1.5911865234375
1.577490234375
1.587158203125
1.5565429687499999
1.5484863281249999
1.5605712890624999
1.561376953125
1.5243164062499999
1.9569580078125
1.703173828125
1.635498046875
1.6121337890624998
1.55009765625
1.5017578125
1.327734375
1.24716796875
1.2930908203125
1.3623779296874998
1.4437499999999999
1.445361328125
1.47275390625
1.4945068359375
1.4864501953125
1.5194824218749998
1.529150390625
1.5484863281249999
1.5533203125
1.558154296875
1.554931640625
1.0916748046875
1.4195800781249999
1.448583984375
1.464697265625
1.522705078125
1.5927978515624999
1.864306640625
1.9795166015624999
1.74345703125
1.6612792968749999
1.6129394531249999
1.5927978515624999
1.6040771484374998
1.603271484375
1.5984375
1.5396240234374998
1.5396240234374998
1.5347900390625
1.5251220703125
1.5283447265624999
1.5380126953125
2.00771484375
1.7450683593749998
1.65
1.619384765625
1.5557373046874998
1.4993408203124998
1.3253173828125
1.2318603515625
1.26005859375
1.3656005859375
1.4477783203124999
1.477587890625
1.4671142578124998
1.5025634765625
1.4703369140625
1.5009521484375
1.561376953125
1.5492919921875
1.5637939453124998
1.5621826171875
1.5565429687499999
1.068310546875
1.3156494140625
1.456640625
1.4783935546875
1.542041015625
1.5887695312499999
1.87236328125
1.9279541015625
1.80791015625
1.6781982421875
1.6056884765625
1.587158203125
1.5847412109374999
1.5662109375
1.5799072265624998
1.5758789062499998
1.561376953125
1.5557373046874998
1.522705078125
1.51787109375
1.5404296874999999
1.85625
1.8393310546875
1.641943359375
1.6218017578125
1.5654052734375
1.4872558593749998
1.3865478515624998
1.2914794921875
1.2737548828124998
1.3599609375
1.4356933593749999
1.4348876953124998
1.4735595703125
1.4840332031249999
1.5082031249999999
1.5364013671874999
1.538818359375
1.538818359375
1.538818359375
1.546875
1.5299560546875
1.19560546875
1.2987304687499999
1.442138671875
1.4671142578124998
1.5275390624999998
1.5927978515624999
1.6830322265625
1.980322265625
1.819189453125
1.6975341796874999
1.6290527343749999
1.6056884765625
1.5927978515624999
1.5863525390625
1.5847412109374999
1.5839355468749998
1.5476806640624998
1.53720703125
1.5364013671874999
1.533984375
1.56298828125
1.8111328125
1.877197265625
1.6725585937499998
1.6346923828125
1.5525146484374999
1.5073974609374998
1.397021484375
1.2818115234374998
1.2665039062499999
1.3317626953125
1.397021484375
1.4550292968749998
1.4630859374999998
1.4800048828124999
1.4864501953125
1.5106201171875
1.5138427734375
1.53720703125
1.5404296874999999
1.5412353515625
1.5654052734375
1.2544189453124999
1.1794921875
1.4558349609374999
1.4622802734375
1.5235107421874998
1.5984375
1.6475830078125
2.0004638671875
1.877197265625
1.719287109375
1.6298583984375
1.6121337890624998
1.5758789062499998
1.5509033203125
1.5645996093749999
1.5662109375
1.558154296875
1.5541259765625
1.5517089843749998
1.55009765625
1.522705078125
1.5436523437499998
1.8941162109374998
1.6894775390624999
1.6403320312499998
1.5879638671874998
1.5218994140625
1.4679199218749999
1.2963134765625
1.2536132812499998
1.319677734375
1.3962158203125
1.4397216796874999
1.4558349609374999
1.4510009765624998
1.50498046875
1.5492919921875
1.5589599609375
1.5509033203125
1.538818359375
1.538818359375
1.5202880859374999
1.3349853515624999
1.119873046875
1.3784912109374998
1.4679199218749999
1.5057861328125
1.5766845703124999
1.5815185546875
1.9843505859375
1.89169921875
1.7442626953125
1.6636962890625
1.61455078125
1.574267578125
1.5976318359375
1.5879638671874998
1.5911865234375
1.5589599609375
1.5573486328125
1.5492919921875
1.5404296874999999
1.5533203125
1.533984375
1.9746826171874998
1.6830322265625
1.63388671875
1.6040771484374998
1.542041015625
1.46953125
1.2858398437499998
1.2568359375
1.287451171875
1.3946044921874998
1.4622802734375
1.4469726562499998
1.482421875
1.50498046875
1.48564453125
1.525927734375
1.5170654296875
1.5017578125
1.5114257812499998
1.5758789062499998
1.5645996093749999
1.1150390625
1.405078125
1.4526123046875
1.4751708984374998
1.5404296874999999
1.587158203125
1.8240234375
1.9037841796875
1.7764892578125
1.6951171875
1.6153564453125
1.5799072265624998
1.593603515625
1.5879638671874998
1.6129394531249999
1.5734619140625
1.5331787109375
1.5541259765625
1.538818359375
1.522705078125
1.5404296874999999
1.9634033203124999
1.7466796875
1.65966796875
1.6105224609375
1.5702392578125
1.490478515625
1.327734375
1.27294921875
1.26328125
1.3599609375
1.4268310546874998
1.46630859375
1.4590576171874998
1.4920898437499999
1.4993408203124998
1.5122314453124999
1.53076171875
1.533984375
1.533984375
1.545263671875
1.5492919921875
1.0570312499999999
1.2955078125
1.4735595703125
1.4767822265625
1.5476806640624998
1.5944091796875
1.72734375
1.9924072265625
1.7660156249999999
1.6636962890625
1.6685302734374998
1.5992431640625
1.571044921875
1.6242187499999998
1.6242187499999998
1.55009765625
1.5202880859374999
1.522705078125
1.5573486328125
1.5186767578125
1.5605712890624999
1.7853515624999998
1.7571533203124998
1.6669189453125
1.6330810546874999
1.533984375
1.5162597656249999
1.413134765625
1.264892578125
1.284228515625
1.3623779296874998
1.40185546875
1.4469726562499998
1.448583984375
1.4848388671875
1.52109375
1.5162597656249999
1.545263671875
1.5412353515625
1.561376953125
1.5662109375
1.5404296874999999
1.05380859375
1.24716796875
1.4413330078125
1.464697265625
1.5235107421874998
1.5968261718749999
1.7611816406249998
1.9706542968749998
1.8183837890624999
1.7047851562499998
1.64677734375
1.6298583984375
1.5847412109374999
1.6121337890624998
1.6137451171875
1.5557373046874998
1.5235107421874998
1.5251220703125
1.546875
1.545263671875
1.5621826171875
1.7055908203124999
1.9021728515624998
1.6612792968749999
1.625830078125
1.5782958984375
1.49853515625
1.4437499999999999
1.264892578125
1.229443359375
1.34384765625
1.4195800781249999
1.4550292968749998
1.46630859375
1.4800048828124999
1.4880615234374999
1.50498046875
1.5412353515625
1.533984375
1.5162597656249999
1.5154541015624998
1.525927734375
1.348681640625
1.2673095703125
1.4501953125
1.4800048828124999
1.5202880859374999
1.6056884765625
1.6250244140624999
1.9827392578124998
1.844970703125
1.703173828125
1.6806152343749998
1.6000488281249998
1.5911865234375
1.6048828124999999
1.590380859375
1.5533203125
1.5380126953125
1.542041015625
1.5662109375
1.5380126953125
1.5323730468749999
1.6475830078125
1.9118408203125
1.687060546875
1.606494140625
1.5533203125
1.533984375
1.4848388671875
1.2890625
1.26005859375
1.3180664062499998
1.3994384765624999
1.4558349609374999
1.4800048828124999
1.490478515625
1.50498046875
1.5025634765625
1.5162597656249999
1.5267333984375
1.542041015625
1.538818359375
1.5404296874999999
1.4542236328125
1.1093994140624999
1.4510009765624998
1.4638916015624999
1.4928955078125
1.52109375
1.6137451171875
1.9110351562499999
1.9392333984374999
1.7337890624999999
1.6653076171874999
1.6161621093749998
1.5758789062499998
1.585546875
1.5839355468749998
1.59521484375
1.554931640625
1.5492919921875
1.5589599609375
1.5267333984375
1.5476806640624998
1.5686279296874999
1.9505126953124998
1.714453125
1.6330810546874999
1.611328125
1.5218994140625
1.4501953125
1.313232421875
1.232666015625
1.3075927734375
1.3905761718749998
1.4445556640625
1.4751708984374998
1.4348876953124998
1.4840332031249999
1.496923828125
1.5202880859374999
1.5492919921875
1.546875
1.5492919921875
1.5517089843749998
1.5162597656249999
1.0884521484375
1.3656005859375
1.4671142578124998
1.490478515625
1.5355957031249998
1.5645996093749999
1.9279541015625
1.9142578124999998
1.7619873046874999
1.6395263671875
1.6153564453125
1.622607421875
1.585546875
1.5799072265624998
1.593603515625
1.5686279296874999
1.5621826171875
1.5605712890624999
1.5492919921875
1.5315673828124998
1.5412353515625
1.94970703125
1.7982421874999999
1.64677734375
1.619384765625
1.5323730468749999
1.482421875
1.316455078125
1.2665039062499999
1.2882568359375
1.3792968749999999
1.4219970703125
1.4518066406249999
1.4711425781249998
1.5057861328125
1.5122314453124999
1.5186767578125
1.5331787109375
1.52109375
1.5589599609375
1.554931640625
1.5380126953125
1.1158447265625
1.3470703124999999
1.4622802734375
1.4759765624999999
1.55009765625
1.5895751953125
1.7047851562499998
1.9666259765624998
1.78857421875
1.6773925781249999
1.6201904296874998
1.5847412109374999
1.5662109375
1.59521484375
1.5807128906249999
1.561376953125
1.53720703125
1.546875
1.5404296874999999
1.5355957031249998
1.5404296874999999
1.9086181640625
1.8006591796875
1.67900390625
1.6290527343749999
1.5323730468749999
1.506591796875
1.3349853515624999
1.2745605468749999
1.27294921875
1.3462646484374998
1.405078125
1.4493896484375
1.4598632812499999
1.5090087890625
1.4993408203124998
1.5138427734375
1.542041015625
1.5283447265624999
1.5436523437499998
1.55009765625
1.5347900390625
1.135986328125
1.21171875
1.4518066406249999
1.4622802734375
1.5082031249999999
1.56943359375
1.6693359374999999
2.0415527343749997
1.8506103515624999
1.7104248046875
1.6435546875
1.6234130859375
1.5968261718749999
1.5678222656249998
1.561376953125
1.5799072265624998
1.554931640625
1.5492919921875
1.5396240234374998
1.5428466796875
1.5331787109375
1.5944091796875
1.8465820312499999
1.6645019531249998
1.6121337890624998
1.5565429687499999
1.5347900390625
1.46953125
1.2955078125
1.2608642578125
1.3414306640625
1.4308593749999998
1.4356933593749999
1.4300537109375
1.4477783203124999
1.4767822265625
1.4759765624999999
1.53720703125
1.53720703125
1.5662109375
1.5654052734375
1.522705078125
1.1883544921875
1.2254150390625
1.4413330078125
1.4848388671875
1.5428466796875
1.5791015625
1.62744140625
1.9891845703125
1.85947265625
1.740234375
1.6556396484375
1.6169677734374999
1.561376953125
1.5863525390625
1.5726562499999999
1.5654052734375
1.5364013671874999
1.538818359375
1.558154296875
1.5412353515625
1.5114257812499998
1.561376953125
1.9440673828125
1.6749755859375
1.63388671875
1.585546875
1.53076171875
1.474365234375
1.300341796875
1.2777832031249998
1.3237060546875
1.3664062499999998
1.4058837890625
1.4437499999999999
1.4880615234374999
1.4872558593749998
1.50498046875
1.5517089843749998
1.5509033203125
1.5194824218749998
1.53076171875
1.5476806640624998
1.5299560546875
1.1931884765625
1.4228027343749998
1.458251953125
1.509814453125
1.5589599609375
1.609716796875
1.8328857421875
1.8780029296874998
1.748291015625
1.6717529296875
1.6008544921874999
1.5895751953125
1.60166015625
1.5911865234375
1.5887695312499999
1.5331787109375
1.546875
1.53076171875
1.5194824218749998
1.5517089843749998
1.5396240234374998
1.9698486328125
1.7289550781249998
1.6645019531249998
1.5927978515624999
1.5573486328125
1.5082031249999999
1.332568359375
1.248779296875
1.2898681640624998
1.3752685546874999
1.4300537109375
1.4526123046875
1.4501953125
1.5162597656249999
1.4888671875
1.5235107421874998
1.529150390625
1.529150390625
1.5235107421874998
1.5364013671874999
1.5323730468749999
1.0626708984375
1.33740234375
1.4703369140625
1.506591796875
1.5243164062499999
1.603271484375
1.8167724609375
1.9835449218749999
1.7716552734375
1.65966796875
1.611328125
1.6008544921874999
1.5887695312499999
1.587158203125
1.5758789062499998
1.5565429687499999
1.5444580078124999
1.5541259765625
1.529150390625
1.53720703125
1.5347900390625
1.89169921875
1.7088134765624998
1.6379150390625
1.619384765625
1.5734619140625
1.5033691406249998
1.3801025390625
1.2318603515625
1.2955078125
1.3664062499999998
1.4413330078125
1.4638916015624999
1.4437499999999999
1.53076171875
1.477587890625
1.4888671875
1.5428466796875
1.571044921875
1.545263671875
1.5331787109375
1.558154296875
1.0634765625
1.3261230468749998
1.4655029296875
1.47275390625
1.522705078125
1.5791015625
1.85302734375
1.93359375
1.7926025390625
1.7080078125
1.603271484375
1.5984375
1.5895751953125
1.5895751953125
1.5919921874999998
1.5839355468749998
1.5597656249999998
1.5428466796875
1.5355957031249998
1.542041015625
1.5621826171875
1.8417480468749998
1.8578613281249998
1.654833984375
1.6129394531249999
1.5428466796875
1.4880615234374999
1.4195800781249999
1.2850341796875
1.2431396484375
1.345458984375
1.4091064453125
1.4550292968749998
1.4477783203124999
1.4945068359375
1.5082031249999999
1.546875
1.5533203125
1.55009765625
1.5517089843749998
1.5251220703125
1.5235107421874998
1.2254150390625
1.2882568359375
1.4155517578124999
1.4606689453125
1.5460693359375
1.5984375
1.67900390625
1.9924072265625
1.8151611328125
1.6927001953124998
1.6282470703124998
1.577490234375
1.5879638671874998
1.5992431640625
1.6040771484374998
1.5839355468749998
1.56298828125
1.546875
1.538818359375
1.5162597656249999
1.522705078125
1.7571533203124998
1.87236328125
1.6798095703125
1.6379150390625
1.5758789062499998
1.5170654296875
1.4703369140625
1.340625
1.287451171875
1.353515625
1.4187744140624998
1.456640625
1.4872558593749998
1.4751708984374998
1.47275390625
1.4920898437499999
1.5202880859374999
1.5436523437499998
1.5299560546875
1.529150390625
1.5114257812499998
1.3237060546875
1.1899658203124999
1.4912841796874998
1.4864501953125
1.5170654296875
1.577490234375
1.622607421875
1.977099609375
1.8731689453125
1.69189453125
1.622607421875
1.5984375
1.577490234375
1.5791015625
1.5766845703124999
1.5831298828125
1.5758789062499998
1.56298828125
1.5597656249999998
1.525927734375
1.5243164062499999
1.5267333984375
1.9134521484375
1.6814208984374999
1.6250244140624999
1.6169677734374999
1.5299560546875
1.4598632812499999
1.2826171874999999
1.2310546875
1.2987304687499999
1.364794921875
1.4268310546874998
1.4783935546875
1.4735595703125
1.5186767578125
1.5122314453124999
1.5218994140625
1.5476806640624998
1.5347900390625
1.554931640625
1.55009765625
1.41796875
1.1706298828125
1.4711425781249998
1.5315673828124998
1.5380126953125
1.538818359375
1.5621826171875
1.9464843749999998
1.8763916015625
1.7370117187499998
1.606494140625
1.6000488281249998
1.603271484375
1.5911865234375
1.5831298828125
1.5758789062499998
1.525927734375
1.5323730468749999
1.561376953125
1.56298828125
1.5267333984375
1.5517089843749998
1.957763671875
1.7442626953125
1.635498046875
1.625830078125
1.5645996093749999
1.490478515625
1.3043701171875
1.2568359375
1.27939453125
1.3672119140624999
1.4155517578124999
1.4888671875
1.4864501953125
1.5170654296875
1.4888671875
1.5299560546875
1.5605712890624999
1.5299560546875
1.542041015625
1.5517089843749998
1.52109375
1.0658935546875
1.3784912109374998
1.4469726562499998
1.4526123046875
1.5533203125
1.6000488281249998
1.714453125
1.9424560546874998
1.764404296875
1.670947265625
1.6185791015625
1.622607421875
1.6121337890624998
1.58232421875
1.61455078125
1.5404296874999999
1.55009765625
1.5645996093749999
1.5718505859374998
1.5541259765625
1.5557373046874998
1.9787109374999998
1.7450683593749998
1.6201904296874998
1.61455078125
1.546875
1.4977294921875
1.31162109375
1.2439453125
1.255224609375
1.353515625
1.4123291015625
1.456640625
1.442138671875
1.4920898437499999
1.5162597656249999
1.4920898437499999
1.5186767578125
1.5170654296875
1.5412353515625
1.55009765625
1.5299560546875
1.09892578125
1.2826171874999999
1.45341796875
1.4783935546875
1.5355957031249998
1.5815185546875
1.7474853515625
2.022216796875
1.8167724609375
1.6653076171874999
1.651611328125
1.6081054687499998
1.606494140625
1.5992431640625
1.5944091796875
1.58232421875
1.53720703125
1.545263671875
1.5541259765625
1.5138427734375
1.496923828125
1.6830322265625
1.7974365234374998
1.6669189453125
1.6371093749999999
1.5565429687499999
1.5170654296875
1.426025390625
1.2568359375
1.255224609375
1.3656005859375
1.4332763671875
1.4719482421874999
1.4687255859375
1.464697265625
1.522705078125
1.5484863281249999
1.558154296875
1.5243164062499999
1.5162597656249999
1.5323730468749999
1.5621826171875
1.0868408203125
1.239111328125
1.4348876953124998
1.4630859374999998
1.4993408203124998
1.5645996093749999
1.6540283203125
2.0133544921874997
1.8763916015625
1.7152587890625
1.60166015625
1.5887695312499999
1.603271484375
1.6290527343749999
1.6266357421875
1.587158203125
1.545263671875
1.542041015625
1.5170654296875
1.5283447265624999
1.56298828125
1.6717529296875
1.93359375
1.6685302734374998
1.6459716796875
1.59521484375
1.52109375
1.3946044921874998
1.2463623046874999
1.2238037109375
1.3220947265624998
1.4115234374999999
1.4268310546874998
1.445361328125
1.4687255859375
1.5017578125
1.5138427734375
1.5299560546875
1.5436523437499998
1.5444580078124999
1.5895751953125
1.5726562499999999
1.4228027343749998
1.20849609375
1.4107177734374998
1.432470703125
1.4783935546875
1.5654052734375
1.61455078125
1.960986328125
1.9102294921874998
1.7418457031249999
1.66611328125
1.6322753906249998
1.5968261718749999
1.5992431640625
1.60166015625
1.571044921875
1.5645996093749999
1.5283447265624999
1.5380126953125
1.53720703125
1.56298828125
1.6008544921874999
1.9867675781249998
1.7297607421874999
1.6234130859375
1.5831298828125
1.5396240234374998
1.4751708984374998
1.2955078125
1.2374999999999998
1.3156494140625
1.4155517578124999
1.4510009765624998
1.4896728515625
1.4679199218749999
1.5017578125
1.509814453125
1.5355957031249998
1.525927734375
1.5033691406249998
1.506591796875
1.5138427734375
1.4888671875
1.08603515625
1.3728515625
1.4558349609374999
1.529150390625
1.5605712890624999
1.6137451171875
2.0246337890625
1.95615234375
1.7337890624999999
1.6620849609375
1.6089111328124999
1.5621826171875
1.58232421875
1.5565429687499999
1.5444580078124999
1.5347900390625
1.5484863281249999
1.5509033203125
1.5525146484374999
1.5396240234374998
1.5283447265624999
1.9988525390624998
1.7611816406249998
1.6910888671875
1.654833984375
1.5887695312499999
1.4864501953125
1.276171875
1.18271484375
1.2157470703125
1.3317626953125
1.3994384765624999
1.4203857421875
1.405078125
1.4638916015624999
1.5009521484375
1.513037109375
1.5484863281249999
1.5460693359375
1.5621826171875
1.5541259765625
1.49853515625
0.9498779296875
1.2834228515625
1.4268310546874998
1.477587890625
1.546875
1.5911865234375
2.03671875
1.9956298828124999
1.861083984375
1.7652099609374998
1.690283203125
1.6620849609375
1.6483886718749998
1.5863525390625
1.593603515625
1.5718505859374998
1.5283447265624999
1.4888671875
1.477587890625
1.5162597656249999
1.525927734375
1.9835449218749999
1.867529296875
1.6572509765624999
1.6314697265625
1.5404296874999999
1.5170654296875
1.300341796875
1.2189697265625
1.20849609375
1.2914794921875
1.377685546875
1.3994384765624999
1.4550292968749998
1.5114257812499998
1.5073974609374998
1.5114257812499998
1.52109375
1.5017578125
1.5525146484374999
1.5347900390625
1.5492919921875
1.0119140625
1.2818115234374998
1.45341796875
1.490478515625
1.5605712890624999
1.6346923828125
1.7152587890625
2.1390380859375
1.8973388671875
1.7418457031249999
1.6250244140624999
1.5992431640625
1.5662109375
1.5839355468749998
1.56943359375
1.574267578125
1.5782958984375
1.554931640625
1.5436523437499998
1.53076171875
1.5565429687499999
1.96904296875
1.9464843749999998
1.7128417968749998
1.6483886718749998
1.571044921875
1.5057861328125
1.4155517578124999
1.19560546875
1.1351806640625
1.2455566406249998
1.3664062499999998
1.4155517578124999
1.42119140625
1.4518066406249999
1.493701171875
1.5235107421874998
1.5597656249999998
1.5404296874999999
1.5218994140625
1.5315673828124998
1.5364013671874999
1.0046630859374999
1.0159423828125
1.4010498046875
1.4356933593749999
1.5364013671874999
1.6129394531249999
1.72734375
2.2187988281249997
2.01416015625
1.7901855468749999
1.6798095703125
1.6403320312499998
1.5887695312499999
1.5807128906249999
1.5879638671874998
1.561376953125
1.5380126953125
1.5444580078124999
1.513037109375
1.56943359375
1.5202880859374999
1.5863525390625
2.0214111328124997
1.7152587890625
1.622607421875
1.5799072265624998
1.4630859374999998
1.361572265625
1.152099609375
1.0787841796875
1.21494140625
1.3317626953125
1.4308593749999998
1.4501953125
1.47275390625
1.49853515625
1.506591796875
1.525927734375
1.5218994140625
1.5275390624999998
1.5654052734375
1.5565429687499999
1.0900634765625
0.9740478515625
1.2906738281249999
1.380908203125
1.5347900390625
1.6209960937499999
1.7466796875
2.34287109375
2.10439453125
1.88525390625
1.6717529296875
1.6185791015625
1.5782958984375
1.6072998046875
1.5863525390625
1.606494140625
1.5605712890624999
1.529150390625
1.5186767578125
1.5017578125
1.5283447265624999
1.506591796875
2.176904296875
1.8651123046875
1.6798095703125
1.60166015625
1.5621826171875
1.4284423828125
1.158544921875
1.0385009765625
1.1384033203125
1.2463623046874999
1.32451171875
1.4107177734374998
1.4276367187499999
1.4598632812499999
1.4679199218749999
1.558154296875
1.5517089843749998
1.513037109375
1.56298828125
1.5807128906249999
1.5839355468749998
0.8201660156249999
1.2544189453124999
1.400244140625
1.4622802734375
1.619384765625
1.7217041015624999
2.1205078125
2.241357421875
2.002880859375
1.799853515625
1.6943115234375
1.5992431640625
1.5927978515624999
1.5895751953125
1.6105224609375
1.5895751953125
1.5686279296874999
1.5509033203125
1.49853515625
1.4888671875
1.4928955078125
2.2437744140625
1.9150634765624999
1.7781005859374999
1.6669189453125
1.5589599609375
1.4510009765624998
1.110205078125
0.966796875
1.042529296875
1.1794921875
1.3623779296874998
1.4252197265625
1.4252197265625
1.464697265625
1.4655029296875
1.5396240234374998
1.5984375
1.5476806640624998
1.5218994140625
1.5106201171875
1.5162597656249999
0.6332519531249999
1.0207763671874999
1.3075927734375
1.4389160156249998
1.5251220703125
1.6411376953124999
2.1245361328125
2.4435791015625
2.18818359375
1.8183837890624999
1.6701416015625
1.5726562499999999
1.5557373046874998
1.5597656249999998
1.5831298828125
1.5533203125
1.5146484375
1.509814453125
1.4945068359375
1.506591796875
1.5146484375
2.11728515625
2.031884765625
1.8264404296874999
1.780517578125
1.5557373046874998
1.44052734375
1.2012451171875
0.9474609374999999
0.9031494140624999
1.0570312499999999
1.24072265625
1.3631835937499999
1.4228027343749998
1.5202880859374999
1.5194824218749998
1.5686279296874999
1.5911865234375
1.603271484375
1.5992431640625
1.6072998046875
1.574267578125
0.6453369140624999
0.8991210937499999
1.1722412109375
1.3575439453125
1.561376953125
1.683837890625
1.8739746093749998
2.566845703125
2.3203125
2.0600830078125
1.7289550781249998
1.6282470703124998
1.5670166015625
1.5662109375
1.625830078125
1.603271484375
1.5364013671874999
1.5565429687499999
1.5718505859374998
1.5267333984375
1.5017578125
2.0689453125
2.2582763671875
1.8151611328125
1.7329833984374998
1.5799072265624998
1.3978271484375
1.1883544921875
0.8572265625
0.7702148437499999
0.9595458984374999
1.1657958984374999
1.2536132812499998
1.3341796874999998
1.413134765625
1.4590576171874998
1.5364013671874999
1.585546875
1.6209960937499999
1.5791015625
1.5670166015625
1.509814453125
0.8677001953125
0.781494140625
1.1561279296875
1.329345703125
1.48564453125
1.72412109375
1.8884765625
2.6385498046875
2.489501953125
2.1648193359375
1.8908935546874999
1.754736328125
1.611328125
1.58232421875
1.6169677734374999
1.5589599609375
1.5323730468749999
1.52109375
1.5057861328125
1.4735595703125
1.4638916015624999
1.50498046875
2.33642578125
1.9956298828124999
1.8554443359375
1.603271484375
1.458251953125
1.2511962890625
0.936181640625
0.7742431640624999
0.910400390625
1.0973144531249999
1.2906738281249999
1.3881591796875
1.42119140625
1.4518066406249999
1.53076171875
1.5484863281249999
1.561376953125
1.542041015625
1.5758789062499998
1.5815185546875
1.0787841796875
0.60263671875
1.0376953125
1.2479736328125
1.44052734375
1.6201904296874998
1.832080078125
2.6538574218749997
2.6353271484375
2.3960449218749997
1.8981445312499998
1.7136474609374999
1.5911865234375
1.5839355468749998
1.651611328125
1.611328125
1.52109375
1.5170654296875
1.50498046875
1.5001464843749999
1.4791992187499998
1.4703369140625
2.454052734375
2.1342041015624997
1.925537109375
1.786962890625
1.5186767578125
1.3083984375
0.791162109375
0.6034423828125
0.6372802734374999
0.9313476562499999
1.1802978515625
1.3204833984375
1.40830078125
1.458251953125
1.4622802734375
1.5992431640625
1.6540283203125
1.6000488281249998
1.593603515625
1.5702392578125
1.5831298828125
0.3794677734375
0.8040527343749999
1.0803955078125
1.2109130859375
1.6218017578125
1.7700439453124999
2.8270751953124997
2.9970703125
2.6361328124999996
2.2792236328124997
1.7934082031249998
1.558154296875
1.4711425781249998
1.4590576171874998
1.561376953125
1.44052734375
1.4107177734374998
1.4518066406249999
1.4800048828124999
1.4518066406249999
1.490478515625
2.9688720703125
2.8335205078124996
2.6417724609374997
2.263916015625
1.864306640625
1.416357421875
0.4084716796875
0.0298095703125
0.02900390625
0.091845703125
0.3391845703125
0.62197265625
0.8580322265625
1.0385009765625
0.7049560546875
0.6614501953124999
0.394775390625
0.2650634765625
0.2038330078125
0.153076171875
0.08056640625
0.02900390625
0.02900390625
0.033032226562499996
0.030615234374999998
0.026586914062499998
0.0298095703125
0.0281982421875
1.6201904296874998
2.4339111328125
2.9753173828125
3.0349365234374996
3.037353515625
3.0349365234374996
3.037353515625
3.0357421875
3.0357421875
3.0357421875
3.0357421875
3.0325195312499997
3.0365478515624997
3.0357421875
3.0349365234374996
3.0397705078125
3.0325195312499997
3.0365478515624997
3.0349365234374996
3.034130859375
3.0357421875
2.4830566406249996
1.4171630859375
0.800830078125
0.38591308593749996
0.03544921875
0.0298095703125
0.02900390625
0.033837890625
0.033032226562499996
0.0281982421875
0.02900390625
0.02900390625
0.02578125
0.0314208984375
0.0298095703125
0.0298095703125
0.0298095703125
0.0298095703125
0.030615234374999998
0.02900390625
0.0298095703125
1.2455566406249998
2.292919921875
2.7134765625
3.034130859375
3.0365478515624997
3.0357421875
3.0365478515624997
3.0357421875
3.0349365234374996
3.037353515625
3.0309082031249996
3.034130859375
3.0357421875
3.0333251953125
3.0301025390625
3.0365478515624997
3.0349365234374996
3.0357421875
3.034130859375
3.0381591796875
3.0349365234374996
2.3839599609374997
1.662890625
1.023193359375
0.3440185546875
0.0298095703125
0.02900390625
0.0298095703125
0.02900390625
0.030615234374999998
0.02900390625
0.02578125
0.02900390625
0.026586914062499998
0.026586914062499998
0.0346435546875
0.026586914062499998
0.02900390625
0.0298095703125
0.02900390625
0.0298095703125
0.02900390625
0.9861328125
1.9223144531249998
2.4532470703125
2.931005859375
3.0333251953125
3.0357421875
3.0349365234374996
3.0365478515624997
3.0349365234374996
3.0365478515624997
3.0349365234374996
3.0389648437499996
3.0349365234374996
2.96484375
2.92939453125
3.037353515625
3.0389648437499996
3.0357421875
3.034130859375
3.0333251953125
3.0381591796875
2.795654296875
2.0576660156249997
1.0892578124999999
0.5865234375
0.185302734375
0.033837890625
0.02578125
0.0281982421875
0.0281982421875
0.0298095703125
0.0298095703125
0.0298095703125
0.0281982421875
0.0298095703125
0.0322265625
0.0346435546875
0.027392578124999997
0.030615234374999998
0.02578125
0.030615234374999998
0.0281982421875
0.0298095703125
1.4268310546874998
2.2969482421875
2.698974609375
2.9447021484375
3.037353515625
3.0333251953125
3.0333251953125
3.0365478515624997
3.0365478515624997
3.0349365234374996
3.0357421875
3.037353515625
3.0075439453125
2.9664550781249996
3.037353515625
3.0357421875
3.0357421875
3.0357421875
3.0365478515624997
3.0349365234374996
3.0357421875
2.1140624999999997
1.3043701171875
0.717041015625
0.165966796875
0.030615234374999998
0.0298095703125
0.02900390625
0.030615234374999998
0.033837890625
0.027392578124999997
0.0298095703125
0.0298095703125
0.0298095703125
0.02578125
0.030615234374999998
0.030615234374999998
0.0298095703125
0.02578125
0.033032226562499996
0.02900390625
0.033032226562499996
1.4115234374999999
2.0616943359374997
2.4766113281249997
2.8447998046875
3.0083496093749997
3.0397705078125
3.034130859375
3.0365478515624997
3.034130859375
3.037353515625
3.0357421875
2.995458984375
2.9664550781249996
2.8874999999999997
3.0389648437499996
3.0325195312499997
3.0325195312499997
3.0349365234374996
3.0357421875
3.0333251953125
3.034130859375
2.32998046875
1.6250244140624999
0.8129150390625
0.34079589843749997
0.02900390625
0.0298095703125
0.0298095703125
0.0281982421875
0.0298095703125
0.027392578124999997
0.026586914062499998
0.0298095703125
0.02900390625
0.030615234374999998
0.0346435546875
0.030615234374999998
0.030615234374999998
0.0298095703125
0.0298095703125
0.027392578124999997
0.0298095703125
1.0570312499999999
1.8949218749999999
2.5491210937499997
2.8375488281249996
3.011572265625
3.034130859375
3.034130859375
3.0365478515624997
3.0357421875
3.0365478515624997
3.0389648437499996
3.0349365234374996
3.005126953125
2.9688720703125
2.900390625
3.0333251953125
3.034130859375
3.034130859375
3.037353515625
3.034130859375
3.0365478515624997
2.8979736328124996
1.7474853515625
1.0530029296874999
0.5663818359375
0.16677246093749998
0.033837890625
0.030615234374999998
0.0281982421875
0.0314208984375
0.0298095703125
0.027392578124999997
0.033032226562499996
0.0298095703125
0.0298095703125
0.0298095703125
0.0298095703125
0.0298095703125
0.0298095703125
0.0346435546875
0.0298095703125
0.0298095703125
0.02900390625
1.71123046875
2.32998046875
2.640966796875
2.8423828125
3.0365478515624997
3.0381591796875
3.0365478515624997
3.037353515625
3.0397705078125
3.0365478515624997
3.0357421875
3.037353515625
3.0244628906249997
2.898779296875
3.0357421875
3.0349365234374996
3.0357421875
3.037353515625
3.0325195312499997
3.0333251953125
2.69736328125
2.0173828124999997
1.2052734375
0.6171386718749999
0.11923828125
0.0298095703125
0.0298095703125
0.0298095703125
0.0322265625
0.02900390625
0.0298095703125
0.0314208984375
0.02900390625
0.0346435546875
0.0298095703125
0.033032226562499996
0.0322265625
0.027392578124999997
0.02900390625
0.027392578124999997
0.033032226562499996
0.02900390625
1.4630859374999998
2.0842529296875
2.4685546874999997
2.7513427734375
2.9608154296875
3.0349365234374996
3.0357421875
3.0349365234374996
3.0357421875
3.029296875
3.0365478515624997
3.034130859375
2.9970703125
2.9527587890625
3.0357421875
3.0357421875
3.0381591796875
3.034130859375
3.0381591796875
3.0357421875
3.0357421875
2.418603515625
1.6693359374999999
0.7307373046875
0.278759765625
0.0322265625
0.02578125
0.030615234374999998
0.02900390625
0.02578125
0.026586914062499998
0.033837890625
0.0298095703125
0.02578125
0.02900390625
0.030615234374999998
0.0314208984375
0.033837890625
0.02900390625
0.0346435546875
0.030615234374999998
0.0314208984375
0.994189453125
1.7152587890625
2.39765625
2.642578125
2.8633300781249997
3.029296875
3.0317138671875
3.0357421875
3.037353515625
3.0349365234374996
3.0325195312499997
3.0349365234374996
3.0059326171875
2.9358398437499997
2.9463134765624996
3.034130859375
3.0357421875
3.0389648437499996
3.0357421875
3.0325195312499997
3.0357421875
2.5531494140624997
1.6765869140624998
0.9949951171875
0.501123046875
0.0298095703125
0.030615234374999998
0.030615234374999998
0.02900390625
0.0281982421875
0.0298095703125
0.02900390625
0.02900390625
0.030615234374999998
0.0298095703125
0.0298095703125
0.0298095703125
0.0298095703125
0.030615234374999998
0.0298095703125
0.0298095703125
0.02900390625
0.8531982421875
1.6443603515624998
2.2276611328125
2.53623046875
2.8576904296874996
3.0268798828124996
3.0381591796875
3.0405761718749997
3.0349365234374996
3.0365478515624997
3.0381591796875
3.037353515625
3.0301025390625
2.9334228515625
2.9044189453125
3.0381591796875
3.0309082031249996
3.0389648437499996
3.037353515625
3.037353515625
3.0349365234374996
2.8077392578125
2.1205078125
1.313232421875
0.5663818359375
0.20625
0.0281982421875
0.030615234374999998
0.030615234374999998
0.0298095703125
0.02900390625
0.0298095703125
0.030615234374999998
0.02900390625
0.0298095703125
0.0322265625
0.0298095703125
0.0298095703125
0.02900390625
0.0298095703125
0.02900390625
0.02900390625
0.0298095703125
1.3994384765624999
2.0810302734375
2.5877929687499996
2.8166015625
3.0091552734375
3.0333251953125
3.034130859375
3.0357421875
3.0349365234374996
3.0365478515624997
3.0357421875
3.037353515625
2.9656494140625
2.889111328125
3.0357421875
3.0333251953125
3.0389648437499996
3.034130859375
3.0349365234374996
3.0349365234374996
3.0365478515624997
2.431494140625
1.316455078125
0.720263671875
0.24089355468749998
0.030615234374999998
0.026586914062499998
0.0314208984375
0.027392578124999997
0.030615234374999998
0.030615234374999998
0.0298095703125
0.0298095703125
0.02900390625
0.0298095703125
0.030615234374999998
0.033032226562499996
0.033032226562499996
0.0298095703125
0.02900390625
0.0281982421875
0.0298095703125
0.8991210937499999
1.9110351562499999
2.31708984375
2.599072265625
2.7819580078125
2.924560546875
3.0010986328125
3.0413818359375
3.0357421875
3.0365478515624997
3.0365478515624997
2.9833740234375
2.9672607421875
2.94873046875
3.0357421875
3.0365478515624997
3.037353515625
3.0365478515624997
3.0357421875
3.034130859375
3.037353515625
2.6111572265625
1.7458740234374999
1.0803955078125
0.423779296875
0.0346435546875
0.02900390625
0.030615234374999998
0.02900390625
0.02900390625
0.0298095703125
0.0298095703125
0.033032226562499996
0.02900390625
0.0298095703125
0.0322265625
0.030615234374999998
0.02900390625
0.0314208984375
0.02900390625
0.0281982421875
0.030615234374999998
0.85400390625
1.606494140625
2.13662109375
2.5048095703124997
2.6764160156249996
2.8093505859374996
3.0301025390625
3.037353515625
3.0357421875
3.0333251953125
3.0317138671875
3.0317138671875
3.0357421875
3.0164062499999997
2.9688720703125
3.0357421875
3.0405761718749997
3.0357421875
3.0381591796875
3.0357421875
3.0405761718749997
2.8560791015625
2.067333984375
1.087646484375
0.4487548828125
0.0926513671875
0.0298095703125
0.0281982421875
0.030615234374999998
0.0281982421875
0.02578125
0.0298095703125
0.0298095703125
0.027392578124999997
0.0281982421875
0.02900390625
0.030615234374999998
0.02900390625
0.0298095703125
0.0298095703125
0.026586914062499998
0.02578125
0.0314208984375
1.7136474609374999
2.29453125
2.5950439453125
2.824658203125
3.034130859375
3.0349365234374996
3.0333251953125
3.0325195312499997
3.0365478515624997
3.034130859375
3.0204345703124997
2.9712890625
2.9422851562499996
2.9495361328125
3.0357421875
3.0357421875
3.0381591796875
3.0325195312499997
3.0349365234374996
3.034130859375
3.0325195312499997
2.099560546875
1.2858398437499998
0.694482421875
0.149853515625
0.02900390625
0.027392578124999997
0.030615234374999998
0.033837890625
0.0298095703125
0.033837890625
0.0298095703125
0.030615234374999998
0.033032226562499996
0.0298095703125
0.02900390625
0.0298095703125
0.0322265625
0.0298095703125
0.0346435546875
0.0298095703125
0.030615234374999998
1.35673828125
2.0536376953124997
2.4194091796875
2.6981689453124997
2.8915283203124997
3.0301025390625
3.034130859375
3.0357421875
3.0381591796875
3.0349365234374996
3.0389648437499996
3.034130859375
3.0188232421874996
2.99384765625
3.0365478515624997
3.0413818359375
3.0357421875
3.0349365234374996
3.037353515625
3.0357421875
3.0365478515624997
2.5152832031249996
1.6556396484375
0.8548095703124999
0.330322265625
0.033837890625
0.02900390625
0.02900390625
0.03544921875
0.02578125
0.0298095703125
0.026586914062499998
0.0346435546875
0.033032226562499996
0.02900390625
0.02578125
0.033837890625
0.0314208984375
0.033032226562499996
0.033837890625
0.0281982421875
0.02900390625
0.8910644531249999
1.5911865234375
2.2268554687499997
2.4919189453125
2.715087890625
2.9600097656249997
3.0333251953125
3.034130859375
3.0357421875
3.0349365234374996
3.0325195312499997
3.034130859375
2.9841796874999997
2.9640380859374997
2.8866943359375
3.0357421875
3.034130859375
3.0365478515624997
3.0357421875
3.0357421875
3.0357421875
2.8093505859374996
1.6669189453125
1.0078857421875
0.41813964843749996
0.041088867187499996
0.0249755859375
0.0322265625
0.0298095703125
0.027392578124999997
0.026586914062499998
0.03544921875
0.030615234374999998
0.0322265625
0.02578125
0.030615234374999998
0.0298095703125
0.0298095703125
0.02900390625
0.02900390625
0.030615234374999998
0.0314208984375
0.8564208984374999
1.6040771484374998
2.11083984375
2.450830078125
2.745703125
2.9334228515625
3.0325195312499997
3.0397705078125
3.034130859375
3.0357421875
3.0405761718749997
3.0244628906249997
3.0139892578125
3.0059326171875
2.9124755859375
3.0405761718749997
3.0349365234374996
3.0333251953125
3.0349365234374996
3.0357421875
3.0309082031249996
2.62646484375
2.0109375
1.16015625
0.4568115234375
0.027392578124999997
0.0314208984375
0.02900390625
0.0298095703125
0.027392578124999997
0.030615234374999998
0.02900390625
0.026586914062499998
0.0314208984375
0.0298095703125
0.0322265625
0.030615234374999998
0.0249755859375
0.033837890625
0.02900390625
0.0314208984375
0.026586914062499998
0.033032226562499996
1.4542236328125
1.9916015624999999
2.4830566406249996
2.747314453125
2.9358398437499997
3.0357421875
3.0381591796875
3.0333251953125
3.0357421875
3.0357421875
3.0317138671875
3.0325195312499997
2.8383544921875
2.9116699218749997
3.0389648437499996
3.034130859375
3.0349365234374996
3.034130859375
3.0325195312499997
3.0357421875
3.0325195312499997
2.4927246093749997
1.3873535156249999
0.77666015625
0.37382812499999996
0.02900390625
0.0298095703125
0.0314208984375
0.02900390625
0.02900390625
0.0281982421875
0.030615234374999998
0.030615234374999998
0.033032226562499996
0.033837890625
0.02578125
0.033032226562499996
0.0281982421875
0.02900390625
0.02900390625
0.0281982421875
0.030615234374999998
0.8950927734374999
1.8578613281249998
2.2856689453125
2.6047119140625
2.848828125
2.989013671875
3.037353515625
3.0357421875
3.0389648437499996
3.0349365234374996
3.0357421875
2.99384765625
3.0325195312499997
2.9994873046875
3.0349365234374996
3.0317138671875
3.0357421875
3.0325195312499997
3.0357421875
3.037353515625
3.0333251953125
2.5152832031249996
1.6532226562499999
0.95390625
0.2441162109375
0.030615234374999998
0.030615234374999998
0.026586914062499998
0.0298095703125
0.02900390625
0.026586914062499998
0.033032226562499996
0.02900390625
0.0298095703125
0.0281982421875
0.02578125
0.030615234374999998
0.030615234374999998
0.030615234374999998
0.02900390625
0.02900390625
0.030615234374999998
0.8660888671875
1.7047851562499998
2.27841796875
2.6764160156249996
2.9140869140624996
2.979345703125
3.034130859375
3.034130859375
3.037353515625
3.0405761718749997
3.0365478515624997
3.034130859375
2.9865966796874996
2.9761230468749997
2.9511474609375
3.0349365234374996
3.0349365234374996
3.0357421875
3.0357421875
3.034130859375
3.0349365234374996
2.824658203125
2.0560546875
1.0376953125
0.5873291015625
0.1506591796875
0.033032226562499996
0.027392578124999997
0.026586914062499998
0.0298095703125
0.026586914062499998
0.0281982421875
0.02578125
0.027392578124999997
0.02900390625
0.0298095703125
0.0314208984375
0.030615234374999998
0.02578125
0.02900390625
0.02900390625
0.033837890625
0.0249755859375
1.300341796875
2.0906982421875
2.44921875
2.7271728515625
2.8834716796874997
3.0252685546875
3.0349365234374996
3.037353515625
3.034130859375
3.0365478515624997
3.0389648437499996
3.0317138671875
2.9737060546875
3.0357421875
3.0357421875
3.0357421875
3.0389648437499996
3.0357421875
3.0349365234374996
3.034130859375
3.0357421875
2.1406494140625
1.3736572265625
0.736376953125
0.1635498046875
0.0298095703125
0.0298095703125
0.0322265625
0.0298095703125
0.02900390625
0.0298095703125
0.02900390625
0.0298095703125
0.02578125
0.0298095703125
0.02900390625
0.030615234374999998
0.0298095703125
0.0298095703125
0.02578125
0.0298095703125
0.027392578124999997
1.2399169921875
1.9029785156249999
2.3307861328125
2.6611083984375
2.8367431640625
3.0156005859375
3.0381591796875
3.0357421875
3.0357421875
3.0357421875
3.034130859375
3.037353515625
3.0317138671875
2.8955566406249997
3.0357421875
3.0357421875
3.0397705078125
3.0381591796875
3.0349365234374996
3.0317138671875
3.0397705078125
2.5370361328124997
1.619384765625
0.7927734375
0.31662597656249997
0.02900390625
0.02900390625
0.02900390625
0.02900390625
0.0298095703125
0.02578125
0.02900390625
0.030615234374999998
0.033837890625
0.0298095703125
0.0281982421875
0.0281982421875
0.030615234374999998
0.030615234374999998
0.0298095703125
0.0298095703125
0.030615234374999998
0.9337646484375
1.6701416015625
2.189794921875
2.5330078124999997
2.753759765625
2.9036132812499997
3.0317138671875
3.0389648437499996
3.0365478515624997
3.0381591796875
3.0349365234374996
3.034130859375
2.9922363281249997
2.9680664062499997
2.8939453124999996
3.0365478515624997
3.0365478515624997
3.034130859375
3.0349365234374996
3.0309082031249996
3.0357421875
2.7005859374999996
1.7128417968749998
0.992578125
0.443115234375
0.033837890625
0.033837890625
0.02900390625
0.0298095703125
0.0314208984375
0.030615234374999998
0.030615234374999998
0.027392578124999997
0.0298095703125
0.02900390625
0.0322265625
0.030615234374999998
0.02900390625
0.0298095703125
0.02578125
0.033837890625
0.027392578124999997
0.033032226562499996
1.5573486328125
2.04638671875
2.399267578125
2.6039062499999996
2.8351318359374997
3.0139892578125
3.0365478515624997
3.0357421875
3.0333251953125
3.0357421875
3.0139892578125
3.0139892578125
3.0002929687499997
2.96484375
3.0325195312499997
3.034130859375
3.0357421875
3.0381591796875
3.0349365234374996
3.0357421875
2.8874999999999997
2.11083984375
1.364794921875
0.7291259765625
0.13212890624999998
0.030615234374999998
0.0298095703125
0.02900390625
0.0322265625
0.02900390625
0.0314208984375
0.0298095703125
0.027392578124999997
0.0298095703125
0.030615234374999998
0.0322265625
0.030615234374999998
0.02900390625
0.0249755859375
0.0281982421875
0.02900390625
0.033032226562499996
1.2109130859375
1.89169921875
2.3243408203125
2.6901123046874997
2.8496337890624996
3.0325195312499997
3.0389648437499996
3.0365478515624997
3.0365478515624997
3.037353515625
3.0349365234374996
3.034130859375
3.0550781249999996
2.9841796874999997
3.0349365234374996
3.0349365234374996
3.0349365234374996
3.0333251953125
3.0317138671875
3.034130859375
3.034130859375
2.5096435546875
1.6781982421875
0.752490234375
0.3037353515625
0.0322265625
0.0298095703125
0.0281982421875
0.0298095703125
0.0281982421875
0.0298095703125
0.02900390625
0.02900390625
0.02900390625
0.033837890625
0.02900390625
0.0281982421875
0.0314208984375
0.033032226562499996
0.0281982421875
0.02900390625
0.02900390625
0.8958984375
1.6121337890624998
2.1470947265625
2.5354248046874996
2.7569824218749996
2.9302001953124996
3.0333251953125
3.0357421875
3.037353515625
3.034130859375
3.0357421875
3.0333251953125
3.0188232421874996
2.9930419921875
2.9390625
3.0333251953125
3.0381591796875
3.0349365234374996
3.0365478515624997
3.034130859375
3.0349365234374996
2.7432861328125
1.6371093749999999
0.9015380859375
0.4487548828125
0.0314208984375
0.02900390625
0.0322265625
0.033032226562499996
0.030615234374999998
0.033837890625
0.0322265625
0.0281982421875
0.0314208984375
0.0298095703125
0.0249755859375
0.027392578124999997
0.0281982421875
0.0298095703125
0.033837890625
0.0298095703125
0.02900390625
0.7661865234374999
1.48564453125
2.0616943359374997
2.3307861328125
2.6135742187499997
2.7779296875
2.9326171875
3.034130859375
3.0317138671875
3.0357421875
3.0309082031249996
3.034130859375
2.9930419921875
2.9382568359374996
2.8447998046875
3.034130859375
3.034130859375
3.0333251953125
3.0301025390625
3.0325195312499997
3.0349365234374996
3.029296875
2.1116455078125
1.3583496093749998
0.572021484375
0.13212890624999998
0.02900390625
0.0249755859375
0.0298095703125
0.026586914062499998
0.026586914062499998
0.02900390625
0.0298095703125
0.0298095703125
0.02578125
0.0322265625
0.0322265625
0.02900390625
0.02900390625
0.02578125
0.027392578124999997
0.0322265625
0.0249755859375
1.3833251953124999
2.0012695312499997
2.4822509765625
2.8061279296875
2.95517578125
3.0325195312499997
3.034130859375
3.0365478515624997
3.034130859375
3.0381591796875
3.034130859375
3.0325195312499997
2.95517578125
2.9334228515625
3.0349365234374996
3.0357421875
3.034130859375
3.0365478515624997
3.037353515625
3.0317138671875
3.034130859375
2.410546875
1.2947021484374999
0.684814453125
0.2811767578125
0.02578125
0.02578125
0.0298095703125
0.0298095703125
0.0298095703125
0.02578125
0.030615234374999998
0.0298095703125
0.030615234374999998
0.0322265625
0.02900390625
0.026586914062499998
0.0298095703125
0.0322265625
0.0281982421875
0.0298095703125
0.0298095703125
1.3172607421875
1.9303710937499998
2.34609375
2.7481201171875
2.872998046875
3.029296875
3.037353515625
3.0325195312499997
3.037353515625
2.9906249999999996
3.0397705078125
3.0357421875
2.9785400390624996
2.8963623046875
3.0333251953125
3.034130859375
3.037353515625
3.0349365234374996
3.0349365234374996
3.0349365234374996
3.034130859375
2.4661376953125
1.65
0.9450439453124999
0.2972900390625
0.027392578124999997
0.027392578124999997
0.0298095703125
0.02578125
0.026586914062499998
0.02578125
0.0281982421875
0.0298095703125
0.033032226562499996
0.027392578124999997
0.02578125
0.0322265625
0.02578125
0.033032226562499996
0.0298095703125
0.0298095703125
0.0281982421875
0.8588378906249999
1.5396240234374998
2.0375244140624997
2.5209228515624997
2.7408691406249996
2.8850830078125
3.034130859375
3.0381591796875
3.0357421875
3.0389648437499996
3.0357421875
3.0389648437499996
3.034130859375
3.011572265625
2.96162109375
3.0317138671875
3.0333251953125
3.0309082031249996
3.0349365234374996
3.0349365234374996
3.0349365234374996
2.81982421875
1.9948242187499998
1.0368896484374999
0.5244873046874999
0.11037597656249999
0.0314208984375
0.027392578124999997
0.030615234374999998
0.02900390625
0.0298095703125
0.02900390625
0.033837890625
0.02578125
0.02900390625
0.033837890625
0.033032226562499996
0.030615234374999998
0.0314208984375
0.0298095703125
0.030615234374999998
0.0314208984375
0.0281982421875
1.5235107421874998
2.281640625
2.6683593749999996
2.8754150390624997
3.0357421875
3.0349365234374996
3.0389648437499996
3.0381591796875
3.0357421875
3.0333251953125
3.0075439453125
2.972900390625
2.8713867187499997
2.8335205078124996
3.0357421875
3.0357421875
3.0357421875
3.0357421875
3.034130859375
3.0349365234374996
3.0357421875
2.147900390625
1.3929931640625
0.8048583984375
0.2795654296875
0.02900390625
0.030615234374999998
0.026586914062499998
0.0314208984375
0.02900390625
0.02578125
0.0298095703125
0.030615234374999998
0.0314208984375
0.033032226562499996
0.02900390625
3.0349365234374996
3.0357421875
3.034130859375
3.0357421875
3.0357421875
3.0357421875
3.0349365234374996
3.0357421875
3.0389648437499996
3.0357421875
3.0349365234374996
3.037353515625
3.034130859375
3.0357421875
3.0349365234374996
3.0357421875
3.0365478515624997
3.0325195312499997
3.0357421875
3.037353515625
3.0349365234374996
3.0365478515624997
3.0325195312499997
2.76826171875
2.3033935546874997
1.8216064453124998
1.1222900390625
0.356103515625
0.0281982421875
0.1893310546875
0.43425292968749996
0.6614501953124999
0.7154296874999999
0.837890625
0.8644775390624999
0.871728515625
0.8854248046875
0.9321533203125
0.9240966796875
0.968408203125
0.97646484375
0.17724609375
0.030615234374999998
0.5043457031249999
0.6840087890625
0.8451416015625
1.1456542968749999
1.364794921875
2.2187988281249997
2.2107421874999997
1.7579589843749999
1.4687255859375
1.2592529296875
1.1126220703125
1.174658203125
1.1802978515625
1.1980224609374999
1.148876953125
1.1351806640625
1.1456542968749999
1.174658203125
1.1609619140625
1.2101074218749999
2.0633056640625
1.722509765625
1.5283447265624999
1.393798828125
1.1980224609374999
1.0868408203125
0.7557128906249999
0.45761718749999997
0.594580078125
0.8201660156249999
0.9990234375
1.1416259765624999
1.1690185546875
1.2350830078125
1.3599609375
1.3591552734374999
1.3623779296874998
1.3575439453125
1.3664062499999998
1.3591552734374999
1.3881591796875
0.47373046874999997
0.9208740234374999
1.123095703125
1.3237060546875
1.4816162109375
1.571044921875
2.1438720703125
2.3630126953125
2.0842529296875
1.8087158203125
1.6314697265625
1.513037109375
1.4848388671875
1.5243164062499999
1.5718505859374998
1.496923828125
1.49853515625
1.4655029296875
1.47275390625
1.4800048828124999
1.40185546875
2.257470703125
1.977099609375
1.7595703125
1.6717529296875
1.5517089843749998
1.429248046875
1.0046630859374999
0.87333984375
0.8338623046875
1.0223876953125
1.1448486328125
1.2511962890625
1.3446533203125
1.4171630859375
1.45341796875
1.4888671875
1.509814453125
1.5243164062499999
1.5218994140625
1.5573486328125
1.5444580078124999
0.6751464843749999
1.1351806640625
1.2914794921875
1.405078125
1.5380126953125
1.609716796875
2.115673828125
2.3879882812499997
2.0842529296875
1.8240234375
1.6886718749999998
1.577490234375
1.5726562499999999
1.5766845703124999
1.56298828125
1.51787109375
1.5355957031249998
1.51787109375
1.5251220703125
1.4767822265625
1.4687255859375
2.2510253906249997
1.98193359375
1.76279296875
1.7007568359374998
1.5218994140625
1.4389160156249998
1.2568359375
0.9385986328125
0.9321533203125
1.15693359375
1.26328125
1.3704345703124998
1.4058837890625
1.461474609375
1.50498046875
1.48564453125
1.5879638671874998
1.5396240234374998
1.5565429687499999
1.5573486328125
1.525927734375
0.7500732421874999
1.0175537109375
1.2890625
1.4034667968749999
1.542041015625
1.62744140625
1.9545410156249998
2.37509765625
2.151123046875
1.899755859375
1.6822265625
1.6725585937499998
1.638720703125
1.6363037109374998
1.6322753906249998
1.5927978515624999
1.5170654296875
1.50498046875
1.4840332031249999
1.5186767578125
1.545263671875
1.9102294921874998
2.11083984375
1.7732666015624998
1.71123046875
1.5992431640625
1.4598632812499999
1.268115234375
1.071533203125
0.97001953125
1.1287353515625
1.2511962890625
1.3543212890624998
1.4300537109375
1.448583984375
1.4832275390624998
1.53076171875
1.5315673828124998
1.529150390625
1.5476806640624998
1.5758789062499998
1.525927734375
1.1464599609375
1.0336669921875
1.3124267578125
1.384130859375
1.5299560546875
1.6451660156249999
1.754736328125
2.3227294921875
2.1068115234375
1.8788085937499999
1.716064453125
1.6201904296874998
1.5557373046874998
1.6121337890624998
1.6040771484374998
1.5702392578125
1.538818359375
1.52109375
1.493701171875
1.5073974609374998
1.5001464843749999
1.7466796875
2.1309814453125
1.8280517578125
1.69833984375
1.5984375
1.525927734375
1.40830078125
1.1134277343749999
1.0401123046875
1.1077880859375
1.2769775390625
1.364794921875
1.3744628906249998
1.4171630859375
1.4864501953125
1.5323730468749999
1.5106201171875
1.5734619140625
1.5766845703124999
1.5734619140625
1.5807128906249999
1.3333740234375
0.8822021484375
1.2745605468749999
1.364794921875
1.4655029296875
1.558154296875
1.714453125
2.27841796875
2.128564453125
1.8683349609375
1.7176757812499999
1.6459716796875
1.585546875
1.5734619140625
1.6121337890624998
1.6161621093749998
1.542041015625
1.5202880859374999
1.574267578125
1.545263671875
1.5412353515625
1.5283447265624999
2.2067138671874997
1.8240234375
1.7039794921875
1.6540283203125
1.5283447265624999
1.4437499999999999
1.15048828125
1.0368896484374999
1.0981201171875
1.2705322265624999
1.3349853515624999
1.4115234374999999
1.4284423828125
1.4832275390624998
1.477587890625
1.5138427734375
1.5202880859374999
1.571044921875
1.5589599609375
1.5702392578125
1.5702392578125
0.8507812499999999
1.2310546875
1.393798828125
1.46953125
1.58232421875
1.6459716796875
2.1704589843749997
2.2171875
1.9795166015624999
1.783740234375
1.6653076171874999
1.6040771484374998
1.585546875
1.6129394531249999
1.6072998046875
1.561376953125
1.5202880859374999
1.5194824218749998
1.533984375
1.5267333984375
1.5428466796875
2.196240234375
1.94970703125
1.7370117187499998
1.654833984375
1.5718505859374998
1.4477783203124999
1.164990234375
1.0409179687499999
1.0513916015625
1.2858398437499998
1.351904296875
1.3825195312499998
1.4066894531249998
1.4896728515625
1.5267333984375
1.533984375
1.538818359375
1.5492919921875
1.529150390625
1.5517089843749998
1.5758789062499998
0.871728515625
1.1537109374999999
1.368017578125
1.448583984375
1.5758789062499998
1.6508056640625
1.7926025390625
2.30419921875
1.9972412109375
1.8014648437499998
1.7015624999999999
1.5702392578125
1.585546875
1.5919921874999998
1.5879638671874998
1.5654052734375
1.5484863281249999
1.53720703125
1.5621826171875
1.5734619140625
1.5082031249999999
2.0858642578124997
1.9948242187499998
1.7571533203124998
1.6636962890625
1.5839355468749998
1.4880615234374999
1.3849365234375
1.12470703125
1.0948974609375
1.1964111328125
1.353515625
1.4115234374999999
1.4026611328124998
1.46630859375
1.4735595703125
1.490478515625
1.545263671875
1.546875
1.5565429687499999
1.5557373046874998
1.5396240234374998
0.913623046875
1.058642578125
1.3913818359374999
1.46953125
1.5380126953125
1.6403320312499998
1.848193359375
2.2244384765625
2.0520263671875
1.791796875
1.7088134765624998
1.6427490234375
1.5565429687499999
1.5678222656249998
1.611328125
1.574267578125
1.50498046875
1.5404296874999999
1.53720703125
1.525927734375
1.546875
1.62744140625
2.0004638671875
1.770849609375
1.6935058593749999
1.658056640625
1.4759765624999999
1.405078125
1.16015625
1.095703125
1.17626953125
1.2882568359375
1.4074951171874999
1.4356933593749999
1.4630859374999998
1.496923828125
1.4679199218749999
1.5589599609375
1.5557373046874998
1.546875
1.529150390625
1.5404296874999999
1.0014404296875
0.9821044921875
1.3631835937499999
1.3994384765624999
1.5597656249999998
1.622607421875
1.6612792968749999
2.2751953124999997
2.03671875
1.9037841796875
1.7176757812499999
1.6564453124999998
1.603271484375
1.587158203125
1.6161621093749998
1.59521484375
1.554931640625
1.5380126953125
1.5347900390625
1.5073974609374998
1.5170654296875
1.56943359375
2.151123046875
1.783740234375
1.6701416015625
1.6250244140624999
1.5404296874999999
1.37607421875
1.1698242187499999
1.0723388671875
1.1400146484375
1.303564453125
1.3905761718749998
1.4373046875
1.4767822265625
1.4993408203124998
1.4945068359375
1.5315673828124998
1.5428466796875
1.5484863281249999
1.5517089843749998
1.5460693359375
1.53720703125
0.8660888671875
1.2705322265624999
1.3857421875
1.44052734375
1.6072998046875
1.7152587890625
2.118896484375
2.1277587890625
1.9150634765624999
1.73056640625
1.6459716796875
1.609716796875
1.5782958984375
1.585546875
1.5839355468749998
1.5799072265624998
1.5412353515625
1.53076171875
1.5235107421874998
1.571044921875
1.5001464843749999
2.14951171875
1.8457763671874998
1.6886718749999998
1.619384765625
1.5533203125
1.464697265625
1.1367919921875
1.0731445312499999
1.116650390625
1.268115234375
1.3543212890624998
1.3929931640625
1.4510009765624998
1.4961181640624999
1.474365234375
1.5114257812499998
1.5573486328125
1.5218994140625
1.5541259765625
1.5807128906249999
1.5323730468749999
0.8548095703124999
1.2101074218749999
1.4123291015625
1.4477783203124999
1.561376953125
1.667724609375
2.1390380859375
2.2026855468749997
1.964208984375
1.7378173828124999
1.667724609375
1.622607421875
1.5831298828125
1.6282470703124998
1.5758789062499998
1.5355957031249998
1.5315673828124998
1.5380126953125
1.5106201171875
1.5243164062499999
1.5267333984375
2.03671875
1.8900878906249998
1.7208984374999998
1.64677734375
1.5283447265624999
1.4791992187499998
1.2576416015624998
1.1287353515625
1.1295410156249999
1.248779296875
1.3261230468749998
1.405078125
1.4252197265625
1.4574462890625
1.474365234375
1.5283447265624999
1.561376953125
1.5444580078124999
1.5637939453124998
1.5678222656249998
1.5428466796875
0.8483642578124999
1.1738525390624999
1.3849365234375
1.42119140625
1.5275390624999998
1.638720703125
1.7531249999999998
2.241357421875
2.05927734375
1.8425537109374999
1.740234375
1.6234130859375
1.5879638671874998
1.611328125
1.6081054687499998
1.5847412109374999
1.542041015625
1.5533203125
1.5428466796875
1.5073974609374998
1.4953124999999998
1.91748046875
1.977099609375
1.7362060546875
1.6806152343749998
1.5605712890624999
1.46630859375
1.2955078125
1.1512939453125
1.0852294921874999
1.229443359375
1.316455078125
1.3599609375
1.426025390625
1.4896728515625
1.5162597656249999
1.5243164062499999
1.545263671875
1.533984375
1.5412353515625
1.5533203125
1.571044921875
1.0900634765625
1.11181640625
1.3551269531249999
1.4155517578124999
1.4977294921875
1.622607421875
1.7152587890625
2.2389404296874997
2.0407470703125
1.84013671875
1.7233154296875
1.6218017578125
1.6201904296874998
1.6129394531249999
1.6056884765625
1.5662109375
1.5557373046874998
1.5645996093749999
1.533984375
1.53076171875
1.5162597656249999
1.85302734375
