1.5645996093749999
1.5243164062499999
2.20751953125
2.0471923828125
1.8377197265624998
1.7458740234374999
1.6491943359374999
1.5404296874999999
1.2955078125
1.052197265625
1.003857421875
1.044140625
1.2205810546875
1.3180664062499998
1.3156494140625
1.3962158203125
1.4348876953124998
1.4840332031249999
1.5073974609374998
1.5460693359375
1.5484863281249999
1.533984375
1.5275390624999998
0.7903564453124999
0.9796874999999999
1.2342773437499999
1.332568359375
1.4993408203124998
1.5992431640625
1.977099609375
2.30419921875
2.157568359375
1.9625976562499998
1.7660156249999999
1.6830322265625
1.6781982421875
1.674169921875
1.66611328125
1.6363037109374998
1.5476806640624998
1.5621826171875
1.5517089843749998
1.5275390624999998
1.5170654296875
1.9142578124999998
2.1333984375
1.8884765625
1.7942138671874999
1.654833984375
1.5114257812499998
1.2938964843749998
1.13115234375
0.9974121093749999
1.0852294921874999
1.1915771484375
1.276171875
1.3285400390625
1.3849365234375
1.4074951171874999
1.4928955078125
1.5428466796875
1.5347900390625
1.5082031249999999
1.5170654296875
1.5315673828124998
1.0723388671875
1.0481689453125
1.213330078125
1.29228515625
1.4171630859375
1.561376953125
1.7047851562499998
2.3638183593749997
2.1720703125
1.9754882812499999
1.8264404296874999
1.7080078125
1.66611328125
1.641943359375
1.641943359375
1.6266357421875
1.571044921875
1.5533203125
1.558154296875
1.5436523437499998
1.5331787109375
1.819189453125
2.1591796875
1.9086181640625
1.7619873046874999
1.699951171875
1.5557373046874998
1.4244140625
1.158544921875
0.9893554687499999
1.0449462890624999
1.1980224609374999
1.2769775390625
1.3237060546875
1.4219970703125
1.4147460937499998
1.4606689453125
1.4872558593749998
1.5525146484374999
1.5355957031249998
1.5428466796875
1.5436523437499998
1.158544921875
0.8266113281249999
1.1657958984374999
1.2665039062499999
1.3913818359374999
1.5146484375
1.674169921875
2.32998046875
2.2389404296874997
1.980322265625
1.8312744140625
1.740234375
1.6524169921874998
1.6749755859375
1.6209960937499999
1.61455078125
1.5670166015625
1.545263671875
1.5645996093749999
1.5662109375
1.5235107421874998
1.554931640625
2.196240234375
1.9384277343749998
1.832080078125
1.7934082031249998
1.5960205078124998
1.4469726562499998
1.2093017578125
0.9998291015624999
1.029638671875
1.11181640625
1.2576416015624998
1.348681640625
1.3656005859375
1.384130859375
1.4244140625
1.4751708984374998
1.4767822265625
1.5114257812499998
1.5041748046874999
1.5541259765625
1.5621826171875
0.8419189453125
1.142431640625
1.329345703125
1.4010498046875
1.5025634765625
1.6129394531249999
2.2510253906249997
2.2373291015625
2.0407470703125
1.912646484375
1.7450683593749998
1.7039794921875
1.6572509765624999
1.609716796875
1.6250244140624999
1.5960205078124998
1.58232421875
1.5525146484374999
1.5565429687499999
1.5436523437499998
1.5734619140625
2.215576171875
1.9972412109375
1.799853515625
1.7208984374999998
1.6250244140624999
1.5082031249999999
1.2423339843749999
1.0513916015625
0.9853271484374999
1.1408203125
1.2302490234374999
1.3075927734375
1.31162109375
1.4187744140624998
1.4316650390624999
1.509814453125
1.5565429687499999
1.5146484375
1.5162597656249999
1.5525146484374999
1.545263671875
0.765380859375
1.110205078125
1.2769775390625
1.335791015625
1.45341796875
1.6129394531249999
2.0552490234375
2.3033935546874997
2.080224609375
1.8820312499999998
1.780517578125
1.6781982421875
1.6669189453125
1.6491943359374999
1.6169677734374999
1.5927978515624999
1.5815185546875
1.5492919921875
1.5589599609375
1.545263671875
1.5476806640624998
2.241357421875
2.0165771484375
1.8248291015625
1.786962890625
1.6701416015625
1.529150390625
1.3067871093749999
1.03125
0.9990234375
1.100537109375
1.2447509765625
1.3148437499999999
1.345458984375
1.3792968749999999
1.4469726562499998
1.5154541015624998
1.525927734375
1.5122314453124999
1.5186767578125
1.5267333984375
1.546875
0.8129150390625
0.9982177734375
1.213330078125
1.3422363281249998
1.4783935546875
1.558154296875
2.0625
2.3138671875
2.1591796875
1.95615234375
1.7764892578125
1.683837890625
1.6669189453125
1.641943359375
1.65
1.6330810546874999
1.5662109375
1.56298828125
1.5525146484374999
1.5404296874999999
1.4912841796874998
1.9190917968749999
2.1841552734375
1.8763916015625
1.819189453125
1.706396484375
1.4920898437499999
1.3027587890624999
1.0892578124999999
0.9812988281249999
1.0828125
1.219775390625
1.2938964843749998
1.3623779296874998
1.4091064453125
1.40185546875
1.445361328125
1.5041748046874999
1.48564453125
1.490478515625
1.5412353515625
1.533984375
1.094091796875
0.9772705078124999
1.2157470703125
1.3083984375
1.4928955078125
1.5847412109374999
1.6927001953124998
2.2405517578125
2.1591796875
1.9271484374999999
1.8216064453124998
1.69833984375
1.6878662109375
1.6636962890625
1.641943359375
1.6451660156249999
1.609716796875
1.5887695312499999
1.558154296875
1.5541259765625
1.561376953125
1.8465820312499999
2.1503173828124997
1.8941162109374998
1.732177734375
1.6612792968749999
1.6056884765625
1.4477783203124999
1.1625732421875
1.023193359375
1.095703125
1.2093017578125
1.2914794921875
1.3365966796875
1.377685546875
1.3994384765624999
1.4679199218749999
1.490478515625
1.4977294921875
1.522705078125
1.5251220703125
1.5412353515625
1.16337890625
0.8668945312499999
1.1915771484375
1.2979248046874998
1.4010498046875
1.5275390624999998
1.6645019531249998
2.286474609375
2.2534423828125
1.973876953125
1.8489990234375
1.7128417968749998
1.6379150390625
1.6290527343749999
1.6636962890625
1.6781982421875
1.6072998046875
1.5525146484374999
1.561376953125
1.5734619140625
1.5621826171875
1.5275390624999998
2.1632080078125
1.9360107421875
1.8111328125
1.7329833984374998
1.5484863281249999
1.4300537109375
1.11181640625
1.00224609375
1.044140625
1.1923828125
1.2930908203125
1.3390136718749999
1.3736572265625
1.393798828125
1.474365234375
1.4800048828124999
1.522705078125
1.4977294921875
1.482421875
1.5404296874999999
1.2286376953125
0.816943359375
1.16337890625
1.2777832031249998
1.3792968749999999
1.4719482421874999
1.59521484375
2.2727783203125
2.24619140625
2.080224609375
1.82080078125
1.7418457031249999
1.6725585937499998
1.6588623046875
1.6540283203125
1.6282470703124998
1.5831298828125
1.5460693359375
1.5702392578125
1.546875
1.5621826171875
1.506591796875
2.2002685546875
2.0093261718749997
1.8312744140625
1.7877685546875
1.667724609375
1.496923828125
1.1319580078125
1.0368896484374999
1.018359375
1.164990234375
1.2310546875
1.3124267578125
1.3502929687499998
1.4268310546874998
1.4058837890625
1.5106201171875
1.5517089843749998
1.5009521484375
1.50498046875
1.5347900390625
1.5009521484375
0.768603515625
1.1375976562499999
1.3059814453124998
1.361572265625
1.4912841796874998
1.6056884765625
1.9674316406249999
2.25263671875
2.0737792968749997
1.893310546875
1.7611816406249998
1.67578125
1.6886718749999998
1.6653076171874999
1.67900390625
1.6201904296874998
1.611328125
1.5662109375
1.5444580078124999
1.5122314453124999
1.53076171875
2.2244384765625
2.031884765625
1.844970703125
1.7378173828124999
1.6379150390625
1.5267333984375
1.200439453125
0.9998291015624999
0.9716308593749999
1.1013427734374999
1.264892578125
1.3212890625
1.33740234375
1.4091064453125
1.4316650390624999
1.4558349609374999
1.513037109375
1.55009765625
1.56298828125
1.542041015625
1.5364013671874999
0.8419189453125
1.029638671875
1.2673095703125
1.3172607421875
1.4373046875
1.5347900390625
1.9553466796874999
2.3033935546874997
2.1519287109375
1.8812255859375
1.7611816406249998
1.6951171875
1.6266357421875
1.6459716796875
1.6483886718749998
1.6379150390625
1.5968261718749999
1.6056884765625
1.56943359375
1.5404296874999999
1.4928955078125
1.909423828125
2.028662109375
1.8393310546875
1.7772949218749998
1.6379150390625
1.5476806640624998
1.3849365234375
1.1351806640625
1.02158203125
1.0965087890625
1.206884765625
1.3108154296874999
1.3075927734375
1.3905761718749998
1.4574462890625
1.4445556640625
1.5218994140625
1.542041015625
1.5637939453124998
1.5315673828124998
1.554931640625
0.807275390625
0.9893554687499999
1.248779296875
1.3180664062499998
1.4244140625
1.5605712890624999
1.6822265625
2.3050048828125
2.1728759765625
1.9795166015624999
1.7571533203124998
1.662890625
1.6773925781249999
1.6564453124999998
1.65
1.58232421875
1.5662109375
1.5509033203125
1.5992431640625
1.558154296875
1.529150390625
1.8385253906249999
2.1470947265625
1.8635009765625
1.7797119140625
1.7080078125
1.585546875
1.3744628906249998
1.1456542968749999
0.9837158203124999
1.0916748046875
1.19560546875
1.287451171875
1.3398193359375
1.384130859375
1.4155517578124999
1.4638916015624999
1.4864501953125
1.5355957031249998
1.533984375
1.5541259765625
1.5597656249999998
1.1802978515625
0.9958007812499999
1.2254150390625
1.2866455078124999
1.3728515625
1.5194824218749998
1.6564453124999998
2.2067138671874997
2.16884765625
1.9795166015624999
1.864306640625
1.7080078125
1.683837890625
1.667724609375
1.6653076171874999
1.6346923828125
1.6250244140624999
1.6105224609375
1.5807128906249999
1.5090087890625
1.5243164062499999
1.5114257812499998
2.167236328125
1.9102294921874998
1.7700439453124999
1.716064453125
1.5750732421875
1.4510009765624998
1.1456542968749999
1.0127197265624999
1.077978515625
1.1899658203124999
1.2834228515625
1.3551269531249999
1.393798828125
1.4501953125
1.46953125
1.47275390625
1.5106201171875
1.51787109375
1.5315673828124998
1.5404296874999999
1.2745605468749999
0.8032470703125
1.14404296875
1.2818115234374998
1.3833251953124999
1.5073974609374998
1.6814208984374999
2.2453857421875
2.244580078125
2.02705078125
1.8280517578125
1.7660156249999999
1.6798095703125
1.6701416015625
1.62744140625
1.6620849609375
1.5718505859374998
1.55009765625
1.558154296875
1.5460693359375
1.506591796875
1.525927734375
2.2324951171875
1.9376220703125
1.8369140625
1.754736328125
1.5944091796875
1.4671142578124998
1.1464599609375
1.0167480468749999
1.044140625
1.171435546875
1.26005859375
1.3656005859375
1.3672119140624999
1.3962158203125
1.4332763671875
1.4429443359374998
1.506591796875
1.533984375
1.546875
1.5355957031249998
1.5444580078124999
0.8113037109375
1.1593505859375
1.2608642578125
1.37607421875
1.5017578125
1.590380859375
2.031884765625
2.225244140625
2.0439697265625
1.851416015625
1.74345703125
1.66611328125
1.69189453125
1.662890625
1.6475830078125
1.5831298828125
1.571044921875
1.5621826171875
1.5565429687499999
1.546875
1.5404296874999999
2.2292724609375
2.0326904296875
1.8328857421875
1.72734375
1.6322753906249998
1.5863525390625
1.1496826171874999
1.0634765625
1.02802734375
1.1464599609375
1.229443359375
1.31162109375
1.38896484375
1.4139404296875
1.4348876953124998
1.4751708984374998
1.5275390624999998
1.5235107421874998
1.5146484375
1.5396240234374998
1.5202880859374999
0.8290283203125
1.11826171875
1.2834228515625
1.3220947265624998
1.4510009765624998
1.5992431640625
1.85625
2.27197265625
2.086669921875
1.9303710937499998
1.7926025390625
1.7184814453125
1.6822265625
1.6508056640625
1.6572509765624999
1.5984375
1.5637939453124998
1.56298828125
1.5122314453124999
1.5541259765625
1.5364013671874999
2.1728759765625
2.0149658203125
1.8473876953125
1.7861572265624999
1.6363037109374998
1.5122314453124999
1.3317626953125
1.077978515625
1.0111083984375
1.15048828125
1.248779296875
1.335791015625
1.3446533203125
1.397021484375
1.4493896484375
1.4687255859375
1.5138427734375
1.5364013671874999
1.545263671875
1.5492919921875
1.5380126953125
0.800830078125
0.9676025390624999
1.2302490234374999
1.3269287109374999
1.4244140625
1.55009765625
1.964208984375
2.3017822265625
2.204296875
1.9295654296875
1.748291015625
1.6951171875
1.641943359375
1.65
1.6177734375
1.609716796875
1.5637939453124998
1.56943359375
1.5807128906249999
1.5645996093749999
1.5484863281249999
1.8199951171875
2.131787109375
1.8336914062499998
1.7974365234374998
1.6806152343749998
1.5396240234374998
1.3631835937499999
1.1625732421875
1.0143310546875
1.1029541015625
1.20849609375
1.281005859375
1.3317626953125
1.4066894531249998
1.4356933593749999
1.4558349609374999
1.546875
1.5323730468749999
1.5331787109375
1.5428466796875
1.5267333984375
1.1537109374999999
0.9466552734375
1.224609375
1.3253173828125
1.4510009765624998
1.5492919921875
1.6814208984374999
2.2751953124999997
2.1551513671875
1.9940185546875
1.8361083984375
1.719287109375
1.6540283203125
1.6532226562499999
1.6081054687499998
1.577490234375
1.5589599609375
1.538818359375
1.55009765625
1.56943359375
1.5597656249999998
1.80791015625
2.1946289062499997
1.9529296875
1.7901855468749999
1.7015624999999999
1.5662109375
1.3639892578125
1.1456542968749999
0.9877441406249999
1.0755615234375
1.2028564453125
1.2955078125
1.3365966796875
1.3954101562499999
1.4413330078125
1.4832275390624998
1.5106201171875
1.5090087890625
1.5218994140625
1.5533203125
1.558154296875
1.2769775390625
0.8225830078124999
1.2052734375
1.2930908203125
1.3921875
1.5791015625
1.6371093749999999
2.1664306640624997
2.24619140625
1.9972412109375
1.82724609375
1.7410400390624998
1.6371093749999999
1.6290527343749999
1.651611328125
1.6048828124999999
1.5702392578125
1.5436523437499998
1.5670166015625
1.5525146484374999
1.5557373046874998
1.5670166015625
2.22041015625
1.9271484374999999
1.80791015625
1.690283203125
1.5911865234375
1.4655029296875
1.152099609375
1.039306640625
1.0771728515624999
1.147265625
1.2697265624999998
1.3341796874999998
1.3591552734374999
1.4147460937499998
1.4526123046875
1.4920898437499999
1.525927734375
1.513037109375
1.5041748046874999
1.490478515625
1.3664062499999998
0.8193603515625
1.1561279296875
1.2721435546875
1.426025390625
1.4719482421874999
1.5895751953125
2.2107421874999997
2.2429687499999997
2.08505859375
1.803076171875
1.7200927734375
1.6645019531249998
1.6725585937499998
1.6161621093749998
1.6814208984374999
1.5992431640625
1.5605712890624999
1.5323730468749999
1.5412353515625
1.5364013671874999
1.51787109375
2.22041015625
1.960986328125
1.8224121093749999
1.7716552734375
1.667724609375
1.4638916015624999
1.173046875
1.0530029296874999
1.0409179687499999
1.15693359375
1.255224609375
1.329345703125
1.2947021484374999
1.3962158203125
1.4598632812499999
1.4622802734375
1.5275390624999998
1.5444580078124999
1.5436523437499998
1.56298828125
1.513037109375
0.8104980468749999
1.132763671875
1.2745605468749999
1.3285400390625
1.4945068359375
1.5782958984375
1.9432617187499999
2.2623046875
2.0858642578124997
1.883642578125
1.7466796875
1.6773925781249999
1.654833984375
1.6137451171875
1.6645019531249998
1.6153564453125
1.5807128906249999
1.5517089843749998
1.5589599609375
1.5815185546875
1.52109375
2.14306640625
2.04638671875
1.8465820312499999
1.7539306640624999
1.6290527343749999
1.5404296874999999
1.216552734375
1.0675048828125
1.029638671875
1.1609619140625
1.22783203125
1.300341796875
1.3341796874999998
1.413134765625
1.4308593749999998
1.4477783203124999
1.513037109375
1.4920898437499999
1.5484863281249999
1.5436523437499998
1.5347900390625
0.8225830078124999
1.0062744140625
1.271337890625
1.3220947265624998
1.456640625
1.585546875
1.7845458984375
2.26875
2.147900390625
1.95615234375
1.79501953125
1.7257324218749999
1.6878662109375
1.662890625
1.651611328125
1.6040771484374998
1.5670166015625
1.5218994140625
1.5396240234374998
1.571044921875
1.561376953125
1.8256347656249998
2.054443359375
1.8071044921875
1.783740234375
1.6451660156249999
1.5541259765625
1.368017578125
1.152099609375
1.0207763671874999
1.1045654296875
1.203662109375
1.3124267578125
1.3591552734374999
1.40185546875
1.4115234374999999
1.442138671875
1.5202880859374999
1.5484863281249999
1.5283447265624999
1.5645996093749999
1.5323730468749999
0.8467529296874999
0.9708251953125
1.2262207031249999
1.3059814453124998
1.4493896484375
1.56943359375
1.6854492187499999
2.302587890625
2.1712646484375
1.9948242187499998
1.7700439453124999
1.6653076171874999
1.6314697265625
1.6290527343749999
1.6733642578124999
1.62744140625
1.5847412109374999
1.5573486328125
1.5355957031249998
1.5428466796875
1.538818359375
1.7652099609374998
2.1704589843749997
1.8457763671874998
1.7611816406249998
1.7072021484375
1.5911865234375
1.4228027343749998
1.1529052734375
1.007080078125
1.071533203125
1.1778808593749999
1.2955078125
1.3502929687499998
1.3986328124999998
1.42119140625
1.4800048828124999
1.5025634765625
1.4816162109375
1.542041015625
1.5323730468749999
1.5436523437499998
1.2850341796875
0.9531005859374999
1.2503906249999999
1.3333740234375
1.3946044921874998
1.554931640625
1.6604736328124998
2.2308837890624997
2.15595703125
1.980322265625
1.8183837890624999
1.6951171875
1.65
1.6612792968749999
1.6081054687499998
1.6040771484374998
1.590380859375
1.561376953125
1.5718505859374998
1.5412353515625
1.5138427734375
1.6645019531249998
2.1720703125
1.94970703125
1.8071044921875
1.7120361328125
1.59521484375
1.4816162109375
1.16015625
0.984521484375
1.029638671875
1.198828125
1.284228515625
1.3446533203125
1.36962890625
1.4397216796874999
1.4888671875
1.50498046875
1.5146484375
1.509814453125
1.533984375
1.5509033203125
1.3253173828125
0.80888671875
1.15693359375
1.2850341796875
1.3672119140624999
1.4977294921875
1.6886718749999998
2.16884765625
2.2550537109374997
1.9924072265625
1.85625
1.740234375
1.667724609375
1.651611328125
1.6636962890625
1.6532226562499999
1.5799072265624998
1.53720703125
1.5412353515625
1.545263671875
1.5194824218749998
1.538818359375
2.19140625
1.9714599609374999
1.8344970703124999
1.7829345703125
1.5654052734375
1.4606689453125
1.173046875
1.0385009765625
1.087646484375
1.1512939453125
1.268115234375
1.3261230468749998
1.3720458984375
1.4091064453125
1.4356933593749999
1.4767822265625
1.4945068359375
1.5243164062499999
1.5202880859374999
1.546875
1.5243164062499999
0.8032470703125
1.1367919921875
1.2544189453124999
1.3817138671875
1.4993408203124998
1.5791015625
2.18173828125
2.241357421875
2.0923095703125
1.8908935546874999
1.7370117187499998
1.6910888671875
1.6564453124999998
1.6395263671875
1.6218017578125
1.5887695312499999
1.5847412109374999
1.5702392578125
1.554931640625
1.538818359375
1.5146484375
2.141455078125
2.0181884765625
1.8377197265624998
1.7893798828124998
1.654833984375
1.5162597656249999
1.181103515625
1.0948974609375
1.0368896484374999
1.1384033203125
1.24716796875
1.2947021484374999
1.3510986328124999
1.3986328124999998
1.4123291015625
1.4630859374999998
1.5396240234374998
1.5444580078124999
1.5509033203125
1.542041015625
1.50498046875
0.8338623046875
1.0812011718749999
1.2995361328125
1.3341796874999998
1.496923828125
1.5895751953125
1.864306640625
2.263916015625
2.0729736328125
1.8780029296874998
1.7539306640624999
1.6935058593749999
1.6991455078125
1.6282470703124998
1.6443603515624998
1.6000488281249998
1.59521484375
1.5621826171875
1.6000488281249998
1.5839355468749998
1.5686279296874999
2.204296875
2.0431640625
1.8143554687499999
1.7418457031249999
1.638720703125
1.509814453125
1.3631835937499999
1.0658935546875
1.03447265625
1.0973144531249999
1.213330078125
1.3591552734374999
1.3575439453125
1.4187744140624998
1.448583984375
1.445361328125
1.47275390625
1.5033691406249998
1.5138427734375
1.525927734375
1.5170654296875
0.8596435546875
0.992578125
1.2890625
1.2938964843749998
1.4155517578124999
1.574267578125
1.7732666015624998
2.3114501953124997
2.20107421875
1.9432617187499999
1.8014648437499998
1.7072021484375
1.65966796875
1.6330810546874999
1.6282470703124998
1.6282470703124998
1.5637939453124998
1.5589599609375
1.5541259765625
1.5122314453124999
1.5686279296874999
1.764404296875
2.0778076171874997
1.8820312499999998
1.803076171875
1.6612792968749999
1.5355957031249998
1.3897705078125
1.15048828125
1.0376953125
1.1303466796875
1.206884765625
1.3237060546875
1.35673828125
1.3905761718749998
1.4244140625
1.4558349609374999
1.513037109375
1.509814453125
1.5106201171875
1.5347900390625
1.5460693359375
0.855615234375
0.952294921875
1.2181640624999999
1.2882568359375
1.4445556640625
1.5589599609375
1.67900390625
2.286474609375
2.1841552734375
2.0044921875
1.8006591796875
1.706396484375
1.6483886718749998
1.61455078125
1.6379150390625
1.5758789062499998
1.58232421875
1.5702392578125
1.5734619140625
1.5702392578125
1.5460693359375
1.67900390625
2.1696533203125
1.912646484375
1.780517578125
1.7120361328125
1.5911865234375
1.3954101562499999
1.155322265625
1.036083984375
1.103759765625
1.2350830078125
1.2777832031249998
1.3390136718749999
1.3873535156249999
1.426025390625
1.4751708984374998
1.5138427734375
1.482421875
1.48564453125
1.5235107421874998
1.5154541015624998
1.3422363281249998
0.837890625
1.222998046875
1.3261230468749998
1.3825195312499998
1.5557373046874998
1.6459716796875
2.1857666015625
2.14306640625
2.0197998046875
1.8570556640625
1.7466796875
1.6685302734374998
1.6322753906249998
1.6330810546874999
1.611328125
1.590380859375
1.5662109375
1.5589599609375
1.5484863281249999
1.5605712890624999
1.5460693359375
2.17529296875
1.9223144531249998
1.8369140625
1.7015624999999999
1.6121337890624998
1.4783935546875
1.1738525390624999
1.0505859375
1.06025390625
1.1786865234375
1.32451171875
1.3897705078125
1.3873535156249999
1.4268310546874998
1.4429443359374998
1.456640625
1.482421875
1.46953125
1.482421875
1.4896728515625
1.413134765625
0.8104980468749999
1.1674072265625
1.2995361328125
1.3422363281249998
1.432470703125
1.6451660156249999
2.101171875
2.225244140625
2.0810302734375
1.8586669921874999
1.7426513671875
1.6854492187499999
1.6894775390624999
1.6943115234375
1.6612792968749999
1.5645996093749999
1.5492919921875
1.5517089843749998
1.533984375
1.5565429687499999
1.538818359375
2.1720703125
1.9682373046875
1.8344970703124999
1.815966796875
1.6564453124999998
1.4953124999999998
1.219775390625
1.0739501953125
1.04736328125
1.1641845703125
1.2205810546875
1.300341796875
1.3422363281249998
1.36962890625
1.40185546875
1.4300537109375
1.48564453125
1.538818359375
1.5750732421875
1.56943359375
1.53720703125
0.8185546874999999
1.13115234375
1.2995361328125
1.3639892578125
1.4832275390624998
1.5807128906249999
1.8820312499999998
2.23330078125
2.093115234375
1.9223144531249998
1.7724609375
1.6951171875
1.66611328125
1.6314697265625
1.63388671875
1.5895751953125
1.58232421875
1.529150390625
1.53720703125
1.538818359375
1.558154296875
2.1720703125
2.08505859375
1.8143554687499999
1.7474853515625
1.6185791015625
1.4759765624999999
1.229443359375
1.0239990234375
0.9885498046875
1.1883544921875
1.281005859375
1.3261230468749998
1.3551269531249999
1.397021484375
1.4203857421875
1.464697265625
1.5170654296875
1.474365234375
1.5082031249999999
1.4928955078125
1.49853515625
0.839501953125
1.1190673828125
1.31162109375
1.3575439453125
1.4872558593749998
1.6282470703124998
1.8659179687499998
2.2985595703125
2.0890869140625
1.8973388671875
1.76279296875
1.67900390625
1.6612792968749999
1.6524169921874998
1.6363037109374998
1.6048828124999999
1.5718505859374998
1.5726562499999999
1.5492919921875
1.5218994140625
1.5533203125
2.152734375
2.0810302734375
1.864306640625
1.7499023437499999
1.6411376953124999
1.5154541015624998
1.377685546875
1.0787841796875
1.0385009765625
1.1150390625
1.2310546875
1.3261230468749998
1.3510986328124999
1.3833251953124999
1.40830078125
1.464697265625
1.4864501953125
1.5001464843749999
1.545263671875
1.5194824218749998
1.5025634765625
0.8958984375
0.95390625
1.200439453125
1.3212890625
1.448583984375
1.587158203125
1.7208984374999998
2.276806640625
2.165625
1.980322265625
1.7958251953125
1.7362060546875
1.6806152343749998
1.65
1.6435546875
1.6153564453125
1.5911865234375
1.5887695312499999
1.5847412109374999
1.561376953125
1.5573486328125
1.754736328125
2.2083251953125
1.8441650390625
1.7716552734375
1.699951171875
1.5251220703125
1.340625
1.07958984375
1.0159423828125
1.1061767578125
1.19560546875
1.2906738281249999
1.3599609375
1.3639892578125
1.4316650390624999
1.4300537109375
1.5315673828124998
1.561376953125
1.5476806640624998
1.5766845703124999
1.533984375
1.2624755859374999
0.9353759765624999
1.181103515625
1.2955078125
1.35673828125
1.5557373046874998
1.654833984375
2.257470703125
2.193017578125
1.9891845703125
1.8457763671874998
1.751513671875
1.6669189453125
1.619384765625
1.619384765625
1.60166015625
1.5847412109374999
1.585546875
1.5791015625
1.5637939453124998
1.5218994140625
1.6185791015625
2.1680419921875
1.960986328125
1.8175781249999998
1.7047851562499998
1.62744140625
1.5243164062499999
1.1126220703125
0.9966064453125
1.0014404296875
1.15048828125
1.2584472656249999
1.3575439453125
1.36962890625
1.4139404296875
1.4638916015624999
1.4912841796874998
1.5509033203125
1.5243164062499999
1.513037109375
1.4961181640624999
1.3639892578125
0.78955078125
1.1150390625
1.2536132812499998
1.3390136718749999
1.4961181640624999
1.6508056640625
2.2002685546875
2.2590820312499997
2.05283203125
1.8812255859375
1.767626953125
1.738623046875
1.6935058593749999
1.651611328125
1.66611328125
1.6072998046875
1.561376953125
1.561376953125
1.55009765625
1.5412353515625
1.5525146484374999
2.2663330078125
1.972265625
1.8280517578125
1.7523193359375
1.6177734375
1.4606689453125
1.126318359375
0.93779296875
0.978076171875
1.1021484375
1.2608642578125
1.3591552734374999
1.3414306640625
1.397021484375
1.4518066406249999
1.493701171875
1.4977294921875
1.522705078125
1.5476806640624998
1.5275390624999998
1.5073974609374998
0.7057617187499999
1.0159423828125
1.2028564453125
1.3390136718749999
1.4638916015624999
1.5839355468749998
2.11728515625
2.399267578125
2.2550537109374997
2.03671875
1.812744140625
1.7595703125
1.6822265625
1.6081054687499998
1.6435546875
1.6105224609375
1.5702392578125
1.5323730468749999
1.5670166015625
1.533984375
1.5114257812499998
2.2792236328124997
2.1599853515625
1.9360107421875
1.7692382812499998
1.6749755859375
1.4945068359375
1.095703125
0.945849609375
0.8773681640625
1.0610595703124999
1.139208984375
1.2624755859374999
1.2938964843749998
1.3510986328124999
1.3929931640625
1.4373046875
1.51787109375
1.5484863281249999
1.509814453125
1.5533203125
1.5605712890624999
0.6807861328125
0.9015380859375
1.0965087890625
1.2060791015624999
1.405078125
1.5565429687499999
1.944873046875
2.489501953125
2.32998046875
2.1632080078125
1.973876953125
1.8046875
1.7466796875
1.6991455078125
1.6701416015625
1.5758789062499998
1.5654052734375
1.5428466796875
1.5251220703125
1.53076171875
1.55009765625
2.33642578125
2.2590820312499997
2.075390625
1.89169921875
1.67900390625
1.5605712890624999
1.35673828125
0.8822021484375
0.726708984375
0.8193603515625
1.068310546875
1.184326171875
1.268115234375
1.3446533203125
1.4034667968749999
1.4203857421875
1.5001464843749999
1.5525146484374999
1.5041748046874999
1.493701171875
1.509814453125
0.636474609375
0.71865234375
0.961962890625
1.2221923828124999
1.361572265625
1.5911865234375
1.893310546875
2.6603027343749996
2.5918212890624996
2.2510253906249997
2.0278564453125
1.8344970703124999
1.7821289062499999
1.732177734375
1.7184814453125
1.6620849609375
1.546875
1.5138427734375
1.5863525390625
1.5517089843749998
1.53076171875
1.8780029296874998
2.4322998046874997
2.1720703125
2.077001953125
1.8925048828125
1.5299560546875
1.281005859375
0.9063720703125
0.636474609375
0.6968994140625
0.889453125
1.003857421875
1.1545166015625
1.2850341796875
1.3704345703124998
1.4034667968749999
1.4816162109375
1.542041015625
1.5597656249999998
1.55009765625
1.5106201171875
1.0892578124999999
0.5857177734375
0.8967041015624999
1.0433349609375
1.2890625
1.4735595703125
1.699951171875
2.719921875
2.760205078125
2.54267578125
2.2631103515624997
2.0069091796875
1.8538330078124998
1.770849609375
1.754736328125
1.7104248046875
1.5863525390625
1.5460693359375
1.513037109375
1.490478515625
1.49853515625
1.8183837890624999
2.66513671875
2.43310546875
2.222021484375
2.022216796875
1.7217041015624999
1.3188720703124999
0.775048828125
0.3988037109375
0.33837890625
0.6469482421874999
0.849169921875
1.023193359375
1.20849609375
1.32451171875
1.3712402343749999
1.4630859374999998
1.5122314453124999
1.546875
1.56298828125
1.6008544921874999
1.1512939453125
0.21591796875
0.533349609375
0.694482421875
0.9144287109375
1.216552734375
1.6951171875
2.9068359375
3.0325195312499997
2.9914306640625
2.7239501953125
2.4145751953125
2.167236328125
2.0262451171875
1.8908935546874999
1.7974365234374998
1.611328125
1.574267578125
1.5758789062499998
1.5654052734375
1.46630859375
1.4574462890625
2.8593017578124997
2.747314453125
2.6876953125
2.5869873046875
2.1615966796875
1.7853515624999998
0.9643798828125
0.16274414062499998
0.027392578124999997
0.030615234374999998
0.07814941406249999
0.2666748046875
0.4245849609375
0.5994140625
0.9611572265624999
1.0328613281249999
1.2302490234374999
1.3631835937499999
1.477587890625
1.5138427734375
1.5380126953125
0.0249755859375
0.030615234374999998
0.027392578124999997
0.09345703124999999
0.3520751953125
0.630029296875
1.748291015625
3.0349365234374996
3.0397705078125
3.0317138671875
3.0349365234374996
3.0333251953125
3.0349365234374996
3.011572265625
3.0333251953125
3.0309082031249996
3.0309082031249996
3.02607421875
2.9946533203124996
2.9237548828124997
2.85849609375
3.0349365234374996
3.0333251953125
3.0397705078125
3.0397705078125
3.034130859375
3.0317138671875
3.0389648437499996
2.3291748046875
1.6089111328124999
0.8435302734375
0.44956054687499997
0.15227050781249998
0.02900390625
0.0298095703125
0.02900390625
0.0281982421875
0.0281982421875
0.027392578124999997
0.02578125
0.02900390625
0.0281982421875
0.02900390625
0.02900390625
0.0281982421875
0.020947265625
0.0298095703125
0.030615234374999998
0.024169921875
1.3712402343749999
2.0431640625
2.5813476562499997
2.8383544921875
3.027685546875
3.0301025390625
3.0309082031249996
3.0389648437499996
3.0309082031249996
3.0365478515624997
3.0236572265625
3.02607421875
2.924560546875
2.8617187499999996
3.0325195312499997
3.0333251953125
3.034130859375
3.0333251953125
3.0333251953125
3.0325195312499997
3.0365478515624997
2.5716796874999996
1.506591796875
0.8950927734374999
0.39396972656249996
0.02900390625
0.0281982421875
0.0281982421875
0.0281982421875
0.02900390625
0.02900390625
0.0249755859375
0.02900390625
0.02900390625
0.0249755859375
0.033837890625
0.02900390625
0.033032226562499996
0.026586914062499998
0.0281982421875
0.02900390625
0.0281982421875
1.155322265625
2.1309814453125
2.47177734375
2.776318359375
2.9688720703125
3.034130859375
3.0333251953125
3.0333251953125
3.0389648437499996
3.0325195312499997
3.0333251953125
3.0333251953125
3.0333251953125
3.011572265625
3.0381591796875
3.0357421875
3.0357421875
3.0349365234374996
3.0357421875
3.0365478515624997
3.0357421875
2.5853759765624997
1.71123046875
1.029638671875
0.3544921875
0.0314208984375
0.02578125
0.0281982421875
0.02900390625
0.024169921875
0.0281982421875
0.0281982421875
0.02900390625
0.0281982421875
0.0298095703125
0.033837890625
0.0298095703125
0.033032226562499996
0.02578125
0.027392578124999997
0.026586914062499998
0.02900390625
0.942626953125
1.91748046875
2.3662353515625
2.7521484375
2.921337890625
3.034130859375
3.0381591796875
3.0357421875
3.0357421875
3.0357421875
3.0381591796875
3.0333251953125
3.0365478515624997
2.940673828125
2.850439453125
3.0357421875
3.034130859375
3.0349365234374996
3.0381591796875
3.0349365234374996
3.0349365234374996
2.8883056640625
2.128564453125
1.2181640624999999
0.6920654296875
0.31743164062499996
0.02578125
0.0298095703125
0.02900390625
0.0298095703125
0.0322265625
0.027392578124999997
0.0281982421875
0.030615234374999998
0.02900390625
0.026586914062499998
0.0298095703125
0.0249755859375
0.030615234374999998
0.026586914062499998
0.033837890625
0.02578125
0.27392578125
1.4518066406249999
2.2566650390625
2.60068359375
2.8375488281249996
3.0091552734375
3.0325195312499997
3.0301025390625
3.0333251953125
3.0381591796875
3.0365478515624997
3.027685546875
3.0309082031249996
2.9422851562499996
2.8874999999999997
3.037353515625
3.0333251953125
3.0357421875
3.0381591796875
3.034130859375
3.034130859375
3.018017578125
2.118896484375
1.3470703124999999
0.760546875
0.15791015625
0.0281982421875
0.02578125
0.02900390625
0.027392578124999997
0.0314208984375
0.0298095703125
0.02900390625
0.0281982421875
0.02578125
0.0249755859375
0.02900390625
0.02578125
0.0298095703125
0.0322265625
0.026586914062499998
0.024169921875
0.033032226562499996
1.4816162109375
2.0069091796875
2.4749999999999996
2.8528564453125
3.037353515625
3.034130859375
3.0333251953125
3.0325195312499997
3.0349365234374996
3.0325195312499997
3.0301025390625
3.037353515625
3.0099609375
2.9181152343749996
3.0349365234374996
3.037353515625
3.0357421875
3.0333251953125
3.037353515625
3.034130859375
3.0357421875
2.4202148437499997
1.6000488281249998
0.7774658203125
0.34965820312499996
0.0281982421875
0.027392578124999997
0.02900390625
0.0322265625
0.02900390625
0.0249755859375
0.02900390625
0.0314208984375
0.02900390625
0.02900390625
0.0298095703125
0.0314208984375
0.02900390625
0.026586914062499998
0.02900390625
0.0298095703125
0.02900390625
1.0997314453125
1.844970703125
2.4202148437499997
2.7432861328125
2.876220703125
3.0349365234374996
3.0309082031249996
3.0349365234374996
3.034130859375
3.0389648437499996
3.034130859375
3.0325195312499997
2.9930419921875
2.9986816406249996
3.034130859375
3.0325195312499997
3.0357421875
3.0389648437499996
3.0309082031249996
3.034130859375
3.0333251953125
2.7328124999999996
1.703173828125
1.155322265625
0.64775390625
0.0668701171875
0.0281982421875
0.033032226562499996
0.023364257812499997
0.02900390625
0.0281982421875
0.02900390625
0.0298095703125
0.02900390625
0.02900390625
0.027392578124999997
0.0314208984375
0.0281982421875
0.0314208984375
0.0298095703125
0.026586914062499998
0.022558593749999998
0.6968994140625
1.7579589843749999
2.26552734375
2.63935546875
2.905224609375
3.0228515624999996
3.034130859375
3.0365478515624997
3.0389648437499996
3.0309082031249996
3.0357421875
3.0333251953125
3.0333251953125
2.9785400390624996
3.0043212890624997
3.034130859375
3.0333251953125
3.0389648437499996
3.0333251953125
3.034130859375
3.0357421875
2.6860839843749997
1.844970703125
1.1432373046875
0.4962890625
0.049145507812499996
0.02900390625
0.0281982421875
0.02900390625
0.026586914062499998
0.0314208984375
0.0249755859375
0.026586914062499998
0.0314208984375
0.02900390625
0.0298095703125
0.02900390625
0.0298095703125
0.02900390625
0.02900390625
0.0298095703125
0.0298095703125
0.8225830078124999
1.65966796875
2.2494140625
2.69091796875
2.9414794921875
3.0333251953125
3.0333251953125
3.0357421875
3.0325195312499997
3.0349365234374996
3.0349365234374996
2.9833740234375
2.9785400390624996
2.91650390625
2.86494140625
3.0349365234374996
3.0357421875
3.034130859375
3.034130859375
3.0389648437499996
3.034130859375
2.9712890625
2.309033203125
1.3341796874999998
0.8145263671874999
0.4004150390625
0.0298095703125
0.02900390625
0.027392578124999997
0.02900390625
0.026586914062499998
0.0281982421875
0.02900390625
0.033837890625
0.0298095703125
0.026586914062499998
0.0322265625
0.02900390625
0.027392578124999997
0.0281982421875
0.02900390625
0.027392578124999997
0.024169921875
1.3212890625
2.1084228515625
2.5168945312499997
2.76181640625
2.98095703125
3.037353515625
3.0333251953125
3.0357421875
3.0309082031249996
3.034130859375
3.0325195312499997
3.0309082031249996
3.0333251953125
2.9575927734375
3.0381591796875
3.0325195312499997
3.034130859375
3.0349365234374996
3.0349365234374996
3.0301025390625
3.0357421875
2.408935546875
1.641943359375
0.9869384765625
0.3802734375
0.0298095703125
0.0298095703125
0.0201416015625
0.030615234374999998
0.0281982421875
0.02900390625
0.0322265625
0.0281982421875
0.02900390625
0.02578125
0.0281982421875
0.0298095703125
0.0281982421875
0.027392578124999997
0.02900390625
0.02900390625
0.0281982421875
1.11181640625
1.7611816406249998
2.176904296875
2.642578125
2.8045166015625
2.9575927734375
3.0357421875
3.0389648437499996
3.034130859375
3.0357421875
3.0357421875
3.034130859375
3.001904296875
2.963232421875
3.0357421875
3.0397705078125
3.0365478515624997
3.0397705078125
3.037353515625
3.0325195312499997
3.0333251953125
2.5740966796875
1.8167724609375
0.966796875
0.40524902343749997
0.0314208984375
0.0314208984375
0.0314208984375
0.0298095703125
0.0322265625
0.0281982421875
0.0322265625
0.0298095703125
0.0281982421875
0.02900390625
0.02900390625
0.0314208984375
0.02900390625
0.02900390625
0.0298095703125
0.027392578124999997
0.0298095703125
0.7790771484375
1.6371093749999999
2.2679443359375
2.52978515625
2.802099609375
2.91328125
3.0349365234374996
3.0389648437499996
3.0357421875
3.0333251953125
3.0333251953125
3.0139892578125
3.0301025390625
2.969677734375
2.876220703125
3.0349365234374996
3.0325195312499997
3.0333251953125
3.034130859375
3.0357421875
3.0325195312499997
2.73603515625
1.8715576171875
1.27294921875
0.74443359375
0.298095703125
0.026586914062499998
0.033837890625
0.0249755859375
0.0298095703125
0.0281982421875
0.0281982421875
0.0281982421875
0.02900390625
0.026586914062499998
0.033032226562499996
0.0249755859375
0.02900390625
0.024169921875
0.0298095703125
0.0298095703125
0.02578125
0.030615234374999998
1.529150390625
2.07861328125
2.4814453125
2.7610107421874996
2.9737060546875
3.034130859375
3.0349365234374996
3.0333251953125
3.0333251953125
3.034130859375
3.0099609375
3.0156005859375
2.9430908203125
2.8544677734375
3.037353515625
3.0357421875
3.029296875
3.0301025390625
3.0357421875
3.0333251953125
2.8979736328124996
2.312255859375
1.5114257812499998
0.8838134765625
0.35690917968749997
0.0346435546875
0.0281982421875
0.024169921875
0.0281982421875
0.02900390625
0.0249755859375
0.02900390625
0.0298095703125
0.030615234374999998
0.0281982421875
0.0322265625
0.0298095703125
0.0314208984375
0.02900390625
0.0298095703125
0.02900390625
0.0281982421875
1.1561279296875
1.82724609375
2.384765625
2.6441894531249996
2.8802490234375
3.027685546875
3.0325195312499997
3.0357421875
3.0309082031249996
3.0309082031249996
3.0325195312499997
3.0333251953125
3.0309082031249996
2.96484375
3.0349365234374996
3.037353515625
3.0357421875
3.0349365234374996
3.0333251953125
3.034130859375
3.0325195312499997
2.5636230468749996
1.7080078125
0.9152343749999999
0.517236328125
0.141796875
0.0322265625
0.02900390625
0.02900390625
0.0298095703125
0.0314208984375
0.0281982421875
0.02900390625
0.0314208984375
0.02900390625
0.02578125
0.0298095703125
0.0281982421875
0.0298095703125
0.02900390625
0.02900390625
0.02900390625
0.9885498046875
1.9916015624999999
2.410546875
2.6748046875
2.9479248046874997
3.0357421875
3.0317138671875
3.034130859375
3.034130859375
3.0357421875
3.034130859375
3.0349365234374996
3.0317138671875
3.0107666015624996
2.9382568359374996
3.0317138671875
3.034130859375
3.0317138671875
3.0349365234374996
3.0357421875
3.034130859375
2.631298828125
1.770849609375
1.147265625
0.591357421875
0.0281982421875
0.02900390625
0.023364257812499997
0.02900390625
0.0281982421875
0.02900390625
0.030615234374999998
0.02900390625
0.0298095703125
0.0249755859375
0.02900390625
0.02900390625
0.0298095703125
0.02900390625
0.02900390625
0.026586914062499998
0.033032226562499996
0.736376953125
1.6266357421875
2.125341796875
2.5160888671875
2.7916259765625
2.9970703125
3.0333251953125
3.0357421875
3.0389648437499996
3.0333251953125
3.0333251953125
3.0309082031249996
3.011572265625
2.995458984375
2.9430908203125
3.043798828125
3.0349365234374996
3.0333251953125
3.0317138671875
3.0317138671875
3.0365478515624997
2.9430908203125
2.205908203125
1.5331787109375
0.7621582031249999
0.323876953125
0.0281982421875
0.026586914062499998
0.02900390625
0.0298095703125
0.0281982421875
0.0314208984375
0.0322265625
0.0281982421875
0.02900390625
0.033032226562499996
0.014501953125
0.0298095703125
0.026586914062499998
0.0281982421875
0.0281982421875
0.0298095703125
0.02900390625
1.22138671875
2.01416015625
2.421826171875
2.6852783203125
2.80048828125
2.94873046875
3.029296875
3.0357421875
3.0301025390625
3.0349365234374996
3.0381591796875
3.0172119140625
3.0075439453125
2.9575927734375
3.037353515625
3.0381591796875
3.034130859375
3.0349365234374996
3.0325195312499997
3.0357421875
3.034130859375
2.23974609375
1.4961181640624999
0.9031494140624999
0.4278076171875
0.0281982421875
0.0298095703125
0.02900390625
0.0298095703125
0.0298095703125
0.02578125
0.027392578124999997
0.0298095703125
0.0249755859375
0.0281982421875
0.02900390625
0.02900390625
0.0249755859375
0.030615234374999998
0.02900390625
0.0298095703125
0.0314208984375
1.3905761718749998
2.0149658203125
2.4363281249999997
2.6482177734374996
2.900390625
3.0349365234374996
3.0333251953125
3.0365478515624997
3.0365478515624997
3.0357421875
3.0325195312499997
3.029296875
2.99384765625
2.9430908203125
3.0389648437499996
3.0333251953125
3.034130859375
3.0333251953125
3.0357421875
3.0317138671875
3.0365478515624997
2.495947265625
1.6411376953124999
1.095703125
0.3262939453125
0.026586914062499998
0.0298095703125
0.030615234374999998
0.033837890625
0.02900390625
0.02578125
0.030615234374999998
0.0281982421875
0.02900390625
0.033032226562499996
0.030615234374999998
0.0298095703125
0.033032226562499996
0.026586914062499998
0.02900390625
0.02900390625
0.02900390625
0.8773681640625
1.622607421875
2.2365234375
2.599072265625
2.7320068359375
2.8963623046875
3.0357421875
3.034130859375
3.0349365234374996
3.0333251953125
3.0333251953125
3.0349365234374996
3.0027099609374996
2.9656494140625
2.9600097656249997
3.0317138671875
3.0389648437499996
3.034130859375
3.0325195312499997
3.0333251953125
3.0365478515624997
2.8738037109374996
1.880419921875
1.2423339843749999
0.7379882812499999
0.2666748046875
0.0281982421875
0.033032226562499996
0.02900390625
0.0322265625
0.026586914062499998
0.0298095703125
0.02578125
0.02900390625
0.02578125
0.0281982421875
0.026586914062499998
0.0298095703125
0.02900390625
0.02900390625
0.0281982421875
0.024169921875
0.32145996093749996
1.4590576171874998
1.9658203125
2.321923828125
2.6031005859375
2.7328124999999996
2.905224609375
3.0317138671875
3.0389648437499996
3.0301025390625
3.0389648437499996
3.0357421875
3.0333251953125
2.9624267578124996
2.9173095703125
3.0357421875
3.0349365234374996
3.0333251953125
3.0349365234374996
3.0357421875
3.0357421875
2.7972656249999996
2.0616943359374997
1.3172607421875
0.668701171875
0.1893310546875
0.02900390625
0.02900390625
0.02900390625
0.02900390625
0.030615234374999998
0.033032226562499996
0.0281982421875
0.02900390625
0.0298095703125
0.0281982421875
0.024169921875
0.0298095703125
0.02900390625
0.0298095703125
0.0314208984375
0.0314208984375
0.2795654296875
1.2785888671874999
1.880419921875
2.437939453125
2.6530517578125
2.8552734374999997
3.034130859375
3.0357421875
3.0365478515624997
3.0381591796875
3.0349365234374996
3.0357421875
3.0381591796875
3.0075439453125
2.9922363281249997
3.034130859375
3.0325195312499997
3.0357421875
3.0333251953125
3.0333251953125
3.0357421875
3.0301025390625
2.44599609375
1.43408203125
0.75087890625
0.41813964843749996
0.0555908203125
0.02900390625
0.027392578124999997
0.02900390625
0.02900390625
0.0298095703125
0.0281982421875
0.0322265625
0.0314208984375
0.0298095703125
0.02900390625
0.0298095703125
0.030615234374999998
0.0281982421875
0.02578125
0.0281982421875
0.02578125
1.0530029296874999
1.9634033203124999
2.39765625
2.615185546875
2.818212890625
3.0301025390625
3.0349365234374996
3.0349365234374996
3.034130859375
3.037353515625
3.034130859375
3.0349365234374996
3.0164062499999997
3.0220458984375
3.0389648437499996
3.0349365234374996
3.0349365234374996
3.0357421875
3.0381591796875
3.0381591796875
3.0349365234374996
2.4516357421875
1.6161621093749998
1.0006347656249999
0.5486572265624999
0.030615234374999998
0.0281982421875
0.02900390625
0.024169921875
0.030615234374999998
0.0298095703125
0.0298095703125
0.02578125
0.024169921875
0.0298095703125
0.0298095703125
0.026586914062499998
0.033032226562499996
0.02900390625
0.0298095703125
0.0249755859375
0.0281982421875
0.9289306640624999
1.6306640625
2.11083984375
2.43955078125
2.7110595703125
2.8794433593749997
2.9422851562499996
3.0349365234374996
3.0397705078125
3.034130859375
3.0365478515624997
3.0381591796875
3.0172119140625
2.9261718749999996
3.0357421875
3.0397705078125
3.0333251953125
3.0325195312499997
3.0317138671875
3.034130859375
3.0333251953125
2.7505371093749997
1.96904296875
1.2584472656249999
0.5687988281249999
0.1168212890625
0.0281982421875
0.02900390625
0.0281982421875
0.02578125
0.0281982421875
0.0322265625
0.027392578124999997
0.02900390625
0.0281982421875
0.030615234374999998
0.0322265625
0.024169921875
0.030615234374999998
0.0298095703125
0.0298095703125
0.0298095703125
0.6646728515625
1.393798828125
2.1084228515625
2.45888671875
2.63935546875
2.8480224609375
3.0301025390625
3.0381591796875
3.034130859375
3.0317138671875
3.0333251953125
3.0325195312499997
3.0333251953125
3.0317138671875
2.9865966796874996
3.034130859375
3.0317138671875
3.0325195312499997
3.0325195312499997
3.0301025390625
3.0325195312499997
3.0188232421874996
1.9948242187499998
1.3510986328124999
0.807275390625
0.4390869140625
0.027392578124999997
0.02900390625
0.0298095703125
0.0281982421875
0.0314208984375
0.026586914062499998
0.02900390625
0.02900390625
0.02900390625
0.033837890625
0.0298095703125
0.02900390625
0.0298095703125
0.0314208984375
0.024169921875
0.0314208984375
0.0298095703125
1.271337890625
1.84013671875
2.2494140625
2.5612060546874997
2.7610107421874996
2.9946533203124996
3.0357421875
3.034130859375
3.037353515625
3.0333251953125
3.0365478515624997
3.0188232421874996
2.963232421875
2.9269775390625
3.0333251953125
3.037353515625
3.0365478515624997
3.0349365234374996
3.0389648437499996
3.0349365234374996
3.018017578125
2.3630126953125
1.590380859375
0.9345703125
0.356103515625
0.027392578124999997
0.0249755859375
0.0298095703125
0.0281982421875
0.0281982421875
0.0298095703125
0.0281982421875
0.027392578124999997
0.027392578124999997
0.030615234374999998
0.0281982421875
0.0298095703125
0.02900390625
0.033032226562499996
0.0298095703125
0.026586914062499998
0.02578125
1.16337890625
1.7861572265624999
2.3267578125
2.682861328125
2.7916259765625
2.9769287109375
3.0325195312499997
3.037353515625
3.034130859375
3.0381591796875
3.034130859375
3.0333251953125
3.0357421875
2.9720947265624997
3.0309082031249996
3.0381591796875
3.034130859375
3.0389648437499996
3.0333251953125
3.034130859375
3.0381591796875
2.6240478515624996
1.46953125
0.855615234375
0.41572265625
0.0298095703125
0.0281982421875
0.0298095703125
0.0314208984375
0.027392578124999997
0.0314208984375
0.0314208984375
0.0281982421875
0.026586914062499998
0.0298095703125
0.0298095703125
0.0281982421875
0.033837890625
0.0298095703125
0.02900390625
0.02900390625
0.02900390625
0.8000244140624999
1.7136474609374999
2.20107421875
2.4524414062499997
2.6103515625
2.8149902343749997
2.963232421875
3.034130859375
3.0357421875
3.0333251953125
3.0333251953125
3.0325195312499997
2.98740234375
2.9092529296875
2.872998046875
3.037353515625
3.034130859375
3.0333251953125
3.034130859375
3.0357421875
3.034130859375
2.7392578125
1.9223144531249998
1.248779296875
0.700927734375
0.1345458984375
0.0249755859375
0.0281982421875
0.0298095703125
0.0281982421875
0.024169921875
0.02900390625
0.027392578124999997
0.026586914062499998
0.0281982421875
0.0281982421875
0.0281982421875
0.0298095703125
0.0249755859375
0.02900390625
0.0298095703125
0.033032226562499996
0.6372802734374999
1.4953124999999998
2.1221191406249997
2.447607421875
2.6885009765624996
2.856884765625
3.0333251953125
3.0357421875
3.034130859375
3.0301025390625
3.0349365234374996
3.0357421875
3.037353515625
3.01962890625
2.9745117187499996
3.0333251953125
3.0357421875
3.0301025390625
3.0365478515624997
3.0325195312499997
3.0357421875
2.8238525390625
2.2365234375
1.2987304687499999
0.775048828125
0.34079589843749997
0.0298095703125
0.0298095703125
0.02900390625
0.0298095703125
0.0298095703125
0.0281982421875
0.02900390625
0.0322265625
0.02900390625
0.02578125
0.027392578124999997
0.02900390625
0.042700195312499994
0.023364257812499997
0.022558593749999998
0.0298095703125
0.02900390625
1.31162109375
2.064111328125
2.41376953125
2.6458007812499997
2.7771240234374996
2.9761230468749997
3.0365478515624997
3.0389648437499996
3.0309082031249996
3.034130859375
3.034130859375
3.0268798828124996
2.96484375
2.9640380859374997
3.0333251953125
3.0357421875
3.0325195312499997
3.0301025390625
3.0333251953125
3.0389648437499996
3.0349365234374996
2.281640625
1.5726562499999999
0.9579345703125
0.572021484375
0.072509765625
0.0314208984375
0.02900390625
0.0281982421875
0.02900390625
0.024169921875
0.0281982421875
0.0346435546875
0.0298095703125
0.0281982421875
0.02900390625
0.02578125
0.0281982421875
0.0249755859375
0.0298095703125
0.0281982421875
0.033032226562499996
1.3269287109374999
1.9843505859375
2.4121582031249997
2.70703125
2.9833740234375
3.0357421875
3.034130859375
3.034130859375
3.0325195312499997
3.034130859375
3.0333251953125
3.034130859375
3.0325195312499997
3.0325195312499997
3.0309082031249996
3.0333251953125
3.034130859375
3.0333251953125
3.0381591796875
3.0357421875
3.0349365234374996
3.0349365234374996
3.0357421875
3.0349365234374996
3.0317138671875
3.0389648437499996
3.0333251953125
3.0381591796875
3.0333251953125
3.0349365234374996
3.0349365234374996
3.0357421875
3.0357421875
3.0333251953125
3.0268798828124996
1.7748779296875
0.75732421875
0.5285156249999999
0.5285156249999999
0.7057617187499999
0.9982177734375
1.26005859375
2.4548583984375
2.9181152343749996
2.6949462890625
2.437939453125
2.01416015625
1.5541259765625
1.3212890625
1.1400146484375
0.910400390625
0.6767578125
0.604248046875
0.49870605468749996
0.4761474609375
0.44956054687499997
0.543017578125
1.8788085937499999
1.7329833984374998
1.6346923828125
1.5436523437499998
1.0900634765625
0.7387939453125
0.075732421875
0.033837890625
0.033032226562499996
0.02900390625
0.0298095703125
0.159521484375
0.30615234375
0.41813964843749996
0.6332519531249999
0.765380859375
0.8531982421875
0.9369873046874999
1.0207763671874999
1.0578369140625
1.0610595703124999
0.033032226562499996
0.278759765625
0.4600341796875
0.7242919921875
0.9974121093749999
1.2439453125
2.0625
2.7078369140625
2.513671875
2.205908203125
1.877197265625
1.690283203125
1.593603515625
1.493701171875
1.429248046875
1.3849365234375
1.3575439453125
1.3784912109374998
1.3664062499999998
1.3253173828125
1.361572265625
2.3638183593749997
2.270361328125
2.0955322265625
1.8755859375
1.6290527343749999
1.3768798828125
0.7629638671875
0.41572265625
0.323876953125
0.539794921875
0.752490234375
0.910400390625
0.98291015625
1.155322265625
1.1931884765625
1.3478759765625
1.4671142578124998
1.4679199218749999
1.5082031249999999
1.4469726562499998
1.4316650390624999
0.3343505859375
0.5663818359375
0.913623046875
1.023193359375
1.26005859375
1.5275390624999998
2.23330078125
2.6707763671875
2.5458984375
2.2365234375
1.9875732421874999
1.8280517578125
1.6935058593749999
1.6806152343749998
1.683837890625
1.6209960937499999
1.5799072265624998
1.5525146484374999
1.525927734375
1.4928955078125
1.4767822265625
2.199462890625
2.292919921875
2.1180908203124997
1.94970703125
1.7281494140625
1.482421875
1.103759765625
0.8201660156249999
0.639697265625
0.7404052734375
0.8830078124999999
1.1271240234375
1.1786865234375
1.2431396484375
1.364794921875
1.3881591796875
1.4711425781249998
1.5186767578125
1.546875
1.53076171875
1.522705078125
0.5583251953125
0.72509765625
0.9869384765625
1.155322265625
1.3897705078125
1.5404296874999999
1.7571533203124998
2.6079345703124996
2.4556640625
2.2510253906249997
2.0149658203125
1.7845458984375
1.6765869140624998
1.6846435546874998
1.6814208984374999
1.6564453124999998
1.533984375
1.561376953125
1.5380126953125
1.4961181640624999
1.5323730468749999
2.10439453125
2.3396484374999997
2.067333984375
1.931982421875
1.7990478515625
1.5919921874999998
1.24072265625
0.9514892578124999
0.7218749999999999
0.816943359375
1.0111083984375
1.1738525390624999
1.2399169921875
1.3188720703124999
1.361572265625
1.4501953125
1.46953125
1.4912841796874998
1.4783935546875
1.5106201171875
1.5041748046874999
0.9095947265625
0.6372802734374999
1.0465576171875
1.1706298828125
1.3237060546875
1.5686279296874999
1.7208984374999998
2.5354248046874996
2.4822509765625
2.1970458984375
2.0109375
1.880419921875
1.7168701171874998
1.6564453124999998
1.6532226562499999
1.651611328125
1.6105224609375
1.6234130859375
1.5597656249999998
1.5347900390625
1.482421875
1.496923828125
2.3581787109375
2.1140624999999997
1.9062011718749998
1.8006591796875
1.6056884765625
1.4526123046875
1.0111083984375
0.7549072265625
0.8588378906249999
0.9966064453125
1.1416259765624999
1.2423339843749999
1.2979248046874998
1.3857421875
1.4429443359374998
1.4598632812499999
1.4719482421874999
1.506591796875
1.5162597656249999
1.5702392578125
1.0852294921874999
0.6743408203125
0.9796874999999999
1.203662109375
1.3664062499999998
1.51787109375
1.6475830078125
2.46533203125
2.4806396484374997
2.281640625
1.9489013671875
1.7740722656249999
1.7184814453125
1.6910888671875
1.722509765625
1.667724609375
1.611328125
1.5267333984375
1.5009521484375
1.5243164062499999
1.5412353515625
1.5686279296874999
2.3662353515625
2.0359130859375
1.9150634765624999
1.8054931640624998
1.6475830078125
1.4236083984374999
1.074755859375
0.863671875
0.9031494140624999
1.0223876953125
1.1279296875
1.2205810546875
1.3253173828125
1.40830078125
1.3720458984375
1.4518066406249999
1.4840332031249999
1.5082031249999999
1.5283447265624999
1.5492919921875
1.5082031249999999
0.6372802734374999
0.984521484375
1.16015625
1.284228515625
1.4816162109375
1.6177734375
2.0052978515624997
2.5015869140625
2.2776123046875
2.047998046875
1.9005615234375
1.7297607421874999
1.7088134765624998
1.690283203125
1.65966796875
1.606494140625
1.61455078125
1.5976318359375
1.5597656249999998
1.5122314453124999
1.506591796875
2.3130615234375
2.14951171875
1.9746826171874998
1.7732666015624998
1.6604736328124998
1.5323730468749999
1.090869140625
0.9112060546874999
0.8499755859375
0.9917724609374999
1.1786865234375
1.2995361328125
1.316455078125
1.3744628906249998
1.353515625
1.4316650390624999
1.5218994140625
1.5355957031249998
1.5138427734375
1.5073974609374998
1.4783935546875
0.6582275390625
0.91845703125
1.1939941406249999
1.3502929687499998
1.4042724609375
1.5782958984375
2.031884765625
2.4468017578125
2.270361328125
1.9940185546875
1.8240234375
1.7217041015624999
1.72734375
1.6862548828125
1.6604736328124998
1.6072998046875
1.5879638671874998
1.5315673828124998
1.5412353515625
1.538818359375
1.5444580078124999
2.0947265625
2.1060058593749997
1.909423828125
1.8578613281249998
1.6290527343749999
1.5364013671874999
1.3309570312499999
0.9812988281249999
0.845947265625
0.9812988281249999
1.1222900390625
1.2616699218749998
1.3309570312499999
1.4332763671875
1.4187744140624998
1.496923828125
1.49853515625
1.5460693359375
1.509814453125
1.538818359375
1.561376953125
0.6920654296875
0.863671875
1.14404296875
1.2721435546875
1.3994384765624999
1.5573486328125
1.767626953125
2.4081298828124997
2.289697265625
2.0745849609375
1.8860595703124998
1.74345703125
1.6846435546874998
1.6717529296875
1.6612792968749999
1.6781982421875
1.5992431640625
1.6008544921874999
1.5645996093749999
1.5380126953125
1.542041015625
1.973876953125
2.205908203125
1.909423828125
1.8417480468749998
1.7168701171874998
1.5243164062499999
1.3261230468749998
1.0771728515624999
0.913623046875
1.0328613281249999
1.1319580078125
1.235888671875
1.2914794921875
1.3382080078124998
1.3857421875
1.4783935546875
1.4550292968749998
1.4735595703125
1.482421875
1.5557373046874998
1.5517089843749998
0.9901611328125
0.9095947265625
1.139208984375
1.2374999999999998
1.3849365234375
1.5718505859374998
1.7337890624999999
2.3315917968749997
2.3074218749999997
2.1116455078125
1.9190917968749999
1.748291015625
1.69833984375
1.7007568359374998
1.683837890625
1.62744140625
1.585546875
1.5509033203125
1.525927734375
1.51787109375
1.5033691406249998
1.909423828125
2.26875
2.0173828124999997
1.9166748046875
1.7080078125
1.5517089843749998
1.4364990234375
1.0820068359375
0.903955078125
0.961962890625
1.1214843749999999
1.22783203125
1.2963134765625
1.3390136718749999
1.400244140625
1.4236083984374999
1.4501953125
1.5202880859374999
1.5380126953125
1.554931640625
1.5194824218749998
1.1367919921875
0.7516845703124999
1.0505859375
1.2447509765625
1.4091064453125
1.4759765624999999
1.6822265625
2.3235351562499997
2.383154296875
2.1591796875
1.91748046875
1.75634765625
1.6773925781249999
1.6773925781249999
1.667724609375
1.6330810546874999
1.5879638671874998
1.585546875
1.6000488281249998
1.5654052734375
1.5283447265624999
1.5315673828124998
2.3138671875
1.9867675781249998
1.8489990234375
1.803076171875
1.5911865234375
1.4501953125
1.103759765625
0.9498779296875
0.9555175781249999
1.1061767578125
1.2028564453125
1.3172607421875
1.3551269531249999
1.3704345703124998
1.442138671875
1.445361328125
1.49853515625
1.5138427734375
1.5404296874999999
1.5090087890625
1.5202880859374999
0.742822265625
1.05380859375
1.22138671875
1.3269287109374999
1.5323730468749999
1.62744140625
2.09150390625
2.3477050781249997
2.15595703125
1.9625976562499998
1.7619873046874999
1.6781982421875
1.6846435546874998
1.662890625
1.6846435546874998
1.5968261718749999
1.5992431640625
1.5863525390625
1.5670166015625
1.51787109375
1.5412353515625
2.2840576171875
2.0794189453125
1.9037841796875
1.7909912109375
1.6669189453125
1.5275390624999998
1.1698242187499999
0.9627685546875
0.9112060546874999
1.0449462890624999
1.1448486328125
1.27294921875
1.3083984375
1.4622802734375
1.4373046875
1.493701171875
1.496923828125
1.4864501953125
1.4977294921875
1.509814453125
1.4816162109375
0.7114013671874999
0.9345703125
1.2302490234374999
1.3019531249999998
1.4236083984374999
1.611328125
1.9464843749999998
2.410546875
2.1785156249999997
1.9891845703125
1.8046875
1.6862548828125
1.67900390625
1.6806152343749998
1.65
1.6056884765625
1.5509033203125
1.538818359375
1.5758789062499998
1.574267578125
1.5605712890624999
2.0343017578125
2.1035888671875
1.9037841796875
1.8224121093749999
1.6854492187499999
1.5412353515625
1.27939453125
0.98291015625
0.9434326171874999
1.0916748046875
1.1464599609375
1.268115234375
1.3390136718749999
1.384130859375
1.4461669921875
1.4598632812499999
1.49853515625
1.5146484375
1.545263671875
1.5525146484374999
1.5323730468749999
0.7718261718749999
0.9015380859375
1.15048828125
1.2479736328125
1.4332763671875
1.5944091796875
2.0109375
2.3887939453125
2.2437744140625
2.0109375
1.8256347656249998
1.72412109375
1.6927001953124998
1.638720703125
1.6524169921874998
1.6177734375
1.6000488281249998
1.5621826171875
1.5766845703124999
1.5533203125
1.5460693359375
1.9424560546874998
2.230078125
1.8989501953124999
1.8216064453124998
1.7088134765624998
1.5202880859374999
1.3728515625
1.0111083984375
0.8741455078125
1.04736328125
1.1867431640625
1.2576416015624998
1.2938964843749998
1.3994384765624999
1.4276367187499999
1.448583984375
1.5138427734375
1.5364013671874999
1.5492919921875
1.55009765625
1.52109375
1.052197265625
0.8846191406249999
1.164990234375
1.2616699218749998
1.4574462890625
1.546875
1.7257324218749999
2.3275634765624997
2.2469970703124997
2.0278564453125
1.8659179687499998
1.7120361328125
1.6749755859375
1.71123046875
1.699951171875
1.6524169921874998
1.5839355468749998
1.5678222656249998
1.571044921875
1.4945068359375
1.5235107421874998
1.8715576171875
2.2196044921875
1.9730712890625
1.8546386718749999
1.7023681640625
1.5364013671874999
1.44052734375
1.1110107421875
0.9563232421875
1.01513671875
1.174658203125
1.2673095703125
1.3100097656249998
1.3833251953124999
1.393798828125
1.41796875
1.482421875
1.493701171875
1.4961181640624999
1.5082031249999999
1.53720703125
1.1859374999999999
0.7557128906249999
1.13115234375
1.222998046875
1.3881591796875
1.5033691406249998
1.703173828125
2.254248046875
2.3436767578124997
2.0818359374999997
1.8900878906249998
1.7611816406249998
1.6910888671875
1.703173828125
1.6588623046875
1.6177734375
1.5782958984375
1.5670166015625
1.5702392578125
1.5678222656249998
1.5670166015625
1.55009765625
2.24619140625
1.96904296875
1.8175781249999998
1.740234375
1.6056884765625
1.4526123046875
1.134375
0.9579345703125
0.9788818359375
1.1134277343749999
1.2673095703125
1.3446533203125
1.3494873046875
1.41796875
1.4759765624999999
1.4920898437499999
1.5645996093749999
1.529150390625
1.509814453125
1.5194824218749998
1.22783203125
0.7677978515624999
1.0892578124999999
1.235888671875
1.3575439453125
1.4912841796874998
1.5879638671874998
2.292919921875
2.3436767578124997
2.1454833984375
1.9400390625
1.7829345703125
1.7281494140625
1.6733642578124999
1.651611328125
1.662890625
1.577490234375
1.5718505859374998
1.5702392578125
1.5678222656249998
1.5565429687499999
1.5645996093749999
2.2953369140624997
2.0890869140625
1.8570556640625
1.7877685546875
1.651611328125
1.4461669921875
1.0981201171875
0.968408203125
0.9474609374999999
1.0884521484375
1.2342773437499999
1.3108154296874999
1.3559326171875
1.38896484375
1.4034667968749999
1.4461669921875
1.5275390624999998
1.5525146484374999
1.5275390624999998
1.525927734375
1.5041748046874999
0.7178466796874999
1.0594482421875
1.213330078125
1.3390136718749999
1.4920898437499999
1.5960205078124998
2.012548828125
2.360595703125
2.1293701171875
1.9489013671875
1.8336914062499998
1.7200927734375
1.6693359374999999
1.6588623046875
1.6717529296875
1.5807128906249999
1.5517089843749998
1.558154296875
1.5686279296874999
1.5799072265624998
1.533984375
2.2437744140625
2.054443359375
1.8884765625
1.7853515624999998
1.6572509765624999
1.5428466796875
1.2930908203125
1.0288330078124999
0.9651855468749999
1.0570312499999999
1.2262207031249999
1.3349853515624999
1.3398193359375
1.4123291015625
1.40830078125
1.4445556640625
1.5114257812499998
1.5033691406249998
1.5428466796875
1.53076171875
1.53076171875
0.7597412109374999
0.9490722656249999
1.2536132812499998
1.3019531249999998
1.4139404296875
1.5621826171875
1.8796142578125
2.3517333984374997
2.2373291015625
1.9585693359374998
1.7813232421874998
1.6975341796874999
1.64677734375
1.6588623046875
1.67578125
1.6540283203125
1.587158203125
1.5807128906249999
1.585546875
1.5275390624999998
1.5162597656249999
1.973876953125
2.0794189453125
1.87236328125
1.8312744140625
1.7120361328125
1.5347900390625
1.3317626953125
1.1239013671875
0.93779296875
1.071533203125
1.164990234375
1.3100097656249998
1.32451171875
1.3768798828125
1.3978271484375
1.4332763671875
1.5194824218749998
1.5299560546875
1.52109375
1.533984375
1.5170654296875
1.0078857421875
0.9329589843749999
1.2439453125
1.2882568359375
1.4348876953124998
1.5621826171875
1.6798095703125
2.40087890625
2.2002685546875
2.00771484375
1.8457763671874998
1.7176757812499999
1.6991455078125
1.6290527343749999
1.6620849609375
1.5621826171875
1.5839355468749998
1.5662109375
1.5662109375
1.5347900390625
1.5412353515625
1.9110351562499999
2.222021484375
1.9811279296875
1.8256347656249998
1.69833984375
1.545263671875
1.351904296875
1.094091796875
0.9249023437499999
0.9893554687499999
1.1867431640625
1.2640869140625
1.3220947265624998
1.4026611328124998
1.405078125
1.4711425781249998
1.4912841796874998
1.480810546875
1.5106201171875
1.5041748046874999
1.5380126953125
1.1158447265625
0.839501953125
1.18271484375
1.2511962890625
1.4042724609375
1.52109375
1.6951171875
2.2590820312499997
2.23974609375
2.0278564453125
1.8900878906249998
1.7813232421874998
1.6588623046875
1.6798095703125
1.6814208984374999
1.6403320312499998
1.6000488281249998
1.5887695312499999
1.571044921875
1.5791015625
1.56298828125
1.5597656249999998
2.2236328125
1.928759765625
1.82724609375
1.7571533203124998
1.5444580078124999
1.4872558593749998
1.1754638671875
0.9853271484374999
1.0111083984375
1.090869140625
1.2302490234374999
1.3430419921874999
1.3792968749999999
1.4187744140624998
1.4558349609374999
1.5073974609374998
1.5114257812499998
1.4864501953125
1.5073974609374998
1.5090087890625
1.4542236328125
0.7943847656249999
1.1351806640625
1.2624755859374999
1.3817138671875
1.51787109375
1.6234130859375
2.2196044921875
2.26552734375
2.1197021484375
1.9086181640625
1.7668212890625
1.72734375
1.6854492187499999
1.622607421875
1.65
1.6048828124999999
1.5621826171875
1.5162597656249999
1.5444580078124999
1.5799072265624998
1.5654052734375
2.27841796875
2.028662109375
1.8369140625
1.7523193359375
1.6540283203125
1.4348876953124998
1.147265625
1.019970703125
0.9627685546875
1.1351806640625
1.232666015625
1.2890625
1.3736572265625
1.4542236328125
1.4389160156249998
1.4880615234374999
1.4945068359375
1.5275390624999998
1.5235107421874998
1.5573486328125
1.4928955078125
0.7138183593749999
1.084423828125
1.21171875
1.3551269531249999
1.4550292968749998
1.5758789062499998
2.0923095703125
2.3638183593749997
2.1052001953125
1.9537353515625
1.8095214843749998
1.65966796875
1.662890625
1.6556396484375
1.6081054687499998
1.6129394531249999
1.5960205078124998
1.571044921875
1.5323730468749999
1.5492919921875
1.5565429687499999
2.27197265625
2.0625
1.8820312499999998
1.738623046875
1.6411376953124999
1.513037109375
1.3059814453124998
1.026416015625
0.9949951171875
1.0787841796875
1.232666015625
1.2906738281249999
1.36962890625
1.4066894531249998
1.3881591796875
1.4477783203124999
1.4791992187499998
1.5315673828124998
1.5283447265624999
1.51787109375
1.5460693359375
0.8016357421875
0.9627685546875
1.2640869140625
1.30517578125
1.4219970703125
1.5678222656249998
1.9553466796874999
2.3517333984374997
2.196240234375
1.95615234375
1.80791015625
1.7233154296875
1.658056640625
1.6806152343749998
1.6717529296875
1.6572509765624999
1.5565429687499999
1.546875
1.585546875
1.56943359375
1.5517089843749998
2.0133544921874997
2.1076171875
1.8860595703124998
1.8046875
1.6371093749999999
1.506591796875
1.3092041015625
1.0836181640625
0.9611572265624999
1.052197265625
1.1674072265625
1.2802001953125
1.340625
1.4252197265625
1.42119140625
1.4510009765624998
1.4872558593749998
1.5251220703125
1.5484863281249999
1.53720703125
1.5380126953125
0.7968017578125
0.9434326171874999
1.17626953125
1.232666015625
1.40830078125
1.5807128906249999
1.7015624999999999
2.3678466796874997
2.2534423828125
2.0488037109375
1.803076171875
1.703173828125
1.6862548828125
1.64677734375
1.6475830078125
1.67578125
1.6427490234375
1.561376953125
1.55009765625
1.5355957031249998
1.52109375
1.8957275390625
2.2421630859375
1.960986328125
1.8183837890624999
1.7152587890625
1.5484863281249999
1.3470703124999999
1.08603515625
0.9273193359374999
1.036083984375
1.1802978515625
1.2536132812499998
1.327734375
1.3873535156249999
1.426025390625
1.4767822265625
1.5057861328125
1.5162597656249999
1.5001464843749999
1.5428466796875
1.5654052734375
1.09892578125
0.7943847656249999
1.1706298828125
1.2802001953125
1.4026611328124998
1.5380126953125
1.6645019531249998
2.3138671875
2.2913085937499997
2.0584716796875
1.883642578125
1.7603759765625
1.6878662109375
1.6612792968749999
1.6290527343749999
1.6443603515624998
1.658056640625
1.58232421875
1.5533203125
1.5645996093749999
1.5533203125
1.5364013671874999
2.2196044921875
1.9754882812499999
1.8796142578125
