2.1680419921875
1.8046875
1.7297607421874999
1.7039794921875
1.5404296874999999
1.4187744140624998
1.22783203125
1.0739501953125
1.1537109374999999
1.2640869140625
1.3478759765625
1.3865478515624998
1.42119140625
1.4711425781249998
1.45341796875
1.5041748046874999
1.5323730468749999
1.53076171875
1.5090087890625
1.5090087890625
1.482421875
0.93779296875
1.2705322265624999
1.3551269531249999
1.4381103515625
1.53720703125
1.63388671875
2.1760986328125
2.0657226562499997
1.8925048828125
1.76279296875
1.6773925781249999
1.64677734375
1.6290527343749999
1.6491943359374999
1.622607421875
1.5791015625
1.558154296875
1.5597656249999998
1.56298828125
1.5589599609375
1.5525146484374999
2.1857666015625
1.89169921875
1.7152587890625
1.6894775390624999
1.611328125
1.4993408203124998
1.2350830078125
1.0900634765625
1.13115234375
1.2544189453124999
1.313232421875
1.3801025390625
1.4308593749999998
1.456640625
1.4413330078125
1.477587890625
1.5509033203125
1.5355957031249998
1.5218994140625
1.545263671875
1.5380126953125
0.8564208984374999
1.2616699218749998
1.3188720703124999
1.3905761718749998
1.4888671875
1.611328125
2.1624023437499997
2.157568359375
1.8989501953124999
1.7740722656249999
1.7072021484375
1.6822265625
1.60166015625
1.6161621093749998
1.603271484375
1.5879638671874998
1.5766845703124999
1.587158203125
1.5364013671874999
1.529150390625
1.5412353515625
2.2083251953125
1.9037841796875
1.78857421875
1.7313720703125
1.603271484375
1.5057861328125
1.2818115234374998
1.1021484375
1.1029541015625
1.2205810546875
1.3422363281249998
1.380908203125
1.3744628906249998
1.44052734375
1.4461669921875
1.4800048828124999
1.52109375
1.5218994140625
1.538818359375
1.5460693359375
1.5090087890625
0.8403076171874999
1.152099609375
1.3253173828125
1.4139404296875
1.4848388671875
1.5702392578125
2.1221191406249997
2.2018798828125
1.996435546875
1.764404296875
1.69833984375
1.6451660156249999
1.635498046875
1.61455078125
1.5927978515624999
1.587158203125
1.5517089843749998
1.5347900390625
1.5436523437499998
1.5533203125
1.5597656249999998
2.0214111328124997
2.0568603515625
1.7692382812499998
1.7507080078125
1.662890625
1.5114257812499998
1.2455566406249998
1.1923828125
1.103759765625
1.2060791015624999
1.3229003906249999
1.3656005859375
1.409912109375
1.4364990234375
1.45341796875
1.4880615234374999
1.496923828125
1.5492919921875
1.529150390625
1.538818359375
1.5404296874999999
0.97001953125
1.15048828125
1.2979248046874998
1.3527099609375
1.46953125
1.561376953125
1.8014648437499998
2.2179931640625
1.98193359375
1.8328857421875
1.7233154296875
1.65966796875
1.6524169921874998
1.6121337890624998
1.6218017578125
1.6209960937499999
1.5726562499999999
1.5541259765625
1.58232421875
1.5750732421875
1.574267578125
1.9835449218749999
2.067333984375
1.8441650390625
1.73056640625
1.619384765625
1.513037109375
1.426025390625
1.2076904296875
1.0763671875
1.1738525390624999
1.2818115234374998
1.368017578125
1.3825195312499998
1.4203857421875
1.448583984375
1.4945068359375
1.5251220703125
1.5057861328125
1.5251220703125
1.5436523437499998
1.513037109375
1.044140625
0.9708251953125
1.297119140625
1.3575439453125
1.4542236328125
1.5331787109375
1.72412109375
2.22041015625
2.0826416015625
1.828857421875
1.7200927734375
1.6975341796874999
1.6459716796875
1.6290527343749999
1.6169677734374999
1.5791015625
1.5839355468749998
1.56943359375
1.5702392578125
1.5799072265624998
1.5380126953125
1.5484863281249999
2.0576660156249997
1.8046875
1.7700439453124999
1.7370117187499998
1.5589599609375
1.464697265625
1.2431396484375
1.094091796875
1.1577392578124999
1.2737548828124998
1.3398193359375
1.380908203125
1.3986328124999998
1.43408203125
1.482421875
1.50498046875
1.55009765625
1.5347900390625
1.5146484375
1.5364013671874999
1.1448486328125
0.9015380859375
1.264892578125
1.3382080078124998
1.4445556640625
1.5315673828124998
1.63388671875
2.2494140625
2.0955322265625
1.9070068359374999
1.751513671875
1.6798095703125
1.6290527343749999
1.6443603515624998
1.6395263671875
1.6266357421875
1.5968261718749999
1.558154296875
1.53720703125
1.5557373046874998
1.561376953125
1.538818359375
2.18173828125
1.8949218749999999
1.7418457031249999
1.67900390625
1.6161621093749998
1.4332763671875
1.1996337890625
1.1029541015625
1.164990234375
1.2705322265624999
1.364794921875
1.3873535156249999
1.4228027343749998
1.4655029296875
1.4687255859375
1.4767822265625
1.5138427734375
1.5138427734375
1.5122314453124999
1.5267333984375
1.5299560546875
0.8523925781249999
1.24072265625
1.3148437499999999
1.4147460937499998
1.525927734375
1.6024658203125
2.0649169921875
2.1648193359375
1.93359375
1.77568359375
1.7265380859375
1.6427490234375
1.6451660156249999
1.6572509765624999
1.6218017578125
1.5968261718749999
1.5637939453124998
1.5492919921875
1.5436523437499998
1.546875
1.554931640625
2.2051025390625
1.9352050781249999
1.7748779296875
1.7055908203124999
1.587158203125
1.51787109375
1.2383056640624999
1.0916748046875
1.09892578125
1.2221923828124999
1.3180664062499998
1.3929931640625
1.3784912109374998
1.4630859374999998
1.4373046875
1.490478515625
1.5194824218749998
1.5122314453124999
1.5243164062499999
1.5355957031249998
1.5057861328125
0.8113037109375
1.134375
1.3631835937499999
1.405078125
1.4912841796874998
1.585546875
1.9118408203125
2.2083251953125
1.9956298828124999
1.7974365234374998
1.738623046875
1.6765869140624998
1.6540283203125
1.6322753906249998
1.611328125
1.6081054687499998
1.5565429687499999
1.5686279296874999
1.5734619140625
1.5734619140625
1.53076171875
1.9875732421874999
1.9343994140624998
1.7748779296875
1.7249267578124998
1.641943359375
1.5090087890625
1.284228515625
1.1722412109375
1.119873046875
1.2181640624999999
1.3188720703124999
1.3817138671875
1.3881591796875
1.4171630859375
1.4429443359374998
1.4767822265625
1.5154541015624998
1.5315673828124998
1.5492919921875
1.5444580078124999
1.5218994140625
0.8483642578124999
1.09248046875
1.300341796875
1.3639892578125
1.4864501953125
1.6008544921874999
1.7015624999999999
2.2236328125
2.0407470703125
1.8489990234375
1.6959228515625
1.6572509765624999
1.6314697265625
1.6218017578125
1.622607421875
1.6129394531249999
1.561376953125
1.561376953125
1.5605712890624999
1.5565429687499999
1.5331787109375
1.883642578125
2.0681396484375
1.8087158203125
1.7217041015624999
1.6209960937499999
1.5533203125
1.3704345703124998
1.1802978515625
1.06669921875
1.2052734375
1.3124267578125
1.37607421875
1.4066894531249998
1.4364990234375
1.4461669921875
1.4864501953125
1.4993408203124998
1.50498046875
1.53076171875
1.53720703125
1.5557373046874998
1.126318359375
0.952294921875
1.3180664062499998
1.3527099609375
1.44052734375
1.6234130859375
1.7096191406249999
2.2187988281249997
2.028662109375
1.8377197265624998
1.7418457031249999
1.6862548828125
1.6169677734374999
1.6169677734374999
1.6185791015625
1.6121337890624998
1.5766845703124999
1.571044921875
1.5678222656249998
1.5573486328125
1.5404296874999999
1.5347900390625
2.112451171875
1.8506103515624999
1.754736328125
1.6588623046875
1.571044921875
1.456640625
1.1867431640625
1.0675048828125
1.164990234375
1.2536132812499998
1.3527099609375
1.3929931640625
1.4300537109375
1.413134765625
1.4711425781249998
1.5073974609374998
1.5041748046874999
1.5275390624999998
1.5396240234374998
1.545263671875
1.2221923828124999
0.9402099609375
1.248779296875
1.35673828125
1.4356933593749999
1.50498046875
1.6371093749999999
2.144677734375
2.1470947265625
1.96904296875
1.7748779296875
1.6798095703125
1.64677734375
1.6443603515624998
1.6153564453125
1.6137451171875
1.5662109375
1.5605712890624999
1.5662109375
1.5686279296874999
1.546875
1.5533203125
2.19140625
1.8489990234375
1.7458740234374999
1.6943115234375
1.5839355468749998
1.458251953125
1.187548828125
1.110205078125
1.1698242187499999
1.248779296875
1.33740234375
1.380908203125
1.405078125
1.4389160156249998
1.5082031249999999
1.506591796875
1.5275390624999998
1.529150390625
1.5323730468749999
1.5380126953125
1.5404296874999999
0.9152343749999999
1.239111328125
1.3607666015625
1.40830078125
1.5194824218749998
1.6161621093749998
2.0197998046875
2.118896484375
1.9392333984374999
1.78857421875
1.69833984375
1.6322753906249998
1.6427490234375
1.6379150390625
1.6137451171875
1.5662109375
1.577490234375
1.5863525390625
1.5436523437499998
1.5734619140625
1.5726562499999999
2.17529296875
1.920703125
1.767626953125
1.7023681640625
1.6056884765625
1.5082031249999999
1.1754638671875
1.1126220703125
1.110205078125
1.2495849609374998
1.3309570312499999
1.3825195312499998
1.4026611328124998
1.4429443359374998
1.4461669921875
1.48564453125
1.525927734375
1.5484863281249999
1.5275390624999998
1.5323730468749999
1.529150390625
0.8612548828125
1.2310546875
1.335791015625
1.37607421875
1.4888671875
1.590380859375
1.998046875
2.189794921875
1.944873046875
1.7926025390625
1.7072021484375
1.65
1.6556396484375
1.6379150390625
1.6089111328124999
1.5887695312499999
1.5492919921875
1.5444580078124999
1.5492919921875
1.5476806640624998
1.5525146484374999
2.183349609375
1.925537109375
1.7523193359375
1.7362060546875
1.6330810546874999
1.53720703125
1.3559326171875
1.11181640625
1.103759765625
1.2044677734375
1.319677734375
1.3502929687499998
1.3656005859375
1.448583984375
1.4469726562499998
1.4993408203124998
1.4953124999999998
1.5235107421874998
1.53720703125
1.5533203125
1.5267333984375
0.871728515625
1.0973144531249999
1.3229003906249999
1.3833251953124999
1.46953125
1.577490234375
1.848193359375
2.209130859375
2.0214111328124997
1.867529296875
1.72412109375
1.67578125
1.6564453124999998
1.6137451171875
1.6024658203125
1.635498046875
1.5670166015625
1.5637939453124998
1.55009765625
1.5355957031249998
1.585546875
1.8949218749999999
2.075390625
1.7619873046874999
1.7152587890625
1.6451660156249999
1.5202880859374999
1.3083984375
1.1939941406249999
1.09248046875
1.19560546875
1.2995361328125
1.36962890625
1.384130859375
1.4091064453125
1.4284423828125
1.4864501953125
1.4961181640624999
1.5347900390625
1.5138427734375
1.5517089843749998
1.545263671875
1.1690185546875
1.0803955078125
1.3261230468749998
1.3792968749999999
1.482421875
1.5831298828125
1.662890625
2.2179931640625
2.07216796875
1.8586669921874999
1.7217041015624999
1.6572509765624999
1.6451660156249999
1.6056884765625
1.6185791015625
1.6153564453125
1.5654052734375
1.561376953125
1.5960205078124998
1.5565429687499999
1.5509033203125
1.7781005859374999
2.080224609375
1.84013671875
1.7619873046874999
1.674169921875
1.5670166015625
1.4759765624999999
1.1819091796874999
1.0650878906249999
1.1456542968749999
1.2802001953125
1.3664062499999998
1.3849365234375
1.4477783203124999
1.45341796875
1.4840332031249999
1.4791992187499998
1.5057861328125
1.5162597656249999
1.5428466796875
1.5267333984375
1.239111328125
0.9216796875
1.2938964843749998
1.329345703125
1.400244140625
1.5114257812499998
1.6733642578124999
2.1954345703125
2.1277587890625
1.8763916015625
1.7450683593749998
1.687060546875
1.6508056640625
1.6532226562499999
1.61455078125
1.6290527343749999
1.56943359375
1.558154296875
1.5597656249999998
1.5541259765625
1.5404296874999999
1.5396240234374998
2.1003662109375
1.8175781249999998
1.748291015625
1.6927001953124998
1.5887695312499999
1.4816162109375
1.206884765625
1.1053710937499999
1.1464599609375
1.2697265624999998
1.361572265625
1.38896484375
1.41796875
1.456640625
1.4759765624999999
1.513037109375
1.5275390624999998
1.5017578125
1.5476806640624998
1.5412353515625
1.3881591796875
0.8958984375
1.2439453125
1.340625
1.432470703125
1.5194824218749998
1.5879638671874998
2.0826416015625
2.1543457031249997
1.977099609375
1.7700439453124999
1.6773925781249999
1.6282470703124998
1.6137451171875
1.6081054687499998
1.6427490234375
1.5992431640625
1.5621826171875
1.5637939453124998
1.574267578125
1.5565429687499999
1.5412353515625
2.152734375
1.9078125
1.7595703125
1.69833984375
1.6346923828125
1.4800048828124999
1.2205810546875
1.123095703125
1.1432373046875
1.26005859375
1.3446533203125
1.3873535156249999
1.40830078125
1.4550292968749998
1.4115234374999999
1.4791992187499998
1.5138427734375
1.509814453125
1.51787109375
1.53076171875
1.5275390624999998
0.8749511718749999
1.21494140625
1.3470703124999999
1.3913818359374999
1.50498046875
1.60166015625
1.8739746093749998
2.199462890625
1.973876953125
1.8095214843749998
1.738623046875
1.64677734375
1.658056640625
1.6048828124999999
1.6371093749999999
1.5670166015625
1.5799072265624998
1.5645996093749999
1.5533203125
1.554931640625
1.5122314453124999
2.1438720703125
1.9513183593749999
1.7652099609374998
1.72412109375
1.6250244140624999
1.5082031249999999
1.3929931640625
1.15693359375
1.0803955078125
1.164990234375
1.3220947265624998
1.3857421875
1.405078125
1.4445556640625
1.442138671875
1.4872558593749998
1.506591796875
1.5444580078124999
1.545263671875
1.5355957031249998
1.538818359375
0.897509765625
1.1110107421875
1.3382080078124998
1.3688232421875
1.46630859375
1.5911865234375
1.861083984375
2.209130859375
2.0109375
1.82724609375
1.7233154296875
1.654833984375
1.6540283203125
1.6379150390625
1.6371093749999999
1.6266357421875
1.585546875
1.5597656249999998
1.5484863281249999
1.5565429687499999
1.5404296874999999
1.8344970703124999
1.9505126953124998
1.7893798828124998
1.7531249999999998
1.6459716796875
1.5364013671874999
1.3736572265625
1.21494140625
1.1045654296875
1.1899658203124999
1.2576416015624998
1.3599609375
1.4026611328124998
1.4510009765624998
1.4550292968749998
1.4888671875
1.5283447265624999
1.5283447265624999
1.5202880859374999
1.5235107421874998
1.5218994140625
0.9659912109375
1.0642822265625
1.3204833984375
1.3559326171875
1.4679199218749999
1.574267578125
1.6765869140624998
2.1728759765625
2.0004638671875
1.8264404296874999
1.7039794921875
1.6636962890625
1.6645019531249998
1.67578125
1.6636962890625
1.6524169921874998
1.5984375
1.5839355468749998
1.56943359375
1.5573486328125
1.545263671875
1.754736328125
2.075390625
1.8296630859374998
1.7337890624999999
1.6427490234375
1.5428466796875
1.4091064453125
1.21494140625
1.0884521484375
1.184326171875
1.2930908203125
1.3720458984375
1.364794921875
1.4276367187499999
1.4373046875
1.464697265625
1.513037109375
1.5057861328125
1.5041748046874999
1.5404296874999999
1.5476806640624998
1.2906738281249999
0.9345703125
1.3382080078124998
1.3728515625
1.4445556640625
1.6129394531249999
1.703173828125
2.2163818359375
2.0600830078125
1.8747802734374999
1.7208984374999998
1.635498046875
1.5879638671874998
1.571044921875
1.5444580078124999
1.561376953125
1.587158203125
1.6161621093749998
1.5791015625
1.5654052734375
1.5654052734375
1.5791015625
2.1132568359375
1.8546386718749999
1.7660156249999999
1.67578125
1.5791015625
1.46630859375
1.174658203125
1.0973144531249999
1.184326171875
1.2890625
1.3825195312499998
1.4107177734374998
1.4308593749999998
1.4840332031249999
1.493701171875
1.490478515625
1.4888671875
1.458251953125
1.4493896484375
1.5001464843749999
1.35673828125
0.9063720703125
1.2173583984375
1.3736572265625
1.4719482421874999
1.5509033203125
1.6693359374999999
2.1704589843749997
2.115673828125
1.93681640625
1.7499023437499999
1.6250244140624999
1.5927978515624999
1.5895751953125
1.6153564453125
1.64677734375
1.5831298828125
1.5782958984375
1.5791015625
1.577490234375
1.5662109375
1.5283447265624999
2.18173828125
1.8385253906249999
1.7571533203124998
1.7047851562499998
1.5807128906249999
1.5073974609374998
1.2568359375
1.1375976562499999
1.1899658203124999
1.2898681640624998
1.3422363281249998
1.4195800781249999
1.3865478515624998
1.4147460937499998
1.4542236328125
1.4735595703125
1.4791992187499998
1.53076171875
1.5146484375
1.53720703125
1.558154296875
0.8926757812499999
1.2189697265625
1.340625
1.3905761718749998
1.4880615234374999
1.5758789062499998
1.8111328125
2.19140625
2.00771484375
1.8336914062499998
1.7249267578124998
1.6379150390625
1.6298583984375
1.6322753906249998
1.662890625
1.587158203125
1.5347900390625
1.5122314453124999
1.5396240234374998
1.5082031249999999
1.5243164062499999
2.1825439453124997
1.9376220703125
1.7692382812499998
1.714453125
1.6346923828125
1.546875
1.24072265625
1.15048828125
1.103759765625
1.2318603515625
1.297119140625
1.3599609375
1.4195800781249999
1.4364990234375
1.4526123046875
1.5154541015624998
1.513037109375
1.5090087890625
1.50498046875
1.5355957031249998
1.542041015625
0.9007324218749999
1.1931884765625
1.348681640625
1.3817138671875
1.461474609375
1.5734619140625
1.861083984375
2.2026855468749997
1.9754882812499999
1.8441650390625
1.7281494140625
1.6379150390625
1.6314697265625
1.609716796875
1.6435546875
1.5791015625
1.55009765625
1.5492919921875
1.5533203125
1.545263671875
1.5718505859374998
2.1333984375
1.9795166015624999
1.77568359375
1.7297607421874999
1.641943359375
1.5299560546875
1.40185546875
1.110205078125
1.052197265625
1.1408203125
1.34384765625
1.3962158203125
1.4550292968749998
1.4977294921875
1.4993408203124998
1.448583984375
1.5041748046874999
1.5243164062499999
1.5404296874999999
1.5517089843749998
1.4759765624999999
0.8531982421875
0.990966796875
1.2753662109375
1.4276367187499999
1.513037109375
1.587158203125
1.7909912109375
2.254248046875
2.099560546875
1.84013671875
1.7055908203124999
1.6733642578124999
1.6379150390625
1.6314697265625
1.6242187499999998
1.5847412109374999
1.5541259765625
1.5702392578125
1.5839355468749998
1.571044921875
1.529150390625
1.7362060546875
2.0955322265625
1.7893798828124998
1.7297607421874999
1.6483886718749998
1.5218994140625
1.409912109375
1.2052734375
1.1134277343749999
1.213330078125
1.284228515625
1.35673828125
1.3478759765625
1.41796875
1.4574462890625
1.4518066406249999
1.480810546875
1.5218994140625
1.545263671875
1.561376953125
1.5444580078124999
1.332568359375
1.0320556640625
1.2938964843749998
1.348681640625
1.4671142578124998
1.5637939453124998
1.6773925781249999
2.2099365234375
2.101171875
1.8973388671875
1.7635986328125
1.6693359374999999
1.658056640625
1.6645019531249998
1.6346923828125
1.5887695312499999
1.5670166015625
1.5863525390625
1.574267578125
1.5476806640624998
1.5476806640624998
1.6403320312499998
2.12373046875
1.8361083984375
1.7378173828124999
1.683837890625
1.5766845703124999
1.3994384765624999
1.206884765625
1.1045654296875
1.1351806640625
1.268115234375
1.335791015625
1.3792968749999999
1.4195800781249999
1.429248046875
1.4437499999999999
1.482421875
1.5194824218749998
1.53076171875
1.522705078125
1.545263671875
1.405078125
0.8967041015624999
1.2866455078124999
1.35673828125
1.42119140625
1.5678222656249998
1.6371093749999999
2.1591796875
2.1454833984375
1.8828369140624999
1.7732666015624998
1.687060546875
1.6435546875
1.6653076171874999
1.6524169921874998
1.6129394531249999
1.6153564453125
1.5984375
1.6177734375
1.5782958984375
1.5170654296875
1.5283447265624999
2.1535400390625
1.8659179687499998
1.7458740234374999
1.635498046875
1.5404296874999999
1.4735595703125
1.2060791015624999
1.0675048828125
1.0948974609375
1.2463623046874999
1.3414306640625
1.368017578125
1.4123291015625
1.4679199218749999
1.4864501953125
1.477587890625
1.5202880859374999
1.5275390624999998
1.52109375
1.5299560546875
1.496923828125
0.829833984375
1.17626953125
1.3180664062499998
1.42119140625
1.4832275390624998
1.609716796875
2.0890869140625
2.1624023437499997
1.9948242187499998
1.7982421874999999
1.732177734375
1.714453125
1.6886718749999998
1.6322753906249998
1.6266357421875
1.590380859375
1.5589599609375
1.5565429687499999
1.5251220703125
1.529150390625
1.5186767578125
2.152734375
1.9529296875
1.7853515624999998
1.7410400390624998
1.63388671875
1.4872558593749998
1.1996337890625
1.1045654296875
1.1384033203125
1.235888671875
1.31162109375
1.364794921875
1.3913818359374999
1.4066894531249998
1.4284423828125
1.48564453125
1.5114257812499998
1.5428466796875
1.542041015625
1.561376953125
1.525927734375
0.878173828125
1.15048828125
1.3067871093749999
1.3390136718749999
1.4638916015624999
1.58232421875
1.7652099609374998
2.212353515625
2.031884765625
1.8699462890624998
1.7523193359375
1.67900390625
1.6636962890625
1.63388671875
1.638720703125
1.6290527343749999
1.546875
1.5404296874999999
1.5484863281249999
1.55009765625
1.558154296875
2.14951171875
2.0044921875
1.815966796875
1.7595703125
1.6508056640625
1.5073974609374998
1.2157470703125
1.139208984375
1.1287353515625
1.2012451171875
1.3108154296874999
1.3688232421875
1.3672119140624999
1.4195800781249999
1.4252197265625
1.3905761718749998
1.50498046875
1.5396240234374998
1.53076171875
1.53076171875
1.55009765625
0.903955078125
1.0610595703124999
1.3704345703124998
1.4010498046875
1.5162597656249999
1.5887695312499999
1.7797119140625
2.1857666015625
2.054443359375
1.8336914062499998
1.738623046875
1.654833984375
1.611328125
1.635498046875
1.6169677734374999
1.5879638671874998
1.5637939453124998
1.5670166015625
1.6008544921874999
1.58232421875
1.561376953125
1.74345703125
2.051220703125
1.8457763671874998
1.78857421875
1.635498046875
1.5122314453124999
1.4147460937499998
1.1480712890625
1.052197265625
1.1537109374999999
1.2536132812499998
1.3043701171875
1.3736572265625
1.3962158203125
1.4638916015624999
1.464697265625
1.5283447265624999
1.5404296874999999
1.561376953125
1.5460693359375
1.506591796875
0.897509765625
0.966796875
1.224609375
1.3664062499999998
1.4429443359374998
1.5662109375
1.6910888671875
2.3146728515625
2.193017578125
1.96904296875
1.7829345703125
1.6886718749999998
1.6854492187499999
1.590380859375
1.5347900390625
1.55009765625
1.5315673828124998
1.542041015625
1.5565429687499999
1.5589599609375
1.5267333984375
1.6773925781249999
2.1793212890625
1.85302734375
1.791796875
1.7313720703125
1.6129394531249999
1.442138671875
1.1835205078125
1.0465576171875
1.1295410156249999
1.252001953125
1.3349853515624999
1.3712402343749999
1.3873535156249999
1.4364990234375
1.4518066406249999
1.4791992187499998
1.50498046875
1.4945068359375
1.5428466796875
1.5243164062499999
1.4139404296875
0.791162109375
1.21171875
1.2584472656249999
1.3591552734374999
1.5251220703125
1.6636962890625
2.1487060546875
2.19140625
1.9754882812499999
1.828857421875
1.7104248046875
1.667724609375
1.662890625
1.6669189453125
1.6411376953124999
1.6330810546874999
1.603271484375
1.5968261718749999
1.5662109375
1.5299560546875
1.5404296874999999
2.2308837890624997
1.957763671875
1.8199951171875
1.7362060546875
1.6290527343749999
1.5025634765625
1.1061767578125
0.958740234375
1.0159423828125
1.1255126953124999
1.2544189453124999
1.340625
1.3583496093749998
1.3994384765624999
1.4598632812499999
1.47275390625
1.56943359375
1.55009765625
1.5331787109375
1.55009765625
1.4791992187499998
0.7323486328125
1.07958984375
1.2592529296875
1.3656005859375
1.4437499999999999
1.6185791015625
2.22041015625
2.312255859375
2.1052001953125
1.8344970703124999
1.7297607421874999
1.7128417968749998
1.6572509765624999
1.6298583984375
1.6612792968749999
1.5734619140625
1.571044921875
1.5766845703124999
1.546875
1.5146484375
1.5589599609375
2.2623046875
1.9271484374999999
1.8602783203125
1.7974365234374998
1.65
1.5355957031249998
1.168212890625
1.0191650390625
0.9998291015624999
1.174658203125
1.2979248046874998
1.397021484375
1.3833251953124999
1.4195800781249999
1.4493896484375
1.4638916015624999
1.4735595703125
1.4711425781249998
1.4461669921875
1.4759765624999999
1.4759765624999999
0.6815917968749999
1.052197265625
1.2374999999999998
1.3349853515624999
1.46630859375
1.5992431640625
1.912646484375
2.4081298828124997
2.1728759765625
1.9537353515625
1.799853515625
1.690283203125
1.7023681640625
1.6636962890625
1.651611328125
1.6081054687499998
1.5533203125
1.5637939453124998
1.5202880859374999
1.5347900390625
1.5758789062499998
2.2953369140624997
2.1624023437499997
1.91748046875
1.8554443359375
1.6886718749999998
1.542041015625
1.168212890625
0.974853515625
0.9257080078125
1.0409179687499999
1.1859374999999999
1.2624755859374999
1.3551269531249999
1.4058837890625
1.3986328124999998
1.44052734375
1.4800048828124999
1.50498046875
1.5025634765625
1.53720703125
1.558154296875
0.7806884765625
0.80888671875
1.1883544921875
1.2673095703125
1.4139404296875
1.593603515625
1.7716552734375
2.437939453125
2.2776123046875
2.0560546875
1.8892822265625
1.7611816406249998
1.6822265625
1.6693359374999999
1.6588623046875
1.587158203125
1.5541259765625
1.5645996093749999
1.554931640625
1.5484863281249999
1.5315673828124998
1.7378173828124999
2.2067138671874997
1.9674316406249999
1.88525390625
1.6862548828125
1.5404296874999999
1.3599609375
1.03125
0.8934814453125
1.00224609375
1.126318359375
1.2721435546875
1.3011474609375
1.3728515625
1.456640625
1.416357421875
1.4953124999999998
1.5218994140625
1.4977294921875
1.5557373046874998
1.5670166015625
0.78955078125
0.7661865234374999
1.1480712890625
1.2753662109375
1.4187744140624998
1.59521484375
1.80791015625
2.447607421875
2.2792236328124997
2.05927734375
1.8876708984375
1.7684326171875
1.6717529296875
1.6403320312499998
1.65
1.6185791015625
1.5879638671874998
1.6048828124999999
1.5960205078124998
1.5637939453124998
1.522705078125
1.6475830078125
2.30419921875
1.9762939453125
1.85625
1.7217041015624999
1.554931640625
1.400244140625
1.042529296875
0.8677001953125
1.0159423828125
1.168212890625
1.2536132812499998
1.2898681640624998
1.3527099609375
1.3736572265625
1.3978271484375
1.5154541015624998
1.546875
1.5347900390625
1.545263671875
1.546875
1.368017578125
0.75732421875
1.0852294921874999
1.1947998046875
1.3309570312499999
1.5460693359375
1.7088134765624998
2.2663330078125
2.36220703125
2.1503173828124997
1.9746826171874998
1.8054931640624998
1.7474853515625
1.6943115234375
1.6322753906249998
1.6000488281249998
1.5758789062499998
1.542041015625
1.5138427734375
1.554931640625
1.5573486328125
1.5895751953125
2.354150390625
2.0302734375
1.9078125
1.7603759765625
1.6371093749999999
1.50498046875
1.155322265625
0.9257080078125
0.9474609374999999
1.1271240234375
1.2383056640624999
1.2697265624999998
1.281005859375
1.380908203125
1.41796875
1.4542236328125
1.4945068359375
1.5073974609374998
1.5355957031249998
1.5347900390625
1.5009521484375
0.6380859375
0.9933837890624999
1.200439453125
1.3180664062499998
1.4558349609374999
1.6564453124999998
2.2260498046875
2.4556640625
2.2824462890625
1.9593749999999999
1.819189453125
1.6717529296875
1.690283203125
1.6459716796875
1.6693359374999999
1.6169677734374999
1.5984375
1.5839355468749998
1.577490234375
1.5662109375
1.5541259765625
2.3178955078125
2.0955322265625
1.9456787109375
1.7893798828124998
1.609716796875
1.477587890625
1.126318359375
0.9853271484374999
0.9345703125
1.0812011718749999
1.2173583984375
1.3108154296874999
1.2802001953125
1.37607421875
1.4219970703125
1.4501953125
1.4961181640624999
1.4719482421874999
1.4912841796874998
1.5275390624999998
1.5517089843749998
0.61552734375
0.9353759765624999
1.1529052734375
1.2745605468749999
1.4123291015625
1.5895751953125
2.0012695312499997
2.502392578125
2.2582763671875
2.0423583984375
1.82724609375
1.703173828125
1.6806152343749998
1.65
1.6620849609375
1.6056884765625
1.5839355468749998
1.5799072265624998
1.5364013671874999
1.554931640625
1.529150390625
2.3066162109375
2.2171875
1.9650146484375
1.8820312499999998
1.719287109375
1.509814453125
1.1577392578124999
0.9394042968749999
0.8531982421875
1.013525390625
1.135986328125
1.235888671875
1.271337890625
1.35673828125
1.49853515625
1.456640625
1.4977294921875
1.5267333984375
1.5235107421874998
1.5734619140625
1.5476806640624998
0.7379882812499999
0.768603515625
1.15048828125
1.252001953125
1.3873535156249999
1.5799072265624998
1.8240234375
2.4814453125
2.2840576171875
2.067333984375
1.9142578124999998
1.7845458984375
1.703173828125
1.6781982421875
1.6459716796875
1.603271484375
1.5484863281249999
1.5637939453124998
1.561376953125
1.542041015625
1.5807128906249999
1.7942138671874999
2.2236328125
1.9698486328125
1.8989501953124999
1.7104248046875
1.509814453125
1.3913818359374999
0.9498779296875
0.8080810546874999
0.95068359375
1.0658935546875
1.2286376953125
1.2906738281249999
1.3365966796875
1.3986328124999998
1.4397216796874999
1.5323730468749999
1.5750732421875
1.5726562499999999
1.5621826171875
1.5533203125
0.7677978515624999
0.758935546875
1.090869140625
1.224609375
1.3849365234375
1.5509033203125
1.77890625
2.5088378906249997
2.3879882812499997
2.1382324218749997
1.9037841796875
1.7579589843749999
1.6854492187499999
1.6427490234375
1.6798095703125
1.6234130859375
1.606494140625
1.5557373046874998
1.5444580078124999
1.5315673828124998
1.5057861328125
1.6185791015625
2.36220703125
2.01416015625
1.8949218749999999
1.7426513671875
1.5073974609374998
1.3333740234375
1.0449462890624999
0.8427246093749999
0.929736328125
1.090869140625
1.197216796875
1.3083984375
1.3712402343749999
1.4356933593749999
1.4638916015624999
1.4961181640624999
1.529150390625
1.5718505859374998
1.5251220703125
1.4848388671875
1.3833251953124999
0.7259033203124999
1.0707275390625
1.2020507812499999
1.3688232421875
1.55009765625
1.6951171875
2.4661376953125
2.447607421875
2.1978515625
1.9698486328125
1.77568359375
1.67578125
1.6379150390625
1.6443603515624998
1.5492919921875
1.5686279296874999
1.574267578125
1.5815185546875
1.5267333984375
1.5484863281249999
1.60166015625
2.466943359375
2.1277587890625
1.8900878906249998
1.7990478515625
1.6846435546874998
1.4928955078125
1.0417236328125
0.8338623046875
0.8419189453125
1.069921875
1.1786865234375
1.2439453125
1.3390136718749999
1.3929931640625
1.4574462890625
1.45341796875
1.5017578125
1.5355957031249998
1.5484863281249999
1.5533203125
1.4840332031249999
0.5808837890624999
1.0570312499999999
1.2173583984375
1.3261230468749998
1.46630859375
1.6773925781249999
2.2985595703125
2.5177001953125
2.215576171875
1.9706542968749998
1.819189453125
1.6894775390624999
1.67578125
1.6588623046875
1.6773925781249999
1.625830078125
1.5541259765625
1.6089111328124999
1.5517089843749998
1.5533203125
1.53720703125
2.4282714843749997
2.13662109375
1.9754882812499999
1.8441650390625
1.6161621093749998
1.448583984375
1.0884521484375
0.8314453125
0.8427246093749999
0.9595458984374999
1.1931884765625
1.2785888671874999
1.30517578125
1.4228027343749998
1.4526123046875
1.5041748046874999
1.5162597656249999
1.456640625
1.4993408203124998
1.50498046875
1.5637939453124998
0.57041015625
0.9152343749999999
1.106982421875
1.3075927734375
1.4332763671875
1.6218017578125
2.2341064453125
2.5257568359375
2.3694580078125
2.0947265625
1.8183837890624999
1.7265380859375
1.683837890625
1.6435546875
1.6048828124999999
1.6137451171875
1.6081054687499998
1.6040771484374998
1.5460693359375
1.5484863281249999
1.5428466796875
2.29775390625
2.276806640625
2.0012695312499997
1.8989501953124999
1.7249267578124998
1.5073974609374998
1.1255126953124999
0.9579345703125
0.797607421875
0.9804931640625
1.106982421875
1.219775390625
1.26005859375
1.3865478515624998
1.41796875
1.4026611328124998
1.5033691406249998
1.4945068359375
1.5315673828124998
1.571044921875
1.5428466796875
0.700927734375
0.8983154296875
1.148876953125
1.235888671875
1.4195800781249999
1.5758789062499998
1.9231201171874999
2.5934326171874997
2.3517333984374997
2.0810302734375
1.8884765625
1.7426513671875
1.7128417968749998
1.6701416015625
1.6645019531249998
1.585546875
1.561376953125
1.590380859375
1.5863525390625
1.55009765625
1.5484863281249999
2.22041015625
2.2647216796875
1.993212890625
1.8820312499999998
1.6967285156249998
1.5436523437499998
1.364794921875
0.9788818359375
0.800830078125
0.9224853515625
1.0948974609375
1.219775390625
1.26328125
1.3019531249999998
1.3752685546874999
1.3994384765624999
1.4711425781249998
1.4920898437499999
1.5275390624999998
1.522705078125
1.558154296875
0.7806884765625
0.694482421875
1.069921875
1.2221923828124999
1.4147460937499998
1.5484863281249999
1.8103271484374999
2.5209228515624997
2.447607421875
2.17529296875
1.931982421875
1.8216064453124998
1.7337890624999999
1.6781982421875
1.658056640625
1.6298583984375
1.5984375
1.6379150390625
1.60166015625
1.5243164062499999
1.513037109375
1.5984375
2.42666015625
2.0794189453125
1.899755859375
1.7450683593749998
1.546875
1.3905761718749998
1.045751953125
0.7887451171875
0.887841796875
1.042529296875
1.184326171875
1.2640869140625
1.30517578125
1.3857421875
1.4276367187499999
1.4759765624999999
1.49853515625
1.5170654296875
1.529150390625
1.506591796875
1.480810546875
0.6985107421875
1.0739501953125
1.1512939453125
1.3672119140624999
1.5355957031249998
1.7370117187499998
2.3678466796874997
2.5152832031249996
2.2598876953125
2.00771484375
1.8232177734375
1.6822265625
1.683837890625
1.651611328125
1.5831298828125
1.5791015625
1.5484863281249999
1.5815185546875
1.5686279296874999
1.53720703125
1.5678222656249998
2.44599609375
2.1825439453124997
1.9384277343749998
1.8111328125
1.6371093749999999
1.4252197265625
0.9692138671874999
0.7863281249999999
0.8290283203125
1.0578369140625
1.1883544921875
1.276171875
1.3043701171875
1.3704345703124998
1.38896484375
1.4735595703125
1.4848388671875
1.4993408203124998
1.5428466796875
1.5251220703125
1.5299560546875
0.5712158203125
0.8918701171875
1.1367919921875
1.303564453125
1.4155517578124999
1.6564453124999998
2.4000732421874997
2.54267578125
2.2905029296875
2.023828125
1.84013671875
1.76279296875
1.7039794921875
1.6636962890625
1.6081054687499998
1.5492919921875
1.53076171875
1.5726562499999999
1.5847412109374999
1.5509033203125
1.5565429687499999
2.38154296875
2.1785156249999997
1.9698486328125
1.880419921875
1.690283203125
1.5251220703125
1.110205078125
0.813720703125
0.79921875
0.9571289062499999
1.0836181640625
1.2173583984375
1.27939453125
1.3736572265625
1.4252197265625
1.4711425781249998
1.55009765625
1.529150390625
1.5218994140625
1.5355957031249998
1.5347900390625
0.49951171875
0.8515869140625
1.1013427734374999
1.2568359375
1.4155517578124999
1.6177734375
1.85947265625
2.5894042968749997
2.40732421875
2.1728759765625
1.867529296875
1.7700439453124999
1.7531249999999998
1.7208984374999998
1.687060546875
1.6669189453125
1.6008544921874999
1.5380126953125
1.5154541015624998
1.5041748046874999
1.4276367187499999
2.2212158203125
2.2937255859375
2.0657226562499997
1.896533203125
1.7531249999999998
1.5323730468749999
1.0578369140625
0.9087890624999999
0.7774658203125
0.9249023437499999
1.0803955078125
1.1980224609374999
1.27939453125
1.44052734375
1.4920898437499999
1.4276367187499999
1.47275390625
1.4703369140625
1.4848388671875
1.5186767578125
1.5525146484374999
0.7379882812499999
0.668701171875
1.069921875
1.2020507812499999
1.3317626953125
1.5968261718749999
1.812744140625
2.6014892578124997
2.4226318359375
2.165625
1.9537353515625
1.7893798828124998
1.7289550781249998
1.6991455078125
1.683837890625
1.6532226562499999
1.561376953125
1.5057861328125
1.5331787109375
1.5106201171875
1.5637939453124998
1.6669189453125
2.36220703125
2.1342041015624997
1.9787109374999998
1.8103271484374999
1.590380859375
1.3398193359375
0.8483642578124999
0.7001220703125
0.855615234375
1.04736328125
1.1915771484375
1.2938964843749998
1.3430419921874999
1.3704345703124998
1.3905761718749998
1.4510009765624998
1.5235107421874998
1.5565429687499999
1.545263671875
1.545263671875
0.6856201171874999
0.58974609375
0.9877441406249999
1.1561279296875
1.3422363281249998
1.5734619140625
1.9078125
2.624853515625
2.5048095703124997
2.257470703125
2.0109375
1.791796875
1.6927001953124998
1.6177734375
1.6379150390625
1.6250244140624999
1.5992431640625
1.5887695312499999
1.5919921874999998
1.5831298828125
1.5662109375
1.5960205078124998
2.4911132812499996
2.09150390625
1.9198974609375
1.7861572265624999
1.4872558593749998
1.319677734375
0.9321533203125
0.720263671875
0.8064697265624999
1.0030517578125
1.1915771484375
1.2987304687499999
1.3784912109374998
1.4308593749999998
1.4308593749999998
1.4920898437499999
1.4880615234374999
1.5122314453124999
1.5412353515625
1.538818359375
1.4993408203124998
0.6131103515624999
0.9466552734375
1.0981201171875
1.2431396484375
1.5082031249999999
1.7015624999999999
2.39765625
2.631298828125
2.3356201171874997
2.038330078125
1.8119384765625
1.735400390625
1.719287109375
1.699951171875
1.6524169921874998
1.6185791015625
1.5766845703124999
1.5621826171875
1.5404296874999999
1.5194824218749998
1.5565429687499999
2.5458984375
2.2357177734375
2.028662109375
1.832080078125
1.667724609375
1.4840332031249999
0.9917724609374999
0.7476562499999999
0.7315429687499999
0.9313476562499999
1.0916748046875
1.2262207031249999
1.2455566406249998
1.3390136718749999
1.36962890625
1.4703369140625
1.5404296874999999
1.5251220703125
1.5509033203125
1.56298828125
1.5106201171875
0.4439208984375
0.797607421875
1.0900634765625
1.27294921875
1.464697265625
1.7120361328125
2.3742919921875
2.70703125
2.46533203125
2.0761962890625
1.88525390625
1.7531249999999998
1.7217041015624999
1.6765869140624998
1.6395263671875
1.5960205078124998
1.5557373046874998
1.574267578125
1.5541259765625
1.5235107421874998
1.529150390625
2.358984375
2.2341064453125
2.031884765625
1.9037841796875
1.6910888671875
1.5025634765625
1.1480712890625
0.8822021484375
0.7049560546875
0.8507812499999999
1.018359375
1.187548828125
1.2769775390625
1.35673828125
1.40185546875
1.5243164062499999
1.51787109375
1.522705078125
1.5082031249999999
1.5404296874999999
1.5138427734375
0.45439453124999996
0.7927734375
1.052197265625
1.1617675781249999
1.4252197265625
1.587158203125
1.9940185546875
2.663525390625
2.4927246093749997
2.22041015625
1.8860595703124998
1.7619873046874999
1.6830322265625
1.6403320312499998
1.6411376953124999
1.6636962890625
1.5573486328125
1.546875
1.542041015625
1.5412353515625
1.538818359375
2.309033203125
2.3420654296875
2.0737792968749997
1.94970703125
1.7168701171874998
1.5299560546875
1.04736328125
0.8749511718749999
0.7323486328125
0.863671875
1.0481689453125
1.126318359375
1.1400146484375
1.281005859375
1.35673828125
1.413134765625
1.5090087890625
1.506591796875
1.5251220703125
1.5484863281249999
1.5355957031249998
0.6517822265625
0.5744384765625
1.0489746093749999
1.155322265625
1.335791015625
1.56298828125
1.8820312499999998
2.7336181640625
2.599072265625
2.3195068359374997
2.04638671875
1.8570556640625
1.7184814453125
1.6669189453125
1.706396484375
1.683837890625
1.5565429687499999
1.5509033203125
1.5186767578125
1.5589599609375
1.5460693359375
1.6475830078125
2.4363281249999997
2.1180908203124997
1.96904296875
1.7337890624999999
1.525927734375
1.3430419921874999
0.968408203125
0.6767578125
0.7919677734374999
0.9450439453124999
1.168212890625
1.2318603515625
1.268115234375
1.35673828125
1.380908203125
1.480810546875
1.5323730468749999
1.545263671875
1.5782958984375
1.5605712890624999
0.7460449218749999
0.5341552734375
0.9112060546874999
1.1303466796875
1.268115234375
1.5275390624999998
1.714453125
2.6860839843749997
2.6683593749999996
2.389599609375
2.028662109375
1.8377197265624998
1.71123046875
1.6653076171874999
1.67900390625
1.6524169921874998
1.6306640625
1.5444580078124999
1.5887695312499999
1.58232421875
1.55009765625
1.5597656249999998
2.5531494140624997
2.193017578125
1.9625976562499998
1.8763916015625
1.6967285156249998
1.3946044921874998
0.9079833984375
0.7065673828125
0.765380859375
0.9676025390624999
1.1239013671875
1.1561279296875
1.2157470703125
1.3510986328124999
1.4147460937499998
1.4550292968749998
1.50498046875
1.4840332031249999
1.5154541015624998
1.5484863281249999
1.5396240234374998
0.5671875
0.9579345703125
1.09248046875
1.2640869140625
1.53076171875
1.674169921875
2.5015869140625
2.6683593749999996
2.39765625
2.067333984375
1.848193359375
1.8014648437499998
1.7660156249999999
1.66611328125
1.6008544921874999
1.5686279296874999
1.5831298828125
1.545263671875
1.5404296874999999
1.5364013671874999
1.5541259765625
2.560400390625
2.2808349609375
2.0979492187499997
1.9150634765624999
1.7007568359374998
1.4711425781249998
0.9498779296875
0.6276123046875
0.636474609375
0.8644775390624999
1.0570312499999999
1.1794921875
1.276171875
1.3704345703124998
1.38896484375
1.432470703125
1.5235107421874998
1.5315673828124998
1.5517089843749998
1.525927734375
1.5347900390625
0.43344726562499997
0.7218749999999999
1.0481689453125
1.1939941406249999
1.40830078125
1.7007568359374998
2.3630126953125
2.7626220703124997
2.49755859375
2.160791015625
1.9795166015624999
1.7821289062499999
1.735400390625
1.703173828125
1.6822265625
1.6201904296874998
1.5726562499999999
1.5444580078124999
1.529150390625
1.509814453125
1.4953124999999998
2.41376953125
2.370263671875
2.1333984375
1.964208984375
1.67578125
1.5299560546875
0.990966796875
0.7025390625
0.6380859375
0.758935546875
0.9861328125
1.116650390625
1.1698242187499999
1.316455078125
1.3188720703124999
1.4550292968749998
1.529150390625
1.5662109375
1.585546875
1.5847412109374999
1.5791015625
0.3875244140625
0.6598388671875
0.9498779296875
1.1335693359374999
1.3865478515624998
1.6653076171874999
1.94970703125
2.8238525390625
2.6433837890625
2.3452880859375
1.9916015624999999
1.7684326171875
1.706396484375
1.7233154296875
1.66611328125
1.6564453124999998
1.587158203125
1.59521484375
1.56298828125
1.5146484375
1.5275390624999998
2.3485107421875
2.4846679687499997
2.141455078125
2.002880859375
1.7845458984375
1.6024658203125
1.126318359375
0.7242919921875
0.507568359375
0.6614501953124999
0.9071777343749999
1.0892578124999999
1.2205810546875
1.3172607421875
1.348681640625
1.3962158203125
1.5122314453124999
1.5444580078124999
1.5605712890624999
1.5621826171875
1.5436523437499998
0.6147216796875
0.6380859375
0.9152343749999999
1.106982421875
1.2753662109375
1.5984375
1.91748046875
2.848828125
2.6933349609375
2.4169921875
2.1374267578125
1.8828369140624999
1.7684326171875
1.7152587890625
1.716064453125
1.6379150390625
1.5492919921875
1.4961181640624999
1.5162597656249999
1.4953124999999998
1.46953125
2.2276611328125
2.5201171875
2.2236328125
2.0810302734375
1.85625
1.5839355468749998
1.361572265625
0.81533203125
0.5607421874999999
0.6090820312499999
0.8419189453125
1.0465576171875
1.1738525390624999
1.2689208984375
1.3962158203125
1.405078125
1.4719482421874999
1.5235107421874998
1.55009765625
1.5347900390625
1.55009765625
0.7387939453125
0.436669921875
0.8048583984375
1.0852294921874999
1.287451171875
1.522705078125
1.9037841796875
2.7747070312499997
2.8206298828125
2.4814453125
2.1873779296875
1.9553466796874999
1.79501953125
1.732177734375
1.6959228515625
1.5799072265624998
1.6161621093749998
1.5815185546875
1.5750732421875
1.53076171875
1.5106201171875
1.4864501953125
2.582958984375
2.26875
2.135009765625
1.9215087890625
1.6282470703124998
1.3478759765625
0.8886474609374999
0.4874267578125
0.5696044921875
0.8129150390625
0.9837158203124999
1.1384033203125
1.2310546875
1.3237060546875
1.4308593749999998
1.4912841796874998
1.5154541015624998
1.5186767578125
1.5380126953125
1.533984375
1.5186767578125
0.4149169921875
0.7146240234375
0.9555175781249999
1.2818115234374998
1.4953124999999998
1.6604736328124998
2.7884033203125
2.8947509765625
2.6256591796874997
2.30419921875
2.022216796875
1.8038818359375
1.7426513671875
1.6878662109375
1.6346923828125
1.5734619140625
1.525927734375
1.5396240234374998
1.5202880859374999
1.493701171875
1.5315673828124998
2.624853515625
2.40732421875
2.1301757812499997
1.9867675781249998
1.767626953125
1.3946044921874998
0.816943359375
0.5325439453124999
0.49064941406249996
0.7839111328124999
0.936181640625
1.10859375
1.2318603515625
1.3180664062499998
1.364794921875
1.4477783203124999
1.5791015625
1.5686279296874999
1.56298828125
1.5347900390625
1.5114257812499998
0.31662597656249997
0.7758544921874999
0.9756591796874999
1.1537109374999999
1.4356933593749999
1.674169921875
2.5394531249999996
2.8697753906249996
2.6103515625
2.309033203125
2.075390625
1.7974365234374998
1.7337890624999999
1.7047851562499998
1.66611328125
1.6008544921874999
1.5750732421875
1.5380126953125
1.542041015625
1.5364013671874999
1.5001464843749999
2.6111572265625
2.38154296875
2.1543457031249997
1.9650146484375
1.7660156249999999
1.533984375
1.0675048828125
0.62197265625
0.517236328125
0.6405029296875
0.9007324218749999
1.095703125
1.1496826171874999
1.3229003906249999
1.3422363281249998
1.4961181640624999
1.56298828125
1.5541259765625
1.5895751953125
1.6048828124999999
1.5436523437499998
0.34482421874999997
0.62841796875
1.042529296875
1.187548828125
1.393798828125
1.6072998046875
2.3614013671875
2.81982421875
2.6361328124999996
2.309033203125
2.0117431640625
1.832080078125
1.7337890624999999
1.719287109375
1.63388671875
1.6161621093749998
1.5654052734375
1.5702392578125
1.5637939453124998
1.5122314453124999
1.4896728515625
2.3050048828125
2.47822265625
2.0971435546875
1.9754882812499999
1.7611816406249998
1.4800048828124999
1.0207763671874999
0.7927734375
0.6171386718749999
0.7073730468749999
0.9466552734375
1.14404296875
1.2101074218749999
1.3156494140625
1.3817138671875
1.4687255859375
1.5436523437499998
1.5597656249999998
1.5944091796875
1.590380859375
1.5807128906249999
0.7412109375
0.7259033203124999
0.9821044921875
1.1609619140625
1.4058837890625
1.574267578125
1.76279296875
2.65869140625
2.586181640625
2.2534423828125
2.0334960937499997
1.8143554687499999
1.7499023437499999
1.6822265625
1.6733642578124999
1.6717529296875
1.59521484375
1.5807128906249999
1.542041015625
1.533984375
1.574267578125
2.109228515625
2.34609375
2.064111328125
1.9384277343749998
1.780517578125
1.577490234375
1.3736572265625
0.920068359375
0.7226806640625
0.80888671875
1.010302734375
1.152099609375
1.26328125
1.3027587890624999
1.3478759765625
1.426025390625
1.4953124999999998
1.5380126953125
1.5194824218749998
1.5186767578125
1.5412353515625
0.8822021484375
0.66064453125
1.077978515625
1.1835205078125
1.3027587890624999
1.4816162109375
1.7692382812499998
2.5805419921875
2.55234375
2.212353515625
1.996435546875
1.8167724609375
1.6846435546874998
1.6943115234375
1.662890625
1.6612792968749999
1.5791015625
1.6105224609375
1.5944091796875
1.545263671875
1.5194824218749998
1.5082031249999999
2.373486328125
2.102783203125
1.920703125
1.8296630859374998
1.5807128906249999
1.41796875
1.0594482421875
0.80888671875
0.9047607421874999
1.0513916015625
1.2093017578125
1.284228515625
1.3817138671875
1.4244140625
1.448583984375
1.49853515625
1.5122314453124999
1.5283447265624999
1.5235107421874998
1.5138427734375
1.0755615234375
0.6582275390625
1.04736328125
1.2020507812499999
1.380908203125
1.5251220703125
1.6556396484375
2.3646240234375
2.4065185546875
2.1825439453124997
1.9400390625
1.764404296875
1.6991455078125
1.6636962890625
1.6508056640625
1.6411376953124999
1.6048828124999999
1.546875
1.5799072265624998
1.5492919921875
1.5565429687499999
1.529150390625
2.38154296875
2.11728515625
1.8739746093749998
1.7490966796874998
1.64677734375
1.43408203125
1.0803955078125
0.9079833984375
0.9079833984375
1.103759765625
1.200439453125
1.281005859375
1.3333740234375
1.3913818359374999
1.429248046875
1.5170654296875
1.5267333984375
1.5315673828124998
1.5138427734375
1.5186767578125
1.5170654296875
0.6550048828124999
1.061865234375
1.2665039062499999
1.3212890625
1.4880615234374999
1.6000488281249998
2.1342041015624997
2.4234375
2.152734375
1.9311767578124999
1.8143554687499999
1.651611328125
1.6290527343749999
1.6242187499999998
1.6604736328124998
1.6089111328124999
1.5807128906249999
1.590380859375
1.5734619140625
1.5533203125
1.5138427734375
2.321923828125
2.070556640625
1.8820312499999998
1.7797119140625
1.6508056640625
1.4977294921875
1.2785888671874999
0.9676025390624999
0.9466552734375
1.0852294921874999
1.2447509765625
1.3148437499999999
1.3422363281249998
1.4155517578124999
1.4091064453125
1.4638916015624999
1.4961181640624999
1.5484863281249999
1.5090087890625
1.5001464843749999
1.525927734375
0.7226806640625
0.9812988281249999
1.2858398437499998
1.3607666015625
1.4751708984374998
1.587158203125
2.02705078125
2.3396484374999997
2.1760986328125
1.9078125
1.7877685546875
1.7055908203124999
1.6886718749999998
1.6379150390625
1.6105224609375
1.619384765625
1.554931640625
1.53720703125
1.5678222656249998
1.60166015625
1.554931640625
2.0214111328124997
2.0560546875
1.828857421875
1.7635986328125
1.6363037109374998
1.477587890625
1.2399169921875
1.0787841796875
1.0078857421875
1.0884521484375
1.206884765625
1.3253173828125
1.3478759765625
1.426025390625
1.474365234375
1.509814453125
1.4961181640624999
1.5106201171875
1.51787109375
1.533984375
1.538818359375
0.7798828124999999
0.9804931640625
1.1980224609374999
1.3204833984375
1.4711425781249998
1.58232421875
1.7289550781249998
2.3646240234375
2.19140625
1.9698486328125
1.8232177734375
1.6725585937499998
1.6532226562499999
1.6556396484375
1.6564453124999998
1.6298583984375
1.5831298828125
1.585546875
1.5444580078124999
1.5186767578125
1.5597656249999998
1.92392578125
2.160791015625
1.9142578124999998
1.77568359375
1.6532226562499999
1.52109375
1.3422363281249998
1.1222900390625
1.0030517578125
1.0578369140625
1.2076904296875
1.2930908203125
1.3398193359375
1.393798828125
1.4364990234375
1.4848388671875
1.5235107421874998
1.53076171875
1.513037109375
1.53720703125
1.5194824218749998
1.1150390625
0.8306396484374999
1.2544189453124999
1.303564453125
1.3720458984375
1.5815185546875
1.7176757812499999
2.3372314453125
2.230078125
1.964208984375
1.82724609375
1.732177734375
1.65966796875
1.6395263671875
1.6129394531249999
1.6371093749999999
1.561376953125
1.56298828125
1.6089111328124999
1.56943359375
1.5283447265624999
1.5267333984375
2.16884765625
1.8949218749999999
1.7724609375
1.67900390625
1.6000488281249998
1.4638916015624999
1.10859375
0.9804931640625
1.0562255859375
1.2254150390625
1.3229003906249999
1.37607421875
1.384130859375
1.4276367187499999
1.4630859374999998
1.4630859374999998
1.493701171875
1.4953124999999998
1.5396240234374998
1.5541259765625
1.2238037109375
0.8129150390625
1.1754638671875
1.3349853515624999
1.4469726562499998
1.529150390625
1.6185791015625
2.296142578125
2.2236328125
2.022216796875
1.7821289062499999
1.703173828125
1.6701416015625
1.6508056640625
1.6153564453125
1.6298583984375
1.6209960937499999
1.587158203125
1.56943359375
1.546875
1.5194824218749998
1.529150390625
2.2566650390625
1.9142578124999998
1.7692382812499998
1.732177734375
1.6612792968749999
1.48564453125
1.1674072265625
1.0368896484374999
1.058642578125
1.1770751953125
1.2366943359375
1.3623779296874998
1.4123291015625
1.4542236328125
1.4123291015625
1.490478515625
1.5283447265624999
1.5243164062499999
1.513037109375
1.5347900390625
1.558154296875
0.8201660156249999
1.1641845703125
1.2898681640624998
1.3736572265625
1.509814453125
1.6056884765625
1.9360107421875
2.255859375
2.067333984375
1.88525390625
1.7055908203124999
1.6798095703125
1.6459716796875
1.6242187499999998
1.6427490234375
1.6024658203125
1.5863525390625
1.5645996093749999
1.5597656249999998
1.554931640625
1.5243164062499999
2.25263671875
2.006103515625
1.8304687499999999
1.7200927734375
1.6443603515624998
1.506591796875
1.18916015625
1.0731445312499999
1.013525390625
1.2262207031249999
1.2753662109375
1.3712402343749999
1.38896484375
1.4244140625
1.4155517578124999
1.4751708984374998
1.5041748046874999
1.5331787109375
1.533984375
1.5243164062499999
1.490478515625
0.7637695312499999
1.023193359375
1.3075927734375
1.3752685546874999
1.46630859375
1.611328125
2.0173828124999997
2.3009765625
2.0979492187499997
1.8498046874999998
1.7499023437499999
1.66611328125
1.6322753906249998
1.6072998046875
1.6403320312499998
1.6040771484374998
1.558154296875
1.5702392578125
1.55009765625
1.5364013671874999
1.5484863281249999
1.9714599609374999
2.07216796875
1.85625
1.751513671875
1.6475830078125
1.506591796875
1.3261230468749998
1.116650390625
1.0513916015625
1.1351806640625
1.229443359375
1.3599609375
1.380908203125
1.42119140625
1.4276367187499999
1.4574462890625
1.5251220703125
1.5025634765625
1.5235107421874998
1.5275390624999998
1.5597656249999998
0.8016357421875
1.013525390625
1.2528076171875
1.345458984375
1.4896728515625
1.6105224609375
1.6943115234375
2.2808349609375
2.1277587890625
1.9271484374999999
1.7249267578124998
1.6951171875
1.6322753906249998
1.638720703125
1.64677734375
1.6161621093749998
1.609716796875
1.593603515625
1.5557373046874998
1.558154296875
1.5436523437499998
1.8981445312499998
2.1374267578125
1.87236328125
1.7539306640624999
1.6620849609375
1.5484863281249999
1.3502929687499998
1.1408203125
1.013525390625
1.1287353515625
1.2495849609374998
1.303564453125
1.33740234375
1.3905761718749998
1.4316650390624999
1.4437499999999999
1.5122314453124999
1.5106201171875
1.5404296874999999
1.5436523437499998
1.522705078125
1.187548828125
0.8515869140625
1.2495849609374998
1.3744628906249998
1.46630859375
1.6081054687499998
1.66611328125
2.205908203125
2.16884765625
1.9529296875
1.8111328125
1.7176757812499999
1.66611328125
1.6395263671875
1.6242187499999998
1.6242187499999998
1.5718505859374998
1.5621826171875
1.5686279296874999
1.5436523437499998
1.5017578125
1.558154296875
2.1680419921875
1.8747802734374999
1.7539306640624999
1.6967285156249998
1.5766845703124999
1.4598632812499999
1.1770751953125
1.003857421875
1.0731445312499999
1.1899658203124999
1.3631835937499999
1.4107177734374998
1.409912109375
1.4203857421875
1.4461669921875
1.456640625
1.53720703125
1.4993408203124998
1.480810546875
1.5436523437499998
1.2753662109375
0.8467529296874999
1.184326171875
1.3261230468749998
1.4091064453125
1.5476806640624998
1.6935058593749999
2.2582763671875
2.2115478515625
2.0294677734374997
1.7660156249999999
1.6701416015625
1.6282470703124998
1.638720703125
1.6532226562499999
1.6371093749999999
1.5911865234375
1.5960205078124998
1.5807128906249999
1.571044921875
1.5670166015625
1.5492919921875
2.2236328125
1.9053955078125
1.7893798828124998
1.7047851562499998
1.5807128906249999
1.482421875
1.1303466796875
1.0650878906249999
1.1029541015625
1.224609375
1.319677734375
1.3728515625
1.3825195312499998
1.4091064453125
1.50498046875
1.461474609375
1.506591796875
1.5315673828124998
1.5428466796875
1.5162597656249999
1.53720703125
0.8274169921875
1.1786865234375
1.2963134765625
1.3865478515624998
1.4783935546875
1.5879638671874998
2.0197998046875
2.23330078125
2.03994140625
1.8546386718749999
1.7426513671875
1.6588623046875
1.6330810546874999
1.6185791015625
1.6532226562499999
1.5839355468749998
1.558154296875
1.5879638671874998
1.5766845703124999
1.5831298828125
1.5444580078124999
2.2614990234375
1.9948242187499998
1.8135498046874998
1.7281494140625
1.6306640625
1.5170654296875
1.187548828125
1.0852294921874999
1.0755615234375
1.2125244140625
1.255224609375
1.3261230468749998
1.3768798828125
1.416357421875
1.4066894531249998
1.4735595703125
1.5364013671874999
1.533984375
1.5492919921875
1.5509033203125
1.493701171875
0.7774658203125
1.023193359375
1.3390136718749999
1.3954101562499999
1.50498046875
1.587158203125
1.90458984375
2.2832519531249997
2.0415527343749997
1.8409423828125
1.7152587890625
1.64677734375
1.6427490234375
1.6443603515624998
1.619384765625
1.6185791015625
1.558154296875
1.56943359375
1.5766845703124999
1.5686279296874999
1.533984375
1.960986328125
2.0246337890625
1.8240234375
1.77890625
1.6081054687499998
1.5251220703125
1.2947021484374999
1.039306640625
1.0320556640625
1.1239013671875
1.2439453125
1.34384765625
1.3591552734374999
1.4469726562499998
1.4622802734375
1.4679199218749999
1.525927734375
1.558154296875
1.5404296874999999
1.5355957031249998
1.5243164062499999
0.7968017578125
1.03447265625
1.271337890625
1.3784912109374998
1.4816162109375
1.5984375
1.9811279296875
2.2751953124999997
2.115673828125
1.9118408203125
1.732177734375
1.6717529296875
1.6604736328124998
1.61455078125
1.6588623046875
1.611328125
1.574267578125
1.5678222656249998
1.571044921875
1.5645996093749999
1.5670166015625
1.8489990234375
2.115673828125
1.8071044921875
1.7579589843749999
1.667724609375
1.5484863281249999
1.3720458984375
1.1351806640625
1.0239990234375
1.1061767578125
1.2318603515625
1.3341796874999998
1.38896484375
1.429248046875
1.4397216796874999
1.4719482421874999
1.50498046875
1.5275390624999998
1.538818359375
1.529150390625
1.5114257812499998
1.1577392578124999
1.007080078125
1.27294921875
1.3478759765625
1.4711425781249998
1.5799072265624998
1.690283203125
2.2598876953125
2.1438720703125
1.92392578125
1.7781005859374999
1.690283203125
1.6322753906249998
1.6290527343749999
1.6604736328124998
1.5911865234375
1.5847412109374999
1.5662109375
1.5670166015625
1.5734619140625
1.5565429687499999
1.7652099609374998
2.1519287109375
1.8796142578125
1.8006591796875
1.674169921875
1.5597656249999998
1.448583984375
1.1335693359374999
1.018359375
1.0916748046875
1.26005859375
1.3478759765625
1.3736572265625
1.3994384765624999
1.4252197265625
1.4638916015624999
1.4630859374999998
1.5146484375
1.5235107421874998
1.5218994140625
1.5364013671874999
1.2890625
0.855615234375
1.2093017578125
1.3382080078124998
1.4236083984374999
1.5090087890625
1.6636962890625
2.141455078125
2.1889892578125
2.0004638671875
1.8224121093749999
1.7120361328125
1.6314697265625
1.6306640625
1.6427490234375
1.651611328125
1.587158203125
1.6056884765625
1.5807128906249999
1.542041015625
1.5597656249999998
1.5428466796875
2.2582763671875
1.8892822265625
1.751513671875
1.716064453125
1.56298828125
1.4735595703125
1.1802978515625
1.0771728515624999
1.110205078125
1.2238037109375
1.2947021484374999
1.3817138671875
1.4510009765624998
1.47275390625
1.3905761718749998
1.49853515625
1.5444580078124999
1.5082031249999999
1.477587890625
1.456640625
1.4630859374999998
0.81533203125
1.1980224609374999
1.3349853515624999
1.3905761718749998
1.5114257812499998
1.5992431640625
2.0923095703125
2.2244384765625
2.0165771484375
1.85302734375
1.7072021484375
1.638720703125
1.6330810546874999
1.6169677734374999
1.6282470703124998
1.5895751953125
1.5919921874999998
1.55009765625
1.5396240234374998
1.5734619140625
1.533984375
2.2429687499999997
1.989990234375
1.828857421875
1.7233154296875
1.6153564453125
1.5114257812499998
1.18271484375
1.0731445312499999
1.0376953125
1.190771484375
1.2753662109375
1.3865478515624998
1.3599609375
1.4268310546874998
1.4429443359374998
1.496923828125
1.5396240234374998
1.5347900390625
1.5194824218749998
1.456640625
1.506591796875
0.816943359375
1.010302734375
1.284228515625
1.37607421875
1.5009521484375
1.6177734375
1.9859619140625
2.2760009765625
2.101171875
1.8369140625
1.722509765625
1.654833984375
1.6290527343749999
1.6379150390625
1.658056640625
1.603271484375
1.5404296874999999
1.5597656249999998
1.5654052734375
1.5412353515625
1.5275390624999998
1.9553466796874999
2.0069091796875
1.8183837890624999
1.7603759765625
1.6008544921874999
1.5235107421874998
1.340625
1.1923828125
1.02802734375
1.1432373046875
1.2431396484375
1.3599609375
1.364794921875
1.4308593749999998
1.4864501953125
1.480810546875
1.5009521484375
1.5009521484375
1.513037109375
1.5283447265624999
1.509814453125
0.8419189453125
1.0336669921875
1.2769775390625
1.3551269531249999
1.4864501953125
1.6056884765625
1.67578125
2.280029296875
2.1197021484375
1.9360107421875
1.764404296875
1.6733642578124999
1.6483886718749998
1.6379150390625
1.635498046875
1.6089111328124999
1.558154296875
1.5484863281249999
1.5799072265624998
1.55009765625
1.5670166015625
1.844970703125
2.1462890624999997
1.8409423828125
1.7442626953125
1.662890625
1.5637939453124998
1.3857421875
1.1464599609375
1.0465576171875
1.1545166015625
1.239111328125
1.3575439453125
1.353515625
1.3946044921874998
1.4437499999999999
1.5170654296875
1.506591796875
1.5170654296875
1.53076171875
1.5380126953125
1.53076171875
1.1448486328125
0.9885498046875
1.2528076171875
1.345458984375
1.4187744140624998
1.561376953125
1.6645019531249998
2.2534423828125
2.1221191406249997
1.9086181640625
1.7587646484375
1.687060546875
1.6556396484375
1.6411376953124999
1.6435546875
1.5831298828125
1.5839355468749998
1.5702392578125
1.585546875
1.558154296875
1.53720703125
1.7345947265625
2.1535400390625
1.883642578125
1.77890625
1.6685302734374998
1.5815185546875
1.4783935546875
1.16337890625
1.0094970703125
1.094091796875
1.264892578125
1.3156494140625
1.3551269531249999
1.4276367187499999
1.482421875
1.4912841796874998
1.4679199218749999
1.4961181640624999
1.529150390625
1.5525146484374999
1.56298828125
1.3180664062499998
0.8274169921875
1.1625732421875
1.30517578125
1.4091064453125
1.5082031249999999
1.674169921875
2.209130859375
2.1825439453124997
1.98515625
1.7700439453124999
1.69189453125
1.6701416015625
1.6645019531249998
1.6781982421875
1.6636962890625
1.6081054687499998
1.5541259765625
1.5517089843749998
1.5517089843749998
1.53720703125
1.5428466796875
2.204296875
1.880419921875
1.7901855468749999
1.7257324218749999
1.5847412109374999
1.4711425781249998
1.2076904296875
1.0900634765625
1.0852294921874999
1.206884765625
1.2624755859374999
1.3857421875
1.4187744140624998
1.4268310546874998
1.3954101562499999
1.496923828125
1.5347900390625
1.5138427734375
1.538818359375
1.5154541015624998
1.5186767578125
0.829833984375
1.1609619140625
1.3148437499999999
1.3712402343749999
1.490478515625
1.59521484375
1.896533203125
2.2341064453125
2.0246337890625
1.8336914062499998
1.7055908203124999
1.64677734375
1.6717529296875
1.641943359375
1.6846435546874998
1.6234130859375
1.558154296875
1.5686279296874999
1.554931640625
1.5637939453124998
1.5444580078124999
2.2147705078124997
1.9601806640625
1.7877685546875
1.706396484375
1.6314697265625
1.5251220703125
1.1770751953125
1.0803955078125
1.0465576171875
1.2181640624999999
1.300341796875
1.364794921875
1.377685546875
1.4437499999999999
1.4276367187499999
1.4872558593749998
1.5347900390625
1.5323730468749999
1.5364013671874999
1.5323730468749999
1.53720703125
0.863671875
1.0675048828125
1.3156494140625
1.3599609375
1.5122314453124999
1.6121337890624998
1.98837890625
2.2969482421875
1.9674316406249999
1.8119384765625
1.7313720703125
1.651611328125
1.6314697265625
1.6346923828125
1.6121337890624998
1.5597656249999998
1.5218994140625
1.5670166015625
1.59521484375
1.5734619140625
1.546875
1.9053955078125
1.9916015624999999
1.8062988281249999
1.748291015625
1.6395263671875
1.5275390624999998
1.377685546875
1.10859375
1.0513916015625
1.17626953125
1.2777832031249998
1.3502929687499998
1.3688232421875
1.432470703125
1.47275390625
1.4751708984374998
1.5122314453124999
1.5218994140625
1.5194824218749998
1.53720703125
1.55009765625
0.8290283203125
0.9966064453125
1.2890625
1.353515625
1.43408203125
1.571044921875
1.8788085937499999
2.2695556640625
2.112451171875
1.9102294921874998
1.7571533203124998
1.6717529296875
1.6411376953124999
1.6266357421875
1.61455078125
1.6169677734374999
1.55009765625
1.561376953125
1.56298828125
1.5533203125
1.5654052734375
1.832080078125
2.126953125
1.819189453125
1.7579589843749999
1.6951171875
1.5702392578125
1.3946044921874998
1.1770751953125
1.04736328125
1.164990234375
1.2383056640624999
1.32451171875
1.3672119140624999
1.4074951171874999
1.43408203125
1.4719482421874999
1.4840332031249999
1.5114257812499998
1.5202880859374999
1.5251220703125
1.525927734375
1.232666015625
0.990966796875
1.2503906249999999
1.3639892578125
1.4477783203124999
1.574267578125
1.6717529296875
2.1906005859374997
2.13662109375
1.9142578124999998
1.764404296875
1.690283203125
1.6451660156249999
1.6564453124999998
1.6330810546874999
1.5863525390625
1.5597656249999998
1.561376953125
1.5436523437499998
1.5839355468749998
1.5807128906249999
1.7378173828124999
2.131787109375
1.8884765625
1.7934082031249998
1.6773925781249999
1.5621826171875
1.442138671875
1.18271484375
1.0352783203125
1.106982421875
1.303564453125
1.3398193359375
1.3599609375
1.3575439453125
1.4364990234375
1.482421875
1.5017578125
1.53076171875
1.5090087890625
1.5057861328125
1.5404296874999999
1.3309570312499999
0.8838134765625
1.198828125
1.3414306640625
1.4058837890625
1.4864501953125
1.6491943359374999
2.2131591796875
2.1865722656249997
1.989990234375
1.791796875
1.7249267578124998
1.6540283203125
1.6242187499999998
1.6234130859375
1.63388671875
1.5879638671874998
1.56943359375
1.5645996093749999
1.55009765625
1.5194824218749998
1.5436523437499998
2.2341064453125
1.893310546875
1.7893798828124998
1.7249267578124998
1.5984375
1.4880615234374999
1.1819091796874999
1.0675048828125
1.0981201171875
1.2060791015624999
1.2826171874999999
1.397021484375
1.42119140625
1.46953125
1.4711425781249998
1.496923828125
1.525927734375
1.5267333984375
1.522705078125
1.5702392578125
1.5275390624999998
0.8080810546874999
1.1496826171874999
1.3220947265624998
1.3543212890624998
1.4832275390624998
1.5960205078124998
1.9142578124999998
2.2034912109375
1.9948242187499998
1.85947265625
1.738623046875
1.6572509765624999
1.62744140625
1.6379150390625
1.635498046875
1.6169677734374999
1.5766845703124999
1.5404296874999999
1.5565429687499999
1.5428466796875
1.5331787109375
2.1906005859374997
1.9835449218749999
1.780517578125
1.7168701171874998
1.5944091796875
1.525927734375
1.2254150390625
1.1142333984375
1.0965087890625
1.1939941406249999
1.300341796875
1.3623779296874998
1.3784912109374998
1.3913818359374999
1.4300537109375
1.477587890625
1.5122314453124999
1.5283447265624999
1.5404296874999999
1.571044921875
1.5082031249999999
0.8064697265624999
1.0481689453125
1.329345703125
1.368017578125
1.4598632812499999
1.5992431640625
1.815966796875
2.247802734375
2.0778076171874997
1.8707519531249999
1.7466796875
1.703173828125
1.6572509765624999
1.6081054687499998
1.6395263671875
1.5831298828125
1.5734619140625
1.5782958984375
1.5484863281249999
1.5412353515625
1.5597656249999998
1.9086181640625
2.0093261718749997
1.80791015625
1.7426513671875
1.65
1.529150390625
1.3744628906249998
1.181103515625
1.0675048828125
1.1617675781249999
1.2753662109375
1.34384765625
1.3792968749999999
1.4091064453125
1.4510009765624998
1.4598632812499999
1.5122314453124999
1.5364013671874999
1.5428466796875
1.5355957031249998
1.50498046875
0.8266113281249999
1.0191650390625
1.2955078125
1.3688232421875
1.477587890625
1.5686279296874999
1.703173828125
2.2421630859375
2.10439453125
1.9142578124999998
1.72734375
1.6588623046875
1.619384765625
1.6218017578125
1.6612792968749999
1.6306640625
1.5911865234375
1.5436523437499998
1.5605712890624999
1.5484863281249999
1.5533203125
1.791796875
2.1422607421874997
1.8022705078124999
1.7337890624999999
1.6725585937499998
1.5557373046874998
1.4034667968749999
1.139208984375
1.069921875
1.1512939453125
1.264892578125
1.3430419921874999
1.3825195312499998
1.4356933593749999
1.4671142578124998
1.4783935546875
1.5082031249999999
1.5275390624999998
1.5243164062499999
1.53720703125
1.53720703125
1.2383056640624999
0.9949951171875
1.26328125
1.3237060546875
1.3897705078125
1.5621826171875
1.6451660156249999
2.1712646484375
2.1309814453125
1.9400390625
1.767626953125
1.674169921875
1.6483886718749998
1.6508056640625
1.6427490234375
1.6169677734374999
1.6048828124999999
1.571044921875
1.5670166015625
1.5541259765625
1.53720703125
1.7072021484375
2.1382324218749997
1.85625
1.8054931640624998
1.6886718749999998
1.5799072265624998
1.4655029296875
1.1666015625
1.084423828125
1.1561279296875
1.2665039062499999
1.3422363281249998
1.3583496093749998
1.3672119140624999
1.4413330078125
1.4816162109375
1.5186767578125
1.529150390625
1.5138427734375
1.5082031249999999
1.5444580078124999
1.351904296875
0.8338623046875
1.2044677734375
1.32451171875
1.442138671875
1.5162597656249999
1.662890625
2.1438720703125
2.19140625
1.998046875
1.7652099609374998
1.7208984374999998
1.6491943359374999
1.6491943359374999
1.654833984375
1.6588623046875
1.56298828125
1.5597656249999998
1.5637939453124998
1.5533203125
1.5251220703125
1.5412353515625
2.22041015625
1.9110351562499999
1.783740234375
1.7523193359375
1.6072998046875
1.4711425781249998
1.174658203125
