1.268115234375
1.348681640625
1.464697265625
1.6121337890624998
2.160791015625
2.3742919921875
2.125341796875
1.899755859375
1.7281494140625
1.6822265625
1.6443603515624998
1.61455078125
1.5831298828125
1.6089111328124999
1.5404296874999999
1.5436523437499998
1.542041015625
1.5364013671874999
1.5114257812499998
2.2115478515625
2.1390380859375
1.8071044921875
1.7603759765625
1.6209960937499999
1.4872558593749998
1.164990234375
1.0062744140625
0.93779296875
1.10859375
1.235888671875
1.3269287109374999
1.377685546875
1.41796875
1.416357421875
1.4558349609374999
1.49853515625
1.51787109375
1.545263671875
1.545263671875
1.5678222656249998
0.78955078125
0.8628662109374999
1.2374999999999998
1.3527099609375
1.4759765624999999
1.6363037109374998
1.8135498046874998
2.4274658203125
2.1382324218749997
1.9424560546874998
1.8103271484374999
1.73056640625
1.62744140625
1.6105224609375
1.6459716796875
1.622607421875
1.5347900390625
1.5670166015625
1.5782958984375
1.5283447265624999
1.5235107421874998
1.690283203125
2.176904296875
1.8949218749999999
1.7982421874999999
1.6218017578125
1.480810546875
1.2721435546875
1.007080078125
0.9007324218749999
1.0546142578125
1.2028564453125
1.3414306640625
1.3897705078125
1.40830078125
1.432470703125
1.4373046875
1.5162597656249999
1.5331787109375
1.53720703125
1.5251220703125
1.5492919921875
0.760546875
0.8604492187499999
1.2020507812499999
1.3390136718749999
1.4510009765624998
1.59521484375
1.7088134765624998
2.4983642578125
2.25263671875
2.0052978515624997
1.77568359375
1.6564453124999998
1.603271484375
1.6773925781249999
1.6572509765624999
1.59521484375
1.5960205078124998
1.5533203125
1.533984375
1.5299560546875
1.5484863281249999
1.6298583984375
2.309033203125
1.9537353515625
1.786962890625
1.687060546875
1.574267578125
1.3962158203125
1.1158447265625
0.8854248046875
1.04736328125
1.1947998046875
1.284228515625
1.3527099609375
1.4308593749999998
1.44052734375
1.4445556640625
1.5009521484375
1.5154541015624998
1.5299560546875
1.5517089843749998
1.546875
1.3559326171875
0.6598388671875
1.2109130859375
1.3124267578125
1.400244140625
1.59521484375
1.719287109375
2.4322998046874997
2.3074218749999997
2.0173828124999997
1.8296630859374998
1.7208984374999998
1.6379150390625
1.6330810546874999
1.6185791015625
1.56943359375
1.5791015625
1.5509033203125
1.5476806640624998
1.5662109375
1.53720703125
1.5460693359375
2.3243408203125
1.9658203125
1.828857421875
1.6693359374999999
1.577490234375
1.4493896484375
1.084423828125
0.9128173828124999
0.97646484375
1.1206787109375
1.3075927734375
1.361572265625
1.3913818359374999
1.4236083984374999
1.4397216796874999
1.506591796875
1.5082031249999999
1.5347900390625
1.53720703125
1.5702392578125
1.3833251953124999
0.6509765624999999
1.094091796875
1.2745605468749999
1.3946044921874998
1.5025634765625
1.6105224609375
2.405712890625
2.3501220703125
2.0689453125
1.8248291015625
1.72734375
1.6830322265625
1.6733642578124999
1.6395263671875
1.6927001953124998
1.5895751953125
1.55009765625
1.5436523437499998
1.546875
1.5444580078124999
1.545263671875
2.399267578125
2.083447265625
1.82724609375
1.72734375
1.5944091796875
1.4252197265625
1.0691162109374999
0.95390625
0.9877441406249999
1.1690185546875
1.2439453125
1.332568359375
1.3607666015625
1.4228027343749998
1.4888671875
1.4888671875
1.593603515625
1.5331787109375
1.5323730468749999
1.5267333984375
1.5299560546875
0.662255859375
1.094091796875
1.3067871093749999
1.397021484375
1.5033691406249998
1.60166015625
2.309033203125
2.399267578125
2.093115234375
1.8651123046875
1.7128417968749998
1.6508056640625
1.6314697265625
1.593603515625
1.66611328125
1.58232421875
1.5645996093749999
1.545263671875
1.55009765625
1.5517089843749998
1.5323730468749999
2.360595703125
2.08505859375
1.8409423828125
1.7120361328125
1.6008544921874999
1.48564453125
1.2544189453124999
0.961962890625
0.928125
1.0739501953125
1.2608642578125
1.3390136718749999
1.3720458984375
1.4236083984374999
1.4735595703125
1.5001464843749999
1.5541259765625
1.545263671875
1.5315673828124998
1.5218994140625
1.525927734375
0.6356689453125
0.929736328125
1.222998046875
1.3728515625
1.513037109375
1.6572509765624999
2.1615966796875
2.4169921875
2.1825439453124997
1.8788085937499999
1.7748779296875
1.6540283203125
1.635498046875
1.638720703125
1.6234130859375
1.6298583984375
1.5476806640624998
1.55009765625
1.5154541015624998
1.5355957031249998
1.5726562499999999
2.05283203125
2.2179931640625
1.835302734375
1.770849609375
1.6371093749999999
1.474365234375
1.168212890625
1.0175537109375
0.9249023437499999
1.042529296875
1.197216796875
1.3180664062499998
1.3688232421875
1.4381103515625
1.4550292968749998
1.4767822265625
1.5251220703125
1.5355957031249998
1.554931640625
1.55009765625
1.5533203125
0.936181640625
0.8668945312499999
1.2270263671875
1.3607666015625
1.5235107421874998
1.619384765625
1.72734375
2.4435791015625
2.2187988281249997
1.9714599609374999
1.8312744140625
1.6612792968749999
1.6588623046875
1.6177734375
1.6161621093749998
1.6234130859375
1.5565429687499999
1.574267578125
1.5678222656249998
1.5146484375
1.5202880859374999
2.0012695312499997
2.2437744140625
1.912646484375
1.7748779296875
1.619384765625
1.5162597656249999
1.432470703125
1.042529296875
0.9031494140624999
1.04736328125
1.21171875
1.3043701171875
1.3672119140624999
1.3857421875
1.4389160156249998
1.493701171875
1.50498046875
1.5484863281249999
1.542041015625
1.529150390625
1.53720703125
0.968408203125
0.75732421875
1.168212890625
1.3341796874999998
1.429248046875
1.5718505859374998
1.8167724609375
2.4854736328125
2.3009765625
1.9464843749999998
1.7603759765625
1.6967285156249998
1.635498046875
1.6072998046875
1.6314697265625
1.6209960937499999
1.5460693359375
1.5460693359375
1.5315673828124998
1.5436523437499998
1.53076171875
1.5533203125
2.3694580078125
1.920703125
1.7934082031249998
1.7104248046875
1.5315673828124998
1.397021484375
1.026416015625
0.87978515625
1.0030517578125
1.1770751953125
1.3059814453124998
1.364794921875
1.3921875
1.4381103515625
1.4671142578124998
1.49853515625
1.5331787109375
1.461474609375
1.5645996093749999
1.546875
1.5025634765625
0.7291259765625
1.1722412109375
1.3027587890624999
1.4381103515625
1.5484863281249999
1.667724609375
2.2437744140625
2.3275634765624997
2.0858642578124997
1.864306640625
1.706396484375
1.6765869140624998
1.65
1.635498046875
1.6081054687499998
1.5944091796875
1.5347900390625
1.56943359375
1.5525146484374999
1.5412353515625
1.5194824218749998
2.3807373046875
2.00771484375
1.8038818359375
1.7418457031249999
1.5621826171875
1.4751708984374998
1.13115234375
0.9208740234374999
0.958740234375
1.1794921875
1.2640869140625
1.364794921875
1.3672119140624999
1.4413330078125
1.4526123046875
1.5299560546875
1.5331787109375
1.529150390625
1.5299560546875
1.5299560546875
1.52109375
0.62841796875
1.0272216796875
1.2947021484374999
1.393798828125
1.5186767578125
1.64677734375
2.2373291015625
2.4169921875
2.03994140625
1.8554443359375
1.7313720703125
1.6685302734374998
1.6395263671875
1.641943359375
1.6040771484374998
1.5831298828125
1.5460693359375
1.5396240234374998
1.538818359375
1.533984375
1.5275390624999998
2.27841796875
1.9972412109375
1.8465820312499999
1.748291015625
1.6072998046875
1.4896728515625
1.1287353515625
0.928125
0.95068359375
1.1255126953124999
1.2866455078124999
1.3422363281249998
1.348681640625
1.4316650390624999
1.3905761718749998
1.5057861328125
1.5396240234374998
1.5347900390625
1.5460693359375
1.5726562499999999
1.5412353515625
0.6251953124999999
1.0304443359375
1.2987304687499999
1.3954101562499999
1.490478515625
1.6322753906249998
2.02705078125
2.3960449218749997
2.1462890624999997
1.893310546875
1.716064453125
1.6491943359374999
1.6218017578125
1.638720703125
1.6395263671875
1.60166015625
1.5766845703124999
1.542041015625
1.5597656249999998
1.5476806640624998
1.5315673828124998
2.289697265625
2.128564453125
1.8361083984375
1.7539306640624999
1.6153564453125
1.46953125
1.1287353515625
0.978076171875
0.8773681640625
1.119873046875
1.2415283203124998
1.3341796874999998
1.3688232421875
1.458251953125
1.4429443359374998
1.4622802734375
1.5138427734375
1.5283447265624999
1.5428466796875
1.533984375
1.5283447265624999
0.7081787109375
0.837890625
1.2616699218749998
1.3341796874999998
1.496923828125
1.6346923828125
1.8417480468749998
2.4790283203124996
2.2163818359375
1.960986328125
1.7821289062499999
1.716064453125
1.670947265625
1.6137451171875
1.6056884765625
1.6242187499999998
1.5686279296874999
1.533984375
1.5267333984375
1.53076171875
1.5597656249999998
1.780517578125
2.1624023437499997
1.8635009765625
1.7748779296875
1.5927978515624999
1.464697265625
1.31162109375
0.9716308593749999
0.9095947265625
1.0675048828125
1.2157470703125
1.3212890625
1.384130859375
1.4034667968749999
1.4622802734375
1.477587890625
1.542041015625
1.5162597656249999
1.546875
1.5380126953125
1.5251220703125
0.742822265625
0.8403076171874999
1.2052734375
1.3833251953124999
1.461474609375
1.6129394531249999
1.7120361328125
2.4927246093749997
2.2840576171875
2.0044921875
1.7660156249999999
1.6886718749999998
1.6524169921874998
1.60166015625
1.5960205078124998
1.625830078125
1.590380859375
1.5573486328125
1.5589599609375
1.5299560546875
1.5202880859374999
1.7152587890625
2.3074218749999997
1.9585693359374998
1.7579589843749999
1.6604736328124998
1.5476806640624998
1.3180664062499998
1.11181640625
0.8789794921874999
1.052197265625
1.2173583984375
1.2995361328125
1.3704345703124998
1.4381103515625
1.448583984375
1.4550292968749998
1.5170654296875
1.53076171875
1.5275390624999998
1.56943359375
1.5597656249999998
1.2818115234374998
0.69287109375
1.2157470703125
1.3333740234375
1.42119140625
1.6435546875
1.73056640625
2.4935302734375
2.2236328125
1.9666259765624998
1.8006591796875
1.670947265625
1.6242187499999998
1.6250244140624999
1.6201904296874998
1.6056884765625
1.5444580078124999
1.558154296875
1.5517089843749998
1.5267333984375
1.5331787109375
1.55009765625
2.3146728515625
1.98515625
1.8095214843749998
1.6612792968749999
1.5235107421874998
1.45341796875
1.095703125
0.9216796875
1.0046630859374999
1.1561279296875
1.3067871093749999
1.3124267578125
1.3470703124999999
1.445361328125
1.49853515625
1.5154541015624998
1.53720703125
1.5323730468749999
1.52109375
1.5218994140625
1.348681640625
0.6920654296875
1.1335693359374999
1.303564453125
1.4034667968749999
1.482421875
1.6306640625
2.383154296875
2.383154296875
2.1116455078125
1.799853515625
1.6943115234375
1.6524169921874998
1.654833984375
1.65
1.662890625
1.5927978515624999
1.5355957031249998
1.561376953125
1.561376953125
1.545263671875
1.5444580078124999
2.376708984375
2.0697509765624997
1.828857421875
1.706396484375
1.5984375
1.4477783203124999
1.1045654296875
0.9321533203125
0.9579345703125
1.1239013671875
1.2560302734375
1.3607666015625
1.3986328124999998
1.4373046875
1.442138671875
1.4880615234374999
1.5122314453124999
1.545263671875
1.558154296875
1.5662109375
1.5428466796875
0.61552734375
1.1319580078125
1.2906738281249999
1.3712402343749999
1.4945068359375
1.6314697265625
2.1599853515625
2.4427734375
2.099560546875
1.8820312499999998
1.7507080078125
1.6532226562499999
1.6435546875
1.611328125
1.6403320312499998
1.5396240234374998
1.558154296875
1.5678222656249998
1.5404296874999999
1.5299560546875
1.56298828125
2.3960449218749997
2.086669921875
1.851416015625
1.7595703125
1.6048828124999999
1.4767822265625
1.2568359375
0.98291015625
0.926513671875
1.0965087890625
1.2802001953125
1.3478759765625
1.3575439453125
1.4364990234375
1.4389160156249998
1.4687255859375
1.50498046875
1.5323730468749999
1.542041015625
1.554931640625
1.53720703125
0.6533935546874999
1.007080078125
1.2286376953125
1.3752685546874999
1.48564453125
1.606494140625
2.1696533203125
2.4443847656249997
2.1664306640624997
1.8755859375
1.7394287109375
1.6894775390624999
1.6242187499999998
1.6024658203125
1.6435546875
1.6379150390625
1.5380126953125
1.545263671875
1.5621826171875
1.5597656249999998
1.5492919921875
2.1205078125
2.1978515625
1.835302734375
1.780517578125
1.6290527343749999
1.4719482421874999
1.18916015625
1.039306640625
0.9410156249999999
1.06669921875
1.2254150390625
1.31162109375
1.3261230468749998
1.413134765625
1.4348876953124998
1.5057861328125
1.509814453125
1.5235107421874998
1.5662109375
1.5396240234374998
1.51787109375
0.8934814453125
0.9474609374999999
1.2439453125
1.3462646484374998
1.4687255859375
1.6209960937499999
1.7845458984375
2.4846679687499997
2.2324951171875
1.95615234375
1.8232177734375
1.667724609375
1.6306640625
1.6572509765624999
1.6427490234375
1.6250244140624999
1.5243164062499999
1.5355957031249998
1.5283447265624999
1.5670166015625
1.5557373046874998
2.0979492187499997
2.23974609375
1.9231201171874999
1.77568359375
1.6532226562499999
1.509814453125
1.3510986328124999
1.010302734375
0.87978515625
1.02158203125
1.2157470703125
1.32451171875
1.3744628906249998
1.3897705078125
1.4203857421875
1.4687255859375
1.5331787109375
1.545263671875
1.5492919921875
1.538818359375
1.6081054687499998
0.9176513671875
0.8000244140624999
1.1899658203124999
1.3768798828125
1.4687255859375
1.5331787109375
1.7378173828124999
2.5031982421874996
2.2953369140624997
1.9529296875
1.7740722656249999
1.67578125
1.6379150390625
1.6209960937499999
1.6395263671875
1.5992431640625
1.538818359375
1.5323730468749999
1.5597656249999998
1.5839355468749998
1.5428466796875
1.5460693359375
2.3646240234375
1.9376220703125
1.8087158203125
1.722509765625
1.5444580078124999
1.4034667968749999
0.98291015625
0.85400390625
1.013525390625
1.1867431640625
1.2995361328125
1.3470703124999999
1.351904296875
1.4356933593749999
1.4300537109375
1.49853515625
1.522705078125
1.52109375
1.5484863281249999
1.5283447265624999
1.506591796875
0.7645751953125
1.1657958984374999
1.3075927734375
1.4276367187499999
1.5597656249999998
1.6717529296875
2.4516357421875
2.276806640625
2.0326904296875
1.8240234375
1.69189453125
1.6459716796875
1.6330810546874999
1.62744140625
1.61455078125
1.625830078125
1.5509033203125
1.5428466796875
1.4993408203124998
1.477587890625
1.5017578125
2.3879882812499997
2.0101318359375
1.869140625
1.7378173828124999
1.590380859375
1.4872558593749998
1.09892578125
0.8870361328124999
0.9345703125
1.1851318359375
1.2640869140625
1.3333740234375
1.345458984375
1.445361328125
1.448583984375
1.525927734375
1.5138427734375
1.522705078125
1.554931640625
1.53720703125
1.529150390625
0.6098876953125
1.0836181640625
1.2963134765625
1.4187744140624998
1.5436523437499998
1.6717529296875
2.27197265625
2.4041015624999997
2.1333984375
1.8119384765625
1.7265380859375
1.6564453124999998
1.6346923828125
1.62744140625
1.6645019531249998
1.609716796875
1.5355957031249998
1.5122314453124999
1.5460693359375
1.5315673828124998
1.5484863281249999
2.3356201171874997
2.0173828124999997
1.8183837890624999
1.75634765625
1.5984375
1.4791992187499998
1.0932861328124999
0.9740478515625
0.9385986328125
1.1537109374999999
1.2640869140625
1.3744628906249998
1.3341796874999998
1.4316650390624999
1.49853515625
1.4912841796874998
1.5428466796875
1.5412353515625
1.5597656249999998
1.542041015625
1.585546875
0.581689453125
1.0207763671874999
1.2930908203125
1.3865478515624998
1.5082031249999999
1.6322753906249998
2.1470947265625
2.341259765625
2.102783203125
1.8683349609375
1.7023681640625
1.6161621093749998
1.6169677734374999
1.5863525390625
1.6298583984375
1.5791015625
1.5718505859374998
1.5702392578125
1.5436523437499998
1.5517089843749998
1.5428466796875
2.2872802734374997
2.1261474609374997
1.85625
1.7490966796874998
1.58232421875
1.458251953125
1.1174560546874999
1.00546875
0.9498779296875
1.139208984375
1.2423339843749999
1.353515625
1.36962890625
1.458251953125
1.4356933593749999
1.4316650390624999
1.542041015625
1.5364013671874999
1.5380126953125
1.55009765625
1.5428466796875
0.6751464843749999
0.863671875
1.22138671875
1.340625
1.4953124999999998
1.606494140625
1.9400390625
2.487890625
2.2550537109374997
1.9110351562499999
1.7652099609374998
1.6798095703125
1.6395263671875
1.6234130859375
1.6290527343749999
1.6201904296874998
1.587158203125
1.5662109375
1.554931640625
1.5331787109375
1.53720703125
1.8570556640625
2.1301757812499997
1.8570556640625
1.7893798828124998
1.6290527343749999
1.4977294921875
1.2955078125
1.061865234375
0.9257080078125
1.052197265625
1.2076904296875
1.3156494140625
1.3462646484374998
1.3994384765624999
1.4655029296875
1.445361328125
1.4912841796874998
1.529150390625
1.5243164062499999
1.52109375
1.545263671875
0.6775634765624999
0.8677001953125
1.21494140625
1.3543212890624998
1.5041748046874999
1.6379150390625
1.7329833984374998
2.50400390625
2.2510253906249997
1.989990234375
1.80791015625
1.703173828125
1.6379150390625
1.6137451171875
1.6403320312499998
1.6185791015625
1.5831298828125
1.5404296874999999
1.5460693359375
1.5460693359375
1.5114257812499998
1.78857421875
2.3259521484375
1.9053955078125
1.7813232421874998
1.64677734375
1.5509033203125
1.3220947265624998
1.06669921875
0.8934814453125
1.0248046874999999
1.200439453125
1.3188720703124999
1.3510986328124999
1.3921875
1.4228027343749998
1.4735595703125
1.4993408203124998
1.5122314453124999
1.4993408203124998
1.513037109375
1.52109375
1.1980224609374999
0.6767578125
1.2423339843749999
1.3285400390625
1.445361328125
1.577490234375
1.714453125
2.5249511718749997
2.29775390625
2.031884765625
1.8264404296874999
1.6927001953124998
1.6443603515624998
1.6620849609375
1.6427490234375
1.5637939453124998
1.5654052734375
1.533984375
1.574267578125
1.5106201171875
1.5251220703125
1.5251220703125
2.3468994140625
2.006103515625
1.85625
1.6806152343749998
1.5758789062499998
1.45341796875
1.0175537109375
0.8427246093749999
0.9434326171874999
1.142431640625
1.2955078125
1.3261230468749998
1.3559326171875
1.42119140625
1.4711425781249998
1.4679199218749999
1.525927734375
1.5331787109375
1.5662109375
1.5541259765625
1.2616699218749998
0.6276123046875
1.0916748046875
1.2665039062499999
1.3430419921874999
1.4735595703125
1.7539306640624999
2.4999755859375
2.4661376953125
2.1986572265624997
1.8635009765625
1.7531249999999998
1.6725585937499998
1.6379150390625
1.651611328125
1.65966796875
1.5782958984375
1.542041015625
1.5275390624999998
1.5412353515625
1.522705078125
1.52109375
2.4274658203125
1.9916015624999999
1.85625
1.735400390625
1.5670166015625
1.409912109375
1.0916748046875
0.8765624999999999
0.9466552734375
1.1013427734374999
1.2439453125
1.35673828125
1.3801025390625
1.4638916015624999
1.4437499999999999
1.513037109375
1.5331787109375
1.51787109375
1.5170654296875
1.5057861328125
1.5033691406249998
0.565576171875
1.0546142578125
1.2640869140625
1.3664062499999998
1.5162597656249999
1.6346923828125
2.1374267578125
2.486279296875
2.1785156249999997
1.9029785156249999
1.7039794921875
1.6693359374999999
1.63388671875
1.6242187499999998
1.6653076171874999
1.5927978515624999
1.561376953125
1.571044921875
1.5911865234375
1.6177734375
1.5815185546875
2.5249511718749997
2.1648193359375
1.896533203125
1.722509765625
1.6137451171875
1.445361328125
0.9708251953125
0.8523925781249999
0.813720703125
1.087646484375
1.24072265625
1.3261230468749998
1.3220947265624998
1.3954101562499999
1.4139404296875
1.4542236328125
1.5202880859374999
1.5275390624999998
1.5275390624999998
1.5380126953125
1.5251220703125
0.53818359375
0.8596435546875
1.2511962890625
1.3591552734374999
1.5114257812499998
1.6508056640625
2.3098388671875
2.5644287109375
2.29775390625
2.01416015625
1.8103271484374999
1.6967285156249998
1.61455078125
1.5557373046874998
1.590380859375
1.545263671875
1.5404296874999999
1.5484863281249999
1.5831298828125
1.5799072265624998
1.5726562499999999
2.255859375
2.189794921875
1.9529296875
1.8312744140625
1.65966796875
1.4816162109375
1.2254150390625
0.910400390625
0.7863281249999999
0.9394042968749999
1.10859375
1.24716796875
1.2947021484374999
1.393798828125
1.4300537109375
1.49853515625
1.5750732421875
1.538818359375
1.5686279296874999
1.5944091796875
1.6024658203125
0.5019287109375
0.7694091796875
1.0731445312499999
1.2383056640624999
1.4501953125
1.6024658203125
1.8151611328125
2.6240478515624996
2.4049072265625
2.0826416015625
1.832080078125
1.74345703125
1.6894775390624999
1.6749755859375
1.6685302734374998
1.6854492187499999
1.603271484375
1.5597656249999998
1.5726562499999999
1.525927734375
1.5057861328125
2.238134765625
2.4145751953125
2.070556640625
1.9037841796875
1.667724609375
1.47275390625
1.119873046875
0.825
0.6952880859374999
0.90556640625
1.0642822265625
1.2044677734375
1.3148437499999999
1.3551269531249999
1.40185546875
1.4356933593749999
1.5251220703125
1.5573486328125
1.56943359375
1.5637939453124998
1.5436523437499998
0.710595703125
0.539794921875
1.0376953125
1.22138671875
1.3575439453125
1.6395263671875
1.8385253906249999
2.7884033203125
2.66513671875
2.27197265625
2.0326904296875
1.8224121093749999
1.6798095703125
1.6540283203125
1.6636962890625
1.6411376953124999
1.6081054687499998
1.5702392578125
1.5686279296874999
1.5162597656249999
1.53720703125
1.5460693359375
2.47177734375
2.141455078125
1.9464843749999998
1.6951171875
1.49853515625
1.2979248046874998
0.8531982421875
0.5470458984375
0.6678955078125
0.9168457031249999
1.19560546875
1.329345703125
1.393798828125
1.4236083984374999
1.4993408203124998
1.47275390625
1.4953124999999998
1.5218994140625
1.5484863281249999
1.5138427734375
0.6437255859375
0.40122070312499997
0.8822021484375
1.06669921875
1.3365966796875
1.4953124999999998
1.7023681640625
2.882666015625
2.7593994140625
2.4468017578125
2.054443359375
1.8796142578125
1.78857421875
1.6935058593749999
1.6653076171874999
1.6089111328124999
1.5670166015625
1.5404296874999999
1.56298828125
1.5686279296874999
1.4945068359375
1.52109375
2.69091796875
2.3404541015625
2.0302734375
1.8489990234375
1.7128417968749998
1.3929931640625
0.8870361328124999
0.5220703125
0.54140625
0.8282226562499999
0.9933837890624999
1.126318359375
1.2125244140625
1.3349853515624999
1.3873535156249999
1.5082031249999999
1.5283447265624999
1.4961181640624999
1.5194824218749998
1.5122314453124999
1.4872558593749998
0.18288574218749998
0.7476562499999999
0.9490722656249999
1.171435546875
1.4800048828124999
1.7668212890625
2.60068359375
2.995458984375
2.6788330078125
2.3307861328125
2.0939208984374997
1.8240234375
1.75634765625
1.7507080078125
1.7265380859375
1.6532226562499999
1.5597656249999998
1.5186767578125
1.513037109375
1.4759765624999999
1.5073974609374998
2.792431640625
2.5128662109374997
2.2808349609375
2.0657226562499997
1.76279296875
1.533984375
0.8185546874999999
0.3794677734375
0.32468261718749997
0.530126953125
0.833056640625
1.061865234375
1.13115234375
1.2737548828124998
1.2584472656249999
1.4284423828125
1.4759765624999999
1.529150390625
1.5444580078124999
1.5436523437499998
1.5412353515625
0.0636474609375
0.44794921875
0.797607421875
1.0707275390625
1.3043701171875
1.625830078125
2.8125732421875
3.037353515625
2.8883056640625
2.6192138671875
2.241357421875
2.02705078125
1.8925048828125
1.7418457031249999
1.6781982421875
1.6129394531249999
1.585546875
1.558154296875
1.5637939453124998
1.529150390625
1.5073974609374998
2.7755126953125
2.7392578125
2.4298828125
2.1793212890625
1.8844482421875
1.5404296874999999
0.8596435546875
0.40122070312499997
0.1232666015625
0.36174316406249996
0.6501708984375
0.8886474609374999
1.052197265625
1.2503906249999999
1.3317626953125
1.3849365234375
1.4816162109375
1.4800048828124999
1.5404296874999999
1.5662109375
1.5476806640624998
0.17482910156249998
0.394775390625
0.7259033203124999
0.8789794921874999
1.197216796875
1.5702392578125
2.2969482421875
3.0365478515624997
2.96484375
2.6756103515625
2.3952392578125
2.0858642578124997
1.9569580078125
1.8038818359375
1.7982421874999999
1.6894775390624999
1.5960205078124998
1.577490234375
1.5509033203125
1.5162597656249999
1.4977294921875
2.753759765625
2.7755126953125
2.4806396484374997
2.34609375
1.9666259765624998
1.6250244140624999
1.252001953125
0.4197509765625
0.1554931640625
0.2578125
0.54140625
0.7718261718749999
0.9385986328125
1.13115234375
1.2568359375
1.33740234375
1.5243164062499999
1.5565429687499999
1.5654052734375
1.53076171875
1.50498046875
0.130517578125
0.11762695312499999
0.549462890625
0.863671875
1.15048828125
1.5146484375
2.0036865234375
3.0357421875
3.037353515625
2.8673583984374997
2.4774169921875
2.212353515625
1.998046875
1.8304687499999999
1.8216064453124998
1.7442626953125
1.5863525390625
1.542041015625
1.5162597656249999
1.482421875
1.4759765624999999
2.0890869140625
2.9342285156249996
2.5555664062499996
2.38154296875
2.101171875
1.835302734375
1.2560302734375
0.6010253906249999
0.1377685546875
0.233642578125
0.439892578125
0.7025390625
0.9603515625
1.045751953125
1.200439453125
1.340625
1.4558349609374999
1.53076171875
1.5541259765625
1.5444580078124999
1.5492919921875
0.8612548828125
0.026586914062499998
0.4358642578125
0.69609375
0.9724365234375
1.477587890625
1.796630859375
3.0365478515624997
3.0357421875
2.8705810546875
2.5885986328125
2.318701171875
2.0600830078125
1.9215087890625
1.8175781249999998
1.72734375
1.651611328125
1.6508056640625
1.5782958984375
1.53720703125
1.5396240234374998
1.5218994140625
3.005126953125
2.7900146484375
2.5563720703125
2.1785156249999997
1.8578613281249998
1.4848388671875
0.562353515625
0.02900390625
0.0322265625
0.1998046875
0.5196533203125
0.7412109375
0.8822021484375
1.11826171875
1.313232421875
1.3333740234375
1.4501953125
1.509814453125
1.5573486328125
1.609716796875
0.928125
0.02900390625
0.31743164062499996
0.6574218749999999
0.93779296875
1.26328125
1.5670166015625
3.0357421875
3.0389648437499996
3.0357421875
2.7247558593749996
2.42666015625
2.20107421875
2.0504150390625
1.8763916015625
1.8312744140625
1.7313720703125
1.6081054687499998
1.59521484375
1.5484863281249999
1.5654052734375
1.58232421875
3.0357421875
2.8754150390624997
2.5998779296874996
2.4210205078125
2.1060058593749997
1.5202880859374999
0.6872314453124999
0.130517578125
0.0298095703125
0.18852539062499998
0.3746337890625
0.620361328125
0.837890625
1.0546142578125
1.09892578125
1.3390136718749999
1.4526123046875
1.48564453125
1.5404296874999999
1.5984375
1.5863525390625
0.0298095703125
0.2553955078125
0.4568115234375
0.726708984375
1.1239013671875
1.5057861328125
2.4242431640624997
3.0365478515624997
3.0357421875
2.8109619140624997
2.5628173828125
2.276806640625
2.096337890625
1.977099609375
1.920703125
1.848193359375
1.7329833984374998
1.6612792968749999
1.6000488281249998
1.5662109375
1.5186767578125
3.0317138671875
2.86494140625
2.6377441406249997
2.4886962890624997
2.1333984375
1.7257324218749999
0.9369873046874999
0.167578125
0.02900390625
0.091845703125
0.404443359375
0.6630615234374999
0.78310546875
1.0046630859374999
1.126318359375
1.2882568359375
1.409912109375
1.5090087890625
1.5315673828124998
1.56943359375
1.558154296875
0.0298095703125
0.12246093749999999
0.4390869140625
0.717041015625
1.0320556640625
1.4091064453125
2.7207275390624996
3.050244140625
3.0381591796875
2.9455078125
2.5555664062499996
2.2953369140624997
2.13662109375
2.00771484375
1.861083984375
1.8183837890624999
1.64677734375
1.6040771484374998
1.6483886718749998
1.603271484375
1.55009765625
2.7505371093749997
3.0349365234374996
2.744091796875
2.591015625
2.2051025390625
1.7426513671875
1.190771484375
0.41733398437499997
0.0281982421875
0.04189453125
0.2553955078125
0.5277099609375
0.7178466796874999
0.8983154296875
1.0675048828125
1.1964111328125
1.3873535156249999
1.47275390625
1.522705078125
1.5637939453124998
1.533984375
0.19658203124999998
0.07412109374999999
0.38107910156249997
0.5824951171875
0.8822021484375
1.3688232421875
1.8860595703124998
3.0397705078125
3.0349365234374996
2.9100585937499996
2.7013916015625
2.462109375
2.157568359375
2.0020751953125
1.9891845703125
1.980322265625
1.754736328125
1.6886718749999998
1.625830078125
1.5645996093749999
1.5299560546875
1.6564453124999998
3.0075439453125
2.7803466796875
2.616796875
2.238134765625
1.8635009765625
1.4638916015624999
0.3988037109375
0.0322265625
0.02900390625
0.1740234375
0.475341796875
0.6630615234374999
0.8499755859375
1.0465576171875
1.206884765625
1.3664062499999998
1.4598632812499999
1.5122314453124999
1.5194824218749998
1.5791015625
0.25458984375
0.0298095703125
0.269091796875
0.51884765625
0.863671875
1.2262207031249999
1.6524169921874998
3.0389648437499996
3.0349365234374996
3.01962890625
2.7513427734375
2.54267578125
2.3033935546874997
2.1567626953125
2.022216796875
1.8465820312499999
1.7982421874999999
1.6556396484375
1.6177734375
1.5557373046874998
1.5009521484375
1.5315673828124998
3.0325195312499997
2.892333984375
2.640966796875
2.4435791015625
2.1076171875
1.4655029296875
0.671923828125
0.0314208984375
0.027392578124999997
0.1345458984375
0.32468261718749997
0.5293212890625
0.758935546875
0.9289306640624999
1.0530029296874999
1.3390136718749999
1.4558349609374999
1.4598632812499999
1.5170654296875
1.5919921874999998
1.5243164062499999
0.027392578124999997
0.2537841796875
0.4149169921875
0.6856201171874999
0.961962890625
1.577490234375
3.034130859375
3.0357421875
3.0397705078125
2.8713867187499997
2.6296874999999997
2.3203125
2.160791015625
2.0455810546874997
2.1213134765625
1.8618896484374998
1.7442626953125
1.6951171875
1.641943359375
1.571044921875
1.5492919921875
3.034130859375
3.0164062499999997
2.8850830078125
2.6538574218749997
2.1825439453124997
1.8014648437499998
0.8161376953124999
0.030615234374999998
0.027392578124999997
0.0322265625
0.17885742187499998
0.4036376953125
0.5260986328125
0.7541015624999999
0.9168457031249999
1.1093994140624999
1.26005859375
1.393798828125
1.4953124999999998
1.5476806640624998
1.5984375
0.0314208984375
0.0475341796875
0.32871093749999997
0.5567138671874999
0.7710205078125
1.2560302734375
2.2236328125
3.0365478515624997
3.0349365234374996
2.98095703125
2.7513427734375
2.5587890625
2.415380859375
2.228466796875
2.2276611328125
1.96904296875
1.8635009765625
1.6379150390625
1.6081054687499998
1.603271484375
1.5686279296874999
3.0357421875
3.0365478515624997
2.937451171875
2.7658447265625
2.4532470703125
2.035107421875
0.9329589843749999
0.19255371093749998
0.030615234374999998
0.0298095703125
0.03544921875
0.16677246093749998
0.30454101562499997
0.5921630859375
0.784716796875
0.91845703125
1.100537109375
1.264892578125
1.3349853515624999
1.4461669921875
1.4864501953125
0.0362548828125
0.030615234374999998
0.1893310546875
0.20625
0.5744384765625
1.0650878906249999
1.920703125
3.0317138671875
3.0365478515624997
3.037353515625
2.9511474609375
2.808544921875
2.599072265625
2.4387451171875
2.3960449218749997
2.1624023437499997
2.02705078125
1.8989501953124999
1.7982421874999999
1.706396484375
1.662890625
2.642578125
3.0365478515624997
3.034130859375
3.029296875
2.6756103515625
2.2832519531249997
1.6846435546874998
0.639697265625
0.030615234374999998
0.033837890625
0.026586914062499998
0.08620605468749999
0.1740234375
0.3714111328125
0.4761474609375
0.678369140625
0.9724365234375
1.103759765625
1.2366943359375
1.3543212890624998
1.4655029296875
0.4310302734375
0.0281982421875
0.069287109375
0.15871582031249998
0.5083740234374999
0.97001953125
1.4920898437499999
3.034130859375
3.0357421875
3.0349365234374996
3.0164062499999997
2.8721923828125
2.70380859375
2.59423828125
2.4169921875
2.3146728515625
2.0214111328124997
1.8498046874999998
1.770849609375
1.7120361328125
1.6653076171874999
2.4911132812499996
3.0357421875
3.0333251953125
3.0317138671875
2.7666503906249997
2.3871826171875
1.8006591796875
0.7621582031249999
0.0314208984375
0.0322265625
0.0314208984375
0.0322265625
0.1200439453125
0.327099609375
0.475341796875
0.7130126953125
0.8668945312499999
1.0981201171875
1.1835205078125
1.3140380859374998
1.4276367187499999
0.410888671875
0.030615234374999998
0.0580078125
0.09990234375
0.33273925781249997
0.646142578125
1.4066894531249998
3.0357421875
3.037353515625
3.034130859375
3.0381591796875
2.9543701171874996
2.8069335937499997
2.69736328125
2.5676513671874996
2.4242431640624997
2.1599853515625
2.0020751953125
1.9013671875
1.7893798828124998
1.7039794921875
1.6121337890624998
3.0389648437499996
3.0381591796875
3.037353515625
2.9575927734375
2.5467041015625
2.077001953125
1.084423828125
0.030615234374999998
0.0314208984375
0.0346435546875
0.026586914062499998
0.045117187499999996
0.059619140625
0.22719726562499998
0.5349609375
0.6662841796875
0.8870361328124999
1.0368896484374999
1.198828125
1.3220947265624998
1.3607666015625
0.0314208984375
0.0298095703125
0.0298095703125
0.11843261718749999
0.41411132812499996
0.8040527343749999
2.2365234375
3.0349365234374996
3.037353515625
3.0381591796875
3.0357421875
2.92939453125
2.8633300781249997
2.7892089843749996
2.6683593749999996
2.4951416015624996
2.3098388671875
2.115673828125
2.0197998046875
1.9037841796875
1.815966796875
3.034130859375
3.0365478515624997
3.0357421875
3.0405761718749997
2.8456054687499996
2.5007812499999997
1.090869140625
0.1329345703125
0.02578125
0.030615234374999998
0.0314208984375
0.0298095703125
0.026586914062499998
0.0845947265625
0.07412109374999999
0.42216796874999996
0.6227783203124999
0.8572265625
1.0248046874999999
1.1851318359375
1.2938964843749998
0.0298095703125
0.030615234374999998
0.0314208984375
0.030615234374999998
0.18046874999999998
0.53818359375
2.3178955078125
3.0381591796875
3.0389648437499996
3.037353515625
3.0365478515624997
3.0228515624999996
3.0204345703124997
2.9720947265624997
2.8335205078124996
2.8230468749999997
2.5587890625
2.357373046875
2.2147705078124997
2.0197998046875
1.960986328125
3.0357421875
3.0389648437499996
3.0357421875
3.0349365234374996
3.034130859375
2.6917236328125
1.7877685546875
0.781494140625
0.0298095703125
0.033032226562499996
0.030615234374999998
0.0298095703125
0.030615234374999998
0.030615234374999998
0.030615234374999998
0.030615234374999998
0.2634521484375
0.36174316406249996
0.47453613281249996
0.6654785156249999
0.7025390625
0.0322265625
0.0314208984375
0.02900390625
0.030615234374999998
0.027392578124999997
0.201416015625
0.7661865234374999
2.947119140625
3.0365478515624997
3.0357421875
3.0389648437499996
3.0397705078125
3.0357421875
3.0357421875
3.0357421875
3.0357421875
2.9656494140625
2.9970703125
2.9430908203125
2.7892089843749996
2.760205078125
2.876220703125
3.0349365234374996
3.0357421875
3.0365478515624997
3.0389648437499996
3.0365478515624997
3.0357421875
2.586181640625
1.327734375
0.6509765624999999
0.18369140625
0.0322265625
0.030615234374999998
0.030615234374999998
0.0322265625
0.0346435546875
0.0322265625
0.0314208984375
0.02900390625
0.0346435546875
0.02900390625
0.027392578124999997
0.02900390625
0.026586914062499998
0.030615234374999998
0.0314208984375
0.0346435546875
0.0314208984375
1.0892578124999999
2.434716796875
2.9447021484375
3.034130859375
3.037353515625
3.037353515625
3.0397705078125
3.0357421875
3.037353515625
3.0325195312499997
3.0365478515624997
3.0357421875
2.9801513671874997
2.9326171875
2.9358398437499997
3.0365478515624997
3.0365478515624997
3.0389648437499996
3.0349365234374996
3.034130859375
3.0357421875
2.5394531249999996
1.5573486328125
0.758935546875
0.15871582031249998
0.027392578124999997
0.0298095703125
0.030615234374999998
0.030615234374999998
0.0298095703125
0.033032226562499996
0.0298095703125
0.033032226562499996
0.0298095703125
0.027392578124999997
0.030615234374999998
0.033032226562499996
0.0298095703125
0.0281982421875
0.0281982421875
0.0346435546875
0.0322265625
1.171435546875
2.1793212890625
2.7779296875
3.0357421875
3.0365478515624997
3.0365478515624997
3.034130859375
3.0365478515624997
3.0389648437499996
3.0365478515624997
3.037353515625
3.037353515625
3.003515625
2.9624267578124996
2.9350341796875
3.0349365234374996
3.0421875
3.0325195312499997
3.037353515625
3.037353515625
3.037353515625
2.5475097656249996
1.8989501953124999
0.7790771484375
0.2618408203125
0.0314208984375
0.030615234374999998
0.030615234374999998
0.033032226562499996
0.027392578124999997
0.0281982421875
0.027392578124999997
0.030615234374999998
0.0314208984375
0.030615234374999998
0.030615234374999998
0.0298095703125
0.027392578124999997
0.0314208984375
0.0298095703125
0.030615234374999998
0.0298095703125
0.02900390625
1.7587646484375
2.6603027343749996
3.0349365234374996
3.0389648437499996
3.0389648437499996
3.0325195312499997
3.0349365234374996
3.034130859375
3.0365478515624997
3.0381591796875
3.0357421875
3.0365478515624997
3.0002929687499997
2.9656494140625
3.0389648437499996
3.0357421875
3.0349365234374996
3.034130859375
3.0357421875
3.0397705078125
3.0365478515624997
1.8763916015625
0.9474609374999999
0.3158203125
0.0298095703125
0.0322265625
0.0281982421875
0.030615234374999998
0.030615234374999998
0.02900390625
0.033032226562499996
0.02900390625
0.027392578124999997
0.02900390625
0.02900390625
0.030615234374999998
0.033837890625
0.0314208984375
0.02900390625
0.0314208984375
0.0322265625
0.0394775390625
1.803076171875
2.63291015625
3.0244628906249997
3.0357421875
3.0389648437499996
3.0397705078125
3.0357421875
3.0349365234374996
3.0333251953125
3.0349365234374996
3.0357421875
3.0381591796875
2.985791015625
2.9382568359374996
3.0325195312499997
3.037353515625
3.0357421875
3.037353515625
3.0381591796875
3.034130859375
3.0349365234374996
2.231689453125
1.219775390625
0.28681640625
0.030615234374999998
0.033837890625
0.0314208984375
0.026586914062499998
0.0298095703125
0.030615234374999998
0.030615234374999998
0.027392578124999997
0.026586914062499998
0.0298095703125
0.02900390625
0.0346435546875
0.0322265625
0.030615234374999998
0.0314208984375
0.030615234374999998
0.0298095703125
0.02900390625
1.77568359375
2.8866943359375
3.0389648437499996
3.0349365234374996
3.0357421875
3.037353515625
3.034130859375
3.0357421875
3.0365478515624997
3.0365478515624997
3.0389648437499996
3.0357421875
3.0365478515624997
3.0357421875
3.0397705078125
3.0357421875
3.037353515625
3.0365478515624997
3.0333251953125
2.8125732421875
2.3823486328125
1.2495849609374998
0.0298095703125
0.0281982421875
0.024169921875
0.0322265625
0.0298095703125
0.030615234374999998
0.033837890625
0.1232666015625
0.1732177734375
0.35368652343749996
0.4833984375
0.6324462890625
0.7782714843749999
0.9321533203125
0.0314208984375
0.0298095703125
0.0298095703125
0.030615234374999998
0.362548828125
0.813720703125
2.5031982421874996
3.0381591796875
3.037353515625
3.0389648437499996
3.0381591796875
3.034130859375
2.9930419921875
2.900390625
2.7771240234374996
2.6433837890625
2.3259521484375
2.14306640625
1.9658203125
1.8248291015625
1.6886718749999998
3.0357421875
3.0357421875
3.0107666015624996
2.7239501953125
2.367041015625
1.7974365234374998
0.42619628906249996
0.0298095703125
0.033837890625
0.026586914062499998
0.0298095703125
0.10554199218749999
0.15871582031249998
0.4890380859375
0.5534912109375
0.845947265625
1.0288330078124999
1.2310546875
1.3365966796875
1.3728515625
1.4703369140625
0.030615234374999998
0.0314208984375
0.23525390624999998
0.4278076171875
0.7500732421874999
1.1698242187499999
3.0349365234374996
3.0381591796875
3.0357421875
2.8456054687499996
2.631298828125
2.3557617187499997
2.167236328125
2.0044921875
1.8409423828125
1.8183837890624999
1.6822265625
1.6403320312499998
1.6040771484374998
1.5106201171875
1.49853515625
2.8794433593749997
3.0397705078125
2.8834716796874997
2.719921875
2.3654296875
1.880419921875
0.8838134765625
0.11923828125
0.027392578124999997
0.033032226562499996
0.0926513671875
0.23686523437499998
0.42216796874999996
0.6751464843749999
0.87333984375
1.1794921875
1.345458984375
1.4284423828125
1.5355957031249998
1.59521484375
1.611328125
0.0314208984375
0.0281982421875
0.30615234375
0.4632568359375
0.7726318359375
1.384130859375
2.07861328125
3.034130859375
3.0389648437499996
2.95517578125
2.70703125
2.410546875
2.2260498046875
1.9875732421874999
1.9762939453125
1.9223144531249998
1.735400390625
1.5919921874999998
1.5114257812499998
1.4373046875
1.44052734375
2.8037109375
3.0333251953125
2.7489257812499996
2.5612060546874997
2.102783203125
1.6556396484375
1.2576416015624998
0.22316894531249998
0.0346435546875
0.030615234374999998
0.20866699218749998
0.57041015625
0.8121093749999999
0.9933837890624999
1.2020507812499999
1.353515625
1.49853515625
1.5637939453124998
1.5799072265624998
1.5734619140625
1.51787109375
0.0958740234375
0.02900390625
0.42941894531249997
0.7500732421874999
1.0997314453125
1.4590576171874998
1.8602783203125
3.0357421875
3.0389648437499996
2.8786376953125
2.5144775390625
2.2187988281249997
1.9859619140625
1.8143554687499999
1.796630859375
1.6532226562499999
1.6749755859375
1.6177734375
1.5484863281249999
1.529150390625
1.4880615234374999
1.6250244140624999
3.0010986328125
2.5950439453125
2.384765625
2.083447265625
1.7635986328125
1.2109130859375
0.50595703125
0.057202148437499996
0.1152099609375
0.3907470703125
0.684814453125
0.9466552734375
1.174658203125
1.2947021484374999
1.3897705078125
1.509814453125
1.5807128906249999
1.5815185546875
1.5927978515624999
1.6137451171875
1.405078125
0.030615234374999998
0.530126953125
0.7710205078125
1.1190673828125
1.5686279296874999
1.8473876953125
3.0397705078125
3.0357421875
2.78759765625
2.44921875
2.1100341796874997
1.877197265625
1.77890625
1.7474853515625
1.6612792968749999
1.6475830078125
1.5960205078124998
1.5839355468749998
1.5509033203125
1.5702392578125
1.577490234375
2.8915283203124997
2.578125
2.309033203125
2.018994140625
1.6443603515624998
1.3801025390625
0.6066650390625
0.24089355468749998
0.24814453125
0.4874267578125
0.8016357421875
0.9885498046875
1.158544921875
1.3341796874999998
1.405078125
1.442138671875
1.5476806640624998
1.5726562499999999
1.5565429687499999
1.5533203125
1.46630859375
0.030615234374999998
0.4648681640625
0.8386962890624999
1.155322265625
1.400244140625
1.6693359374999999
2.9519531249999997
3.037353515625
2.8673583984374997
2.4065185546875
2.1342041015624997
1.8884765625
1.8014648437499998
1.719287109375
1.77568359375
1.5968261718749999
1.5243164062499999
1.52109375
1.545263671875
1.53720703125
1.522705078125
2.8311035156249997
2.6764160156249996
2.276806640625
2.0625
1.8151611328125
1.429248046875
0.7154296874999999
0.36979980468749996
0.2183349609375
0.501123046875
0.75732421875
0.9861328125
1.1609619140625
1.2882568359375
1.4308593749999998
1.4381103515625
1.5162597656249999
1.5541259765625
1.5678222656249998
1.585546875
1.5726562499999999
0.14501953125
0.5277099609375
0.88623046875
1.0658935546875
1.40185546875
1.674169921875
2.2727783203125
3.034130859375
2.8464111328125
2.4983642578125
2.1519287109375
1.8586669921874999
1.7781005859374999
1.716064453125
1.6693359374999999
1.5799072265624998
1.529150390625
1.53076171875
1.542041015625
1.5235107421874998
1.513037109375
2.8721923828125
2.673193359375
2.334814453125
2.1503173828124997
1.714453125
1.445361328125
1.126318359375
0.4165283203125
0.26022949218749997
0.47775878906249997
0.8693115234375
1.0505859375
1.11826171875
1.2689208984375
1.3849365234375
1.4155517578124999
1.5412353515625
1.58232421875
1.6121337890624998
1.6000488281249998
1.5968261718749999
0.14421386718749998
0.3037353515625
0.72509765625
1.0771728515624999
1.4091064453125
1.7152587890625
2.50400390625
3.0357421875
2.9197265624999997
2.5531494140624997
2.1277587890625
1.8941162109374998
1.7466796875
1.6483886718749998
1.65966796875
1.619384765625
1.5436523437499998
1.522705078125
1.5323730468749999
1.5186767578125
1.5267333984375
2.2365234375
2.8166015625
2.3356201171874997
2.1325927734375
1.8506103515624999
1.4510009765624998
1.1400146484375
0.580078125
0.22880859374999998
0.4447265625
0.7114013671874999
0.9869384765625
1.18271484375
1.3172607421875
1.3873535156249999
1.50498046875
1.5267333984375
1.5283447265624999
1.5315673828124998
1.5702392578125
1.5484863281249999
0.6920654296875
0.3150146484375
0.8040527343749999
1.0578369140625
1.3156494140625
1.7313720703125
1.998046875
3.037353515625
2.9479248046874997
2.5322021484375
2.1632080078125
1.8739746093749998
1.754736328125
1.719287109375
1.699951171875
1.6556396484375
1.606494140625
1.5645996093749999
1.513037109375
1.533984375
1.5428466796875
2.1793212890625
2.872998046875
2.4177978515625
2.1140624999999997
1.819189453125
1.4953124999999998
1.2189697265625
0.5132080078125
0.22075195312499998
0.3843017578125
0.77666015625
1.03447265625
1.1690185546875
1.2656982421874998
1.3414306640625
1.4598632812499999
1.5299560546875
1.59521484375
1.606494140625
1.58232421875
1.574267578125
0.717041015625
0.0322265625
0.6711181640624999
1.0723388671875
1.3583496093749998
1.6169677734374999
2.0181884765625
3.034130859375
3.0349365234374996
2.6433837890625
2.1229248046875
1.8780029296874998
1.7297607421874999
1.69189453125
1.6798095703125
1.6814208984374999
1.5073974609374998
1.509814453125
1.53720703125
1.5170654296875
1.4953124999999998
1.4993408203124998
3.037353515625
2.470166015625
2.18818359375
1.9464843749999998
1.5041748046874999
1.2060791015624999
0.34885253906249997
0.1345458984375
0.2827880859375
0.6654785156249999
0.9482666015625
1.1923828125
1.281005859375
1.3873535156249999
1.3527099609375
1.5122314453124999
1.6081054687499998
1.5927978515624999
1.609716796875
1.611328125
1.5678222656249998
0.027392578124999997
0.7395996093749999
0.990966796875
1.2423339843749999
1.606494140625
1.8417480468749998
3.0381591796875
3.037353515625
2.602294921875
2.2147705078124997
1.941650390625
1.7635986328125
1.7152587890625
1.6781982421875
1.7168701171874998
1.5815185546875
1.5299560546875
1.5517089843749998
1.53076171875
1.4953124999999998
1.5001464843749999
3.0357421875
2.505615234375
2.1583740234374997
1.8715576171875
1.6532226562499999
1.3341796874999998
0.26103515625
0.030615234374999998
0.06767578125
0.47050781249999996
0.9563232421875
1.1939941406249999
1.2141357421874999
1.4034667968749999
1.3857421875
1.6040771484374998
1.6363037109374998
1.6475830078125
1.6540283203125
1.6524169921874998
1.587158203125
0.0298095703125
0.6131103515624999
1.1029541015625
1.3019531249999998
1.5267333984375
1.8498046874999998
3.037353515625
3.0357421875
2.7787353515624997
2.18173828125
1.928759765625
1.7909912109375
1.6991455078125
1.6604736328124998
1.603271484375
1.6669189453125
1.4759765624999999
1.5251220703125
1.5275390624999998
1.5009521484375
1.52109375
3.0349365234374996
2.9269775390625
2.064111328125
1.9384277343749998
1.5428466796875
1.2221923828124999
0.26103515625
0.02900390625
0.027392578124999997
0.5132080078125
0.9144287109375
1.216552734375
1.3043701171875
1.513037109375
1.5218994140625
1.529150390625
1.690283203125
1.6564453124999998
1.6459716796875
1.6693359374999999
1.609716796875
0.0314208984375
0.6896484374999999
1.1657958984374999
1.2495849609374998
1.577490234375
1.977099609375
2.8778320312499996
3.037353515625
2.6337158203124997
2.1978515625
1.896533203125
1.67578125
1.658056640625
1.5863525390625
1.72734375
1.66611328125
1.5090087890625
1.5364013671874999
1.5114257812499998
1.4679199218749999
1.493701171875
3.0365478515624997
3.0252685546875
1.9698486328125
1.8578613281249998
1.4308593749999998
1.05380859375
0.7001220703125
0.033837890625
0.0298095703125
0.44956054687499997
0.9047607421874999
1.239111328125
1.3285400390625
1.44052734375
1.50498046875
1.554931640625
1.71123046875
1.7088134765624998
1.69833984375
1.6564453124999998
1.6129394531249999
0.0314208984375
0.0346435546875
1.351904296875
1.3664062499999998
1.6475830078125
2.04638671875
2.7561767578125
3.037353515625
2.8802490234375
2.2429687499999997
1.8304687499999999
1.6959228515625
1.6363037109374998
1.6081054687499998
1.703173828125
1.5057861328125
1.46630859375
1.45341796875
1.482421875
1.474365234375
1.4800048828124999
1.7015624999999999
3.0325195312499997
1.9779052734375
1.8626953124999999
1.6395263671875
1.0594482421875
0.7081787109375
0.030615234374999998
0.030615234374999998
0.4406982421875
0.8830078124999999
1.1593505859375
1.34384765625
1.4244140625
1.5017578125
1.4840332031249999
1.6733642578124999
1.703173828125
1.667724609375
1.662890625
1.6475830078125
1.3897705078125
0.033032226562499996
1.2947021484374999
1.2769775390625
1.477587890625
2.0214111328124997
2.29453125
3.0365478515624997
3.0075439453125
2.31064453125
1.9472900390624999
1.754736328125
1.587158203125
1.63388671875
1.674169921875
1.5686279296874999
1.6532226562499999
1.5025634765625
1.5001464843749999
1.4767822265625
1.4961181640624999
1.482421875
3.0365478515624997
2.1084228515625
1.9118408203125
1.670947265625
1.42119140625
1.06025390625
0.0314208984375
0.033032226562499996
0.133740234375
0.69287109375
1.148876953125
1.3285400390625
1.287451171875
1.522705078125
1.4800048828124999
1.6081054687499998
1.7652099609374998
1.735400390625
1.714453125
1.6862548828125
1.4687255859375
0.02578125
1.1529052734375
1.340625
1.4912841796874998
1.690283203125
1.9762939453125
3.0357421875
3.037353515625
2.4427734375
1.85302734375
1.6508056640625
1.5831298828125
1.638720703125
1.667724609375
1.8062988281249999
1.4928955078125
1.4945068359375
1.5251220703125
1.5146484375
1.5041748046874999
1.4928955078125
3.0365478515624997
2.1164794921875
1.9867675781249998
1.8183837890624999
1.4493896484375
1.0852294921874999
0.0298095703125
0.026586914062499998
0.13615722656249998
0.7049560546875
1.03447265625
1.2544189453124999
1.3269287109374999
1.5597656249999998
1.6620849609375
1.63388671875
1.7289550781249998
1.6814208984374999
1.6862548828125
1.683837890625
1.6024658203125
0.030615234374999998
1.103759765625
1.4284423828125
1.3752685546874999
1.7281494140625
2.101171875
3.0397705078125
3.037353515625
2.4685546874999997
2.0181884765625
1.7418457031249999
1.5919921874999998
1.6540283203125
1.6177734375
1.6959228515625
1.5984375
1.429248046875
1.4622802734375
1.4840332031249999
1.474365234375
1.482421875
3.0381591796875
2.5708740234375
1.851416015625
1.7853515624999998
1.3833251953124999
1.0352783203125
0.21108398437499998
0.0281982421875
0.0322265625
0.5728271484374999
1.1045654296875
1.3172607421875
1.2721435546875
1.4598632812499999
1.611328125
1.6089111328124999
1.6975341796874999
1.6395263671875
1.662890625
1.654833984375
1.6153564453125
0.026586914062499998
0.46647949218749996
1.3849365234375
1.4244140625
1.7668212890625
2.141455078125
2.88427734375
3.034130859375
2.7344238281249997
2.1487060546875
1.7410400390624998
1.5895751953125
1.56298828125
1.6161621093749998
1.6894775390624999
1.654833984375
1.4735595703125
1.4751708984374998
1.5170654296875
1.5057861328125
1.509814453125
3.0365478515624997
3.034130859375
1.9013671875
1.8763916015625
1.56943359375
1.0570312499999999
0.578466796875
0.0378662109375
0.030615234374999998
0.56396484375
1.0030517578125
1.24072265625
1.3414306640625
1.477587890625
1.561376953125
1.7039794921875
1.7571533203124998
1.7233154296875
1.69189453125
1.6693359374999999
1.60166015625
0.0322265625
0.38591308593749996
1.3833251953124999
1.4195800781249999
1.5670166015625
2.1019775390624997
2.402490234375
3.0357421875
2.6707763671875
2.12373046875
1.7587646484375
1.56943359375
1.6185791015625
1.65966796875
1.6846435546874998
1.6177734375
1.4735595703125
1.46953125
1.5025634765625
1.474365234375
1.4832275390624998
1.5154541015624998
3.0389648437499996
1.9956298828124999
1.8763916015625
1.5621826171875
1.1899658203124999
0.9160400390625
0.030615234374999998
0.0314208984375
0.33515625
0.8507812499999999
1.2109130859375
1.368017578125
1.4300537109375
1.5186767578125
1.6814208984374999
1.6943115234375
1.7233154296875
1.6685302734374998
1.6830322265625
1.6072998046875
0.133740234375
0.0314208984375
1.3414306640625
1.3656005859375
1.6072998046875
1.8586669921874999
2.1567626953125
3.034130859375
3.034130859375
2.309033203125
1.8473876953125
1.6508056640625
1.5879638671874998
1.6314697265625
1.670947265625
1.7732666015624998
1.606494140625
1.4872558593749998
1.496923828125
1.461474609375
1.4840332031249999
1.496923828125
3.0349365234374996
2.152734375
1.796630859375
1.703173828125
1.4493896484375
0.9345703125
0.0298095703125
0.0314208984375
0.1635498046875
0.837890625
1.2020507812499999
1.3801025390625
1.3954101562499999
1.52109375
1.4364990234375
1.67900390625
1.687060546875
1.6491943359374999
1.7023681640625
1.6290527343749999
1.5992431640625
0.030615234374999998
1.2850341796875
1.4195800781249999
1.5355957031249998
1.812744140625
2.0657226562499997
3.0365478515624997
3.0357421875
2.31708984375
1.9053955078125
1.6951171875
1.545263671875
1.61455078125
1.6830322265625
1.783740234375
1.5275390624999998
1.4872558593749998
1.5025634765625
1.5057861328125
1.4880615234374999
1.529150390625
3.0397705078125
2.1922119140625
1.8135498046874998
1.719287109375
1.4316650390624999
1.1214843749999999
0.133740234375
0.033837890625
0.09748535156249999
0.7242919921875
1.119873046875
1.4091064453125
1.3349853515624999
1.5919921874999998
1.4679199218749999
1.635498046875
1.76279296875
1.6781982421875
1.641943359375
1.6556396484375
1.5863525390625
0.0322265625
0.958740234375
1.458251953125
1.490478515625
1.7853515624999998
2.0874755859375
3.0397705078125
3.0333251953125
2.4516357421875
1.996435546875
1.670947265625
1.5863525390625
1.5847412109374999
1.65966796875
1.6395263671875
1.6475830078125
1.3801025390625
1.4606689453125
1.5090087890625
1.4977294921875
1.5186767578125
3.037353515625
2.8464111328125
1.8199951171875
1.7668212890625
1.3736572265625
1.045751953125
0.064453125
0.030615234374999998
0.033837890625
0.684814453125
1.0997314453125
1.316455078125
1.3333740234375
1.5589599609375
1.5492919921875
1.5476806640624998
1.6798095703125
1.625830078125
1.6161621093749998
1.6564453124999998
1.5968261718749999
0.0314208984375
0.2199462890625
1.4622802734375
1.5114257812499998
1.7539306640624999
2.1301757812499997
2.5475097656249996
3.037353515625
2.8536621093749996
2.03671875
1.7200927734375
1.5984375
1.6137451171875
1.5895751953125
1.719287109375
1.6733642578124999
1.4469726562499998
1.47275390625
1.5194824218749998
1.5404296874999999
1.51787109375
1.8199951171875
2.9108642578125
1.8546386718749999
1.7394287109375
1.4147460937499998
1.0739501953125
0.7379882812499999
0.0298095703125
0.027392578124999997
0.5277099609375
1.0288330078124999
1.3212890625
1.4107177734374998
1.4800048828124999
1.5299560546875
1.56298828125
1.7128417968749998
1.662890625
1.6242187499999998
1.609716796875
1.5944091796875
1.152099609375
0.16677246093749998
1.448583984375
1.4550292968749998
1.6645019531249998
2.0302734375
2.23974609375
3.0357421875
2.76181640625
2.164013671875
1.764404296875
1.5637939453124998
1.53720703125
1.6129394531249999
1.703173828125
1.5678222656249998
1.5645996093749999
1.529150390625
1.5355957031249998
1.5114257812499998
1.4928955078125
1.6242187499999998
3.0365478515624997
2.0149658203125
1.7289550781249998
1.538818359375
1.3100097656249998
0.781494140625
0.030615234374999998
0.0314208984375
0.2811767578125
1.026416015625
1.2785888671874999
1.4397216796874999
1.493701171875
1.5557373046874998
1.546875
1.6540283203125
1.7096191406249999
1.65966796875
1.6185791015625
1.577490234375
1.3156494140625
0.030615234374999998
1.448583984375
1.4268310546874998
1.5927978515624999
1.7813232421874998
2.24619140625
3.0365478515624997
3.0357421875
2.147900390625
1.7716552734375
1.6250244140624999
1.5887695312499999
1.6830322265625
1.7039794921875
1.8361083984375
1.5589599609375
1.448583984375
1.5001464843749999
1.5033691406249998
1.5057861328125
1.51787109375
3.037353515625
2.0133544921874997
1.7893798828124998
1.6798095703125
1.361572265625
1.110205078125
0.030615234374999998
0.033837890625
0.30937499999999996
0.800830078125
1.198828125
1.4123291015625
1.3478759765625
1.5235107421874998
1.482421875
1.6894775390624999
1.662890625
1.61455078125
1.6209960937499999
1.5984375
1.606494140625
0.0281982421875
1.2302490234374999
1.5509033203125
1.6089111328124999
1.7668212890625
2.0101318359375
3.037353515625
3.0357421875
2.40732421875
1.9303710937499998
1.6443603515624998
1.5380126953125
1.6040771484374998
1.6725585937499998
1.8103271484374999
1.6427490234375
1.5170654296875
1.5299560546875
1.5106201171875
1.5122314453124999
1.5106201171875
3.0365478515624997
2.42666015625
1.8071044921875
1.6951171875
1.2930908203125
1.0965087890625
0.0346435546875
0.027392578124999997
0.033032226562499996
0.8523925781249999
1.2254150390625
1.4107177734374998
1.3905761718749998
1.5678222656249998
1.5645996093749999
1.49853515625
1.6806152343749998
1.651611328125
1.6451660156249999
1.6298583984375
1.5412353515625
0.0298095703125
0.6066650390625
1.542041015625
1.5017578125
1.8183837890624999
2.0214111328124997
3.037353515625
3.037353515625
2.3742919921875
1.9343994140624998
1.6645019531249998
1.5589599609375
1.61455078125
1.6242187499999998
1.706396484375
1.5347900390625
1.525927734375
1.5355957031249998
1.5533203125
1.5283447265624999
1.5573486328125
3.0002929687499997
2.521728515625
1.783740234375
1.7813232421874998
1.3744628906249998
1.0352783203125
0.671923828125
0.033032226562499996
0.040283203125
0.6211669921874999
1.0707275390625
1.361572265625
1.3623779296874998
1.5412353515625
1.5678222656249998
1.5057861328125
1.7015624999999999
1.690283203125
1.6403320312499998
1.6475830078125
1.5654052734375
0.0298095703125
0.5470458984375
1.4332763671875
1.456640625
1.786962890625
2.0947265625
2.3783203125
3.0389648437499996
2.6232421875
2.0979492187499997
1.7023681640625
1.5791015625
1.538818359375
1.6330810546874999
1.6830322265625
1.6443603515624998
1.482421875
1.546875
1.533984375
1.50498046875
1.490478515625
2.76181640625
3.0389648437499996
1.896533203125
1.77890625
1.4888671875
1.2286376953125
0.55751953125
0.030615234374999998
0.0322265625
0.44633789062499996
1.036083984375
1.2963134765625
1.3849365234375
1.5057861328125
1.5331787109375
1.6773925781249999
1.7007568359374998
1.635498046875
1.63388671875
1.6290527343749999
1.5799072265624998
0.2553955078125
0.0298095703125
1.4284423828125
1.4010498046875
1.6008544921874999
2.0737792968749997
2.31708984375
3.0365478515624997
2.98095703125
2.11083984375
1.812744140625
1.641943359375
1.5662109375
1.6403320312499998
1.71123046875
1.6218017578125
1.509814453125
1.4840332031249999
1.5315673828124998
1.522705078125
1.506591796875
1.5025634765625
3.0381591796875
1.9400390625
1.7716552734375
1.49853515625
1.2415283203124998
0.9095947265625
0.0314208984375
0.0281982421875
0.4084716796875
0.9740478515625
1.32451171875
1.4155517578124999
1.3954101562499999
1.4832275390624998
1.5976318359375
1.5654052734375
1.6886718749999998
1.67578125
1.6395263671875
1.609716796875
0.26103515625
0.0298095703125
1.3784912109374998
1.49853515625
1.67578125
1.9835449218749999
2.115673828125
3.0349365234374996
2.785986328125
2.1793212890625
1.6781982421875
1.5557373046874998
1.571044921875
1.6395263671875
1.6564453124999998
1.7442626953125
1.4832275390624998
1.513037109375
1.5557373046874998
1.545263671875
1.5154541015624998
1.525927734375
3.0365478515624997
2.1591796875
1.8022705078124999
1.6242187499999998
1.41796875
1.0530029296874999
0.0298095703125
0.0281982421875
0.14421386718749998
0.9434326171874999
1.2125244140625
1.3921875
1.4542236328125
1.5355957031249998
1.429248046875
1.571044921875
1.674169921875
1.641943359375
1.6250244140624999
1.62744140625
1.5323730468749999
0.02900390625
1.3559326171875
1.51787109375
1.5557373046874998
1.812744140625
2.1019775390624997
3.0357421875
3.037353515625
2.3017822265625
1.8908935546874999
1.687060546875
1.5218994140625
1.6081054687499998
1.67900390625
1.687060546875
1.561376953125
1.4590576171874998
1.493701171875
1.5283447265624999
1.5162597656249999
1.5122314453124999
3.034130859375
2.1519287109375
1.738623046875
1.7474853515625
1.45341796875
1.116650390625
0.037060546874999996
0.0298095703125
0.1506591796875
0.6662841796875
1.077978515625
1.4147460937499998
1.361572265625
1.522705078125
1.482421875
1.658056640625
1.67578125
1.6314697265625
1.6379150390625
1.6403320312499998
1.5807128906249999
0.030615234374999998
0.9410156249999999
1.4920898437499999
1.56943359375
1.8457763671874998
2.131787109375
2.5088378906249997
3.037353515625
2.5168945312499997
2.0149658203125
1.6532226562499999
1.5275390624999998
1.5412353515625
1.6322753906249998
1.67578125
1.6854492187499999
1.464697265625
1.538818359375
1.53720703125
1.5162597656249999
1.52109375
3.0365478515624997
2.9100585937499996
1.7821289062499999
1.7716552734375
1.4042724609375
1.1142333984375
0.459228515625
0.0298095703125
0.02900390625
0.7379882812499999
1.135986328125
1.4147460937499998
1.4397216796874999
1.522705078125
1.5033691406249998
1.5758789062499998
1.6781982421875
1.6459716796875
1.625830078125
1.6346923828125
1.5791015625
0.033837890625
0.167578125
1.4622802734375
1.5573486328125
1.67900390625
2.044775390625
2.592626953125
3.0349365234374996
2.5088378906249997
1.9859619140625
1.6943115234375
1.5517089843749998
1.5726562499999999
1.6612792968749999
1.703173828125
1.635498046875
1.4977294921875
1.5033691406249998
1.5194824218749998
1.522705078125
1.5122314453124999
1.638720703125
2.9624267578124996
1.8900878906249998
1.7257324218749999
1.4687255859375
1.116650390625
0.8370849609375
0.02900390625
0.0298095703125
0.533349609375
1.0086914062499999
1.361572265625
1.40830078125
1.4920898437499999
1.4961181640624999
1.6185791015625
1.6669189453125
1.625830078125
1.6290527343749999
1.6508056640625
1.6330810546874999
0.02900390625
0.058813476562499994
1.4316650390624999
1.4888671875
1.7104248046875
1.9360107421875
2.27841796875
3.0365478515624997
2.8657470703124996
2.1986572265624997
1.754736328125
1.603271484375
1.5839355468749998
1.6854492187499999
1.7450683593749998
1.5766845703124999
1.6298583984375
1.47275390625
1.5243164062499999
1.4945068359375
1.533984375
1.5654052734375
3.0365478515624997
1.93681640625
1.6967285156249998
1.6072998046875
1.3817138671875
0.8677001953125
0.033837890625
0.0314208984375
0.291650390625
0.9740478515625
1.2463623046874999
1.40185546875
1.4469726562499998
1.5041748046874999
1.4872558593749998
1.67900390625
1.6765869140624998
1.6282470703124998
1.625830078125
1.6105224609375
1.4961181640624999
0.030615234374999998
1.4074951171874999
1.456640625
1.5791015625
1.9118408203125
2.1599853515625
3.037353515625
3.037353515625
2.20107421875
1.8054931640624998
1.6209960937499999
1.5275390624999998
1.58232421875
1.641943359375
1.577490234375
1.5364013671874999
1.58232421875
1.587158203125
1.5057861328125
1.5090087890625
1.5154541015624998
3.0349365234374996
2.0488037109375
1.8393310546875
1.63388671875
1.3664062499999998
1.15048828125
0.0314208984375
0.0298095703125
0.233642578125
0.8580322265625
1.2665039062499999
1.35673828125
1.33740234375
1.5186767578125
1.4107177734374998
1.63388671875
1.7047851562499998
1.638720703125
1.6540283203125
1.6604736328124998
1.5863525390625
0.030615234374999998
1.198828125
1.477587890625
1.5323730468749999
1.7217041015624999
2.0310791015625
3.0357421875
3.037353515625
2.318701171875
1.9464843749999998
1.609716796875
1.5251220703125
1.6322753906249998
1.6532226562499999
1.7120361328125
1.6008544921874999
1.5057861328125
1.5235107421874998
1.5565429687499999
1.5267333984375
1.5267333984375
3.037353515625
2.4943359375
1.8522216796875
1.7217041015624999
1.37607421875
1.11826171875
0.030615234374999998
0.0298095703125
0.04833984375
0.7968017578125
1.1617675781249999
1.3825195312499998
1.3736572265625
1.58232421875
1.546875
1.554931640625
1.638720703125
1.6443603515624998
1.6250244140624999
1.6242187499999998
1.5807128906249999
0.0298095703125
0.6082763671875
1.5541259765625
1.52109375
1.815966796875
2.0085205078125
2.698974609375
3.0357421875
2.4774169921875
1.9569580078125
1.69189453125
1.5605712890624999
1.5863525390625
1.6024658203125
1.6959228515625
1.590380859375
1.4671142578124998
1.525927734375
1.533984375
1.5017578125
1.5315673828124998
2.81982421875
2.5080322265625
1.7901855468749999
1.7668212890625
1.3728515625
1.0658935546875
0.7073730468749999
0.0620361328125
0.0322265625
0.6469482421874999
1.09892578125
1.384130859375
1.3873535156249999
1.5186767578125
1.50498046875
1.4840332031249999
1.703173828125
1.6862548828125
1.6105224609375
1.5992431640625
1.5605712890624999
0.02900390625
0.5244873046874999
1.5082031249999999
1.482421875
1.7281494140625
2.0826416015625
2.318701171875
3.0365478515624997
2.6490234375
2.1060058593749997
1.7176757812499999
1.5525146484374999
1.5299560546875
1.538818359375
1.6725585937499998
1.611328125
1.5275390624999998
1.5106201171875
1.5347900390625
1.5267333984375
1.5428466796875
2.5458984375
3.037353515625
1.9013671875
1.786962890625
1.52109375
1.2286376953125
0.7218749999999999
0.030615234374999998
0.030615234374999998
0.41330566406249997
1.1053710937499999
1.32451171875
1.3986328124999998
1.513037109375
1.5202880859374999
1.6129394531249999
1.7233154296875
1.6935058593749999
1.651611328125
1.6209960937499999
1.590380859375
0.40524902343749997
0.026586914062499998
1.4630859374999998
1.5154541015624998
1.6379150390625
1.7668212890625
2.3203125
3.0381591796875
2.9712890625
2.077001953125
1.7740722656249999
1.5968261718749999
1.5299560546875
1.662890625
1.66611328125
1.780517578125
1.493701171875
1.480810546875
1.5621826171875
1.5323730468749999
1.52109375
1.522705078125
3.0389648437499996
1.9005615234375
1.7926025390625
1.638720703125
1.24716796875
0.9772705078124999
0.0298095703125
0.0346435546875
0.4125
0.9531005859374999
1.255224609375
1.3873535156249999
1.4356933593749999
1.482421875
1.6121337890624998
1.6636962890625
1.6371093749999999
1.58232421875
1.6508056640625
1.6081054687499998
1.5525146484374999
0.030615234374999998
1.3664062499999998
1.480810546875
1.5645996093749999
1.8304687499999999
2.077001953125
3.0357421875
3.0357421875
2.2792236328124997
1.8739746093749998
1.5911865234375
1.5404296874999999
1.625830078125
1.7104248046875
1.8119384765625
1.5637939453124998
1.4759765624999999
1.51787109375
1.513037109375
1.5597656249999998
1.5412353515625
3.0389648437499996
2.1680419921875
1.7901855468749999
1.6427490234375
1.4107177734374998
0.9869384765625
0.0314208984375
0.0281982421875
0.14421386718749998
0.952294921875
1.2254150390625
1.3865478515624998
1.3100097656249998
1.49853515625
1.4800048828124999
1.590380859375
1.6765869140624998
1.6483886718749998
1.6169677734374999
1.6524169921874998
1.5444580078124999
0.0314208984375
0.9676025390624999
1.5396240234374998
1.5355957031249998
1.7579589843749999
2.015771484375
3.0244628906249997
3.0349365234374996
2.3114501953124997
1.8586669921874999
1.6612792968749999
1.5364013671874999
1.5919921874999998
1.62744140625
1.6459716796875
1.4872558593749998
1.5202880859374999
1.5412353515625
1.5412353515625
1.5146484375
1.5396240234374998
3.0389648437499996
2.22041015625
1.7660156249999999
1.77568359375
1.42119140625
1.1561279296875
0.5228759765625
0.027392578124999997
0.13212890624999998
0.7436279296874999
1.1625732421875
1.3921875
1.3921875
1.5484863281249999
1.4751708984374998
1.59521484375
1.6886718749999998
1.635498046875
1.6298583984375
1.6250244140624999
1.6177734375
0.0322265625
0.8749511718749999
1.4711425781249998
1.513037109375
1.7990478515625
2.083447265625
2.4613037109375
3.0397705078125
2.52978515625
2.02705078125
1.66611328125
1.56943359375
1.5879638671874998
1.6588623046875
1.6927001953124998
1.7047851562499998
1.4356933593749999
1.5194824218749998
1.5235107421874998
1.4953124999999998
1.5323730468749999
3.034130859375
2.8931396484375
1.835302734375
1.7619873046874999
1.393798828125
1.110205078125
0.16435546874999998
0.027392578124999997
0.0249755859375
0.5486572265624999
1.1190673828125
1.329345703125
1.405078125
1.561376953125
1.4920898437499999
1.6040771484374998
1.662890625
1.6072998046875
1.6040771484374998
1.611328125
1.5718505859374998
0.030615234374999998
0.12890625
1.4928955078125
1.5090087890625
1.732177734375
2.0455810546874997
2.3477050781249997
3.0389648437499996
2.9036132812499997
