2.2212158203125
2.0842529296875
1.6975341796874999
1.364794921875
0.4447265625
0.2537841796875
0.0539794921875
0.46647949218749996
0.8548095703124999
1.0755615234375
1.1448486328125
1.2673095703125
1.3801025390625
1.5186767578125
1.6185791015625
1.593603515625
1.5662109375
1.5919921874999998
1.5275390624999998
0.037060546874999996
0.476953125
0.994189453125
1.1722412109375
1.4066894531249998
1.7797119140625
2.582958984375
3.0421875
2.7247558593749996
2.3646240234375
2.0576660156249997
1.8264404296874999
1.8465820312499999
1.754736328125
1.7603759765625
1.783740234375
1.593603515625
1.5750732421875
1.561376953125
1.5186767578125
1.522705078125
3.003515625
3.0405761718749997
2.33642578125
2.1229248046875
1.7781005859374999
1.429248046875
1.0916748046875
0.21108398437499998
0.033837890625
0.30615234375
0.7178466796874999
1.0675048828125
1.1666015625
1.2866455078124999
1.3478759765625
1.46953125
1.545263671875
1.558154296875
1.5380126953125
1.577490234375
1.5807128906249999
0.033032226562499996
0.03544921875
0.8644775390624999
1.0771728515624999
1.353515625
1.6363037109374998
1.912646484375
3.0462158203125
2.98740234375
2.502392578125
2.1197021484375
1.8941162109374998
1.7797119140625
1.8417480468749998
1.79501953125
1.71123046875
1.75634765625
1.5637939453124998
1.5476806640624998
1.5380126953125
1.5186767578125
1.5597656249999998
3.0429931640624996
2.376708984375
2.147900390625
1.9940185546875
1.6645019531249998
1.029638671875
0.5687988281249999
0.0346435546875
0.2940673828125
0.700927734375
0.9804931640625
1.171435546875
1.2374999999999998
1.329345703125
1.3140380859374998
1.496923828125
1.5976318359375
1.5960205078124998
1.66611328125
1.6218017578125
1.5251220703125
0.0346435546875
0.8773681640625
1.1375976562499999
1.3043701171875
1.6379150390625
1.835302734375
3.0397705078125
2.9688720703125
2.5676513671874996
2.20107421875
1.9432617187499999
1.7281494140625
1.7410400390624998
1.7313720703125
1.7458740234374999
1.6314697265625
1.5887695312499999
1.5702392578125
1.5645996093749999
1.56298828125
1.5396240234374998
3.0429931640624996
2.5305908203125
2.2187988281249997
2.00771484375
1.7184814453125
1.3921875
0.42136230468749997
0.0362548828125
0.1200439453125
0.5309326171875
0.968408203125
1.148876953125
1.1617675781249999
1.340625
1.3148437499999999
1.5396240234374998
1.5758789062499998
1.5525146484374999
1.5476806640624998
1.5726562499999999
1.5541259765625
0.033837890625
0.5736328125
1.068310546875
1.2157470703125
1.5331787109375
1.7571533203124998
3.0421875
3.0397705078125
2.69736328125
2.193017578125
1.9706542968749998
1.832080078125
1.7740722656249999
1.7813232421874998
1.6991455078125
1.72734375
1.6089111328124999
1.5637939453124998
1.6209960937499999
1.5839355468749998
1.5331787109375
3.0421875
2.9503417968749996
2.20107421875
2.0616943359374997
1.722509765625
1.3494873046875
0.4874267578125
0.1313232421875
0.03544921875
0.4713134765625
0.837890625
1.100537109375
1.1375976562499999
1.4630859374999998
1.409912109375
1.5484863281249999
1.5565429687499999
1.5404296874999999
1.5380126953125
1.55009765625
1.545263671875
0.0322265625
0.543017578125
1.0763671875
1.1915771484375
1.522705078125
1.7732666015624998
2.2671386718749997
3.043798828125
2.7690673828124996
2.3920166015624997
2.0689453125
1.8240234375
1.7684326171875
1.7104248046875
1.7611816406249998
1.7539306640624999
1.577490234375
1.5509033203125
1.5863525390625
1.5863525390625
1.5726562499999999
3.04541015625
3.0252685546875
2.3211181640625
2.0898925781249997
1.738623046875
1.3962158203125
1.0272216796875
0.19094238281249998
0.037060546874999996
0.3520751953125
0.85400390625
1.0892578124999999
1.16337890625
1.2826171874999999
1.4316650390624999
1.442138671875
1.5243164062499999
1.58232421875
1.5645996093749999
1.5807128906249999
1.5678222656249998
0.0362548828125
0.03544921875
0.8999267578125
1.158544921875
1.3768798828125
1.67900390625
2.370263671875
3.0429931640624996
2.9318115234374997
2.4749999999999996
2.044775390625
1.8538330078124998
1.7458740234374999
1.7136474609374999
1.7595703125
1.65966796875
1.5662109375
1.6008544921874999
1.5799072265624998
1.5476806640624998
1.5436523437499998
1.5686279296874999
3.0446044921874997
2.3227294921875
2.15595703125
1.964208984375
1.4284423828125
1.1190673828125
0.3230712890625
0.03544921875
0.30856933593749997
0.7065673828125
0.9861328125
1.1923828125
1.3108154296874999
1.405078125
1.4074951171874999
1.5122314453124999
1.5186767578125
1.5509033203125
1.5944091796875
1.5589599609375
1.5323730468749999
0.038671874999999994
0.929736328125
1.058642578125
1.2334716796875
1.6403320312499998
1.9464843749999998
3.0421875
3.0413818359375
2.599072265625
2.22041015625
1.915869140625
1.815966796875
1.7732666015624998
1.7571533203124998
1.699951171875
1.635498046875
1.5355957031249998
1.5444580078124999
1.5541259765625
1.5557373046874998
1.66611328125
3.0446044921874997
2.505615234375
2.21396484375
1.9682373046875
1.6862548828125
1.3430419921874999
0.4519775390625
0.033837890625
0.1232666015625
0.53173828125
0.9611572265624999
1.134375
1.190771484375
1.3712402343749999
1.32451171875
1.5283447265624999
1.56943359375
1.5670166015625
1.5645996093749999
1.5782958984375
1.52109375
0.033032226562499996
0.636474609375
1.1021484375
1.26328125
1.5138427734375
1.851416015625
3.0389648437499996
3.0381591796875
2.7271728515625
2.20751953125
1.9513183593749999
1.7748779296875
1.7611816406249998
1.748291015625
1.6532226562499999
1.6669189453125
1.619384765625
1.5960205078124998
1.5525146484374999
1.5057861328125
1.513037109375
3.0397705078125
2.528173828125
2.2236328125
2.0987548828125
1.7039794921875
1.3913818359374999
0.575244140625
0.1812744140625
0.10554199218749999
0.49790039062499997
0.863671875
1.1303466796875
1.1706298828125
1.3801025390625
1.409912109375
1.529150390625
1.585546875
1.5887695312499999
1.5944091796875
1.5944091796875
1.558154296875
0.0362548828125
0.554296875
1.039306640625
1.18271484375
1.4880615234374999
1.7345947265625
2.6385498046875
3.04541015625
2.747314453125
2.3525390625
1.9682373046875
1.8216064453124998
1.7442626953125
1.6967285156249998
1.7047851562499998
1.7337890624999999
1.5734619140625
1.5984375
1.6024658203125
1.5573486328125
1.571044921875
3.0421875
2.9906249999999996
2.292919921875
2.1140624999999997
1.7474853515625
1.3631835937499999
0.6348632812499999
0.2263916015625
0.0362548828125
0.298095703125
0.7702148437499999
1.0449462890624999
1.1641845703125
1.345458984375
1.3954101562499999
1.4356933593749999
1.5565429687499999
1.5750732421875
1.5750732421875
1.5597656249999998
1.5565429687499999
0.0322265625
0.038671874999999994
1.0272216796875
1.1706298828125
1.3704345703124998
1.7692382812499998
2.2268554687499997
3.0446044921874997
2.9704833984374996
2.3775146484375
2.07861328125
1.8626953124999999
1.735400390625
1.7450683593749998
1.7740722656249999
1.7684326171875
1.5645996093749999
1.545263671875
1.5815185546875
1.5750732421875
1.5533203125
1.6008544921874999
3.043798828125
2.367041015625
2.1229248046875
1.7845458984375
1.4107177734374998
1.0787841796875
0.391552734375
0.0362548828125
0.29970703125
0.6678955078125
1.0755615234375
1.2189697265625
1.2834228515625
1.3712402343749999
1.4469726562499998
1.5589599609375
1.5992431640625
1.5831298828125
1.56298828125
1.5444580078124999
0.0362548828125
0.0362548828125
0.8701171875
1.100537109375
1.3736572265625
1.6161621093749998
1.8949218749999999
3.043798828125
3.001904296875
2.5652343749999997
2.0625
1.8489990234375
1.7329833984374998
1.7595703125
1.7595703125
1.7168701171874998
1.6701416015625
1.5791015625
1.5831298828125
1.5267333984375
1.5509033203125
1.55009765625
3.0429931640624996
2.4935302734375
2.1591796875
1.9762939453125
1.6330810546874999
1.1303466796875
0.217529296875
0.03544921875
0.146630859375
0.700927734375
1.0006347656249999
1.1432373046875
1.2656982421874998
1.3801025390625
1.3462646484374998
1.4735595703125
1.5637939453124998
1.5533203125
1.5670166015625
1.561376953125
1.5476806640624998
0.037060546874999996
0.862060546875
1.0820068359375
1.2528076171875
1.4759765624999999
1.8900878906249998
3.043798828125
3.0462158203125
2.5813476562499997
2.1946289062499997
1.9392333984374999
1.7579589843749999
1.7942138671874999
1.7797119140625
1.65966796875
1.654833984375
1.5766845703124999
1.5597656249999998
1.5726562499999999
1.5573486328125
1.56943359375
3.043798828125
2.49755859375
2.167236328125
2.0729736328125
1.6910888671875
1.4187744140624998
0.427001953125
0.0378662109375
0.10957031249999999
0.49951171875
0.8644775390624999
1.1384033203125
1.142431640625
1.384130859375
1.284228515625
1.5299560546875
1.5758789062499998
1.5621826171875
1.5758789062499998
1.5654052734375
1.545263671875
0.0346435546875
0.5615478515625
1.0691162109374999
1.2302490234374999
1.5106201171875
1.7982421874999999
3.043798828125
3.0429931640624996
2.8061279296875
2.418603515625
2.01416015625
1.8175781249999998
1.780517578125
1.7668212890625
1.7337890624999999
1.7507080078125
1.558154296875
1.5557373046874998
1.5863525390625
1.5186767578125
1.5541259765625
3.0421875
2.99384765625
2.21396484375
2.08828125
1.71123046875
1.3502929687499998
0.485009765625
0.19013671875
0.037060546874999996
0.443115234375
0.8612548828125
1.123095703125
1.1947998046875
1.35673828125
1.3946044921874998
1.397021484375
1.5678222656249998
1.5509033203125
1.5686279296874999
1.5750732421875
1.571044921875
0.0362548828125
0.03544921875
0.9998291015624999
1.1384033203125
1.3881591796875
1.780517578125
2.328369140625
3.0421875
2.784375
2.4041015624999997
2.051220703125
1.85625
1.764404296875
1.7047851562499998
1.738623046875
1.6862548828125
1.5686279296874999
1.561376953125
1.6201904296874998
1.5654052734375
1.5839355468749998
1.619384765625
3.0413818359375
2.3420654296875
2.125341796875
1.7909912109375
1.4268310546874998
1.0997314453125
0.1973876953125
0.0362548828125
0.33837890625
0.7919677734374999
1.0836181640625
1.1674072265625
1.2826171874999999
1.3712402343749999
1.4147460937499998
1.5267333984375
1.5766845703124999
1.5791015625
1.5911865234375
1.5831298828125
0.0362548828125
0.0378662109375
0.8515869140625
1.0731445312499999
1.3857421875
1.6218017578125
1.9625976562499998
3.0429931640624996
3.01962890625
2.553955078125
2.075390625
1.9263427734374998
1.770849609375
1.8022705078124999
1.75634765625
1.6935058593749999
1.6701416015625
1.5718505859374998
1.590380859375
1.5895751953125
1.571044921875
1.5476806640624998
3.0421875
2.4661376953125
2.12373046875
1.9400390625
1.6306640625
1.1529052734375
0.39799804687499996
0.038671874999999994
0.1152099609375
0.6453369140624999
0.928125
1.1279296875
1.335791015625
1.3986328124999998
1.353515625
1.464697265625
1.5299560546875
1.5186767578125
1.561376953125
1.5960205078124998
1.56943359375
0.037060546874999996
0.8451416015625
1.094091796875
1.219775390625
1.4219970703125
1.9070068359374999
3.0397705078125
3.0421875
2.6498291015624997
2.254248046875
1.9867675781249998
1.7748779296875
1.7797119140625
1.7595703125
1.67900390625
1.6645019531249998
1.5782958984375
1.5597656249999998
1.5364013671874999
1.554931640625
1.5460693359375
3.0413818359375
2.5080322265625
2.18818359375
2.0391357421875
1.7176757812499999
1.3833251953124999
0.4165283203125
0.0378662109375
0.0990966796875
0.533349609375
0.8515869140625
1.158544921875
1.1867431640625
1.3873535156249999
1.3124267578125
1.5025634765625
1.603271484375
1.5815185546875
1.574267578125
1.5791015625
1.5364013671874999
0.0362548828125
0.5696044921875
1.0497802734375
1.2463623046874999
1.5275390624999998
1.8385253906249999
3.04541015625
3.0397705078125
2.711865234375
2.30419921875
1.9215087890625
1.7813232421874998
1.735400390625
1.7418457031249999
1.6508056640625
1.667724609375
1.5911865234375
1.5919921874999998
1.5895751953125
1.55009765625
1.5380126953125
3.0421875
2.9559814453124997
2.2760009765625
2.1301757812499997
1.7579589843749999
1.3784912109374998
0.6703125
0.1780517578125
0.03544921875
0.43344726562499997
0.7935791015625
1.103759765625
1.2012451171875
1.4598632812499999
1.364794921875
1.3712402343749999
1.545263671875
1.5509033203125
1.5887695312499999
1.5831298828125
1.5791015625
0.0314208984375
0.050756835937499994
0.9796874999999999
1.135986328125
1.4034667968749999
1.799853515625
2.2187988281249997
3.04541015625
2.8359375
2.4081298828124997
2.0818359374999997
1.8884765625
1.7700439453124999
1.719287109375
1.7748779296875
1.7289550781249998
1.5589599609375
1.5597656249999998
1.5799072265624998
1.554931640625
1.5517089843749998
1.7442626953125
3.0236572265625
2.29453125
2.0842529296875
1.735400390625
1.3744628906249998
1.08603515625
0.1716064453125
0.0362548828125
0.3714111328125
0.733154296875
1.0578369140625
1.16015625
1.276171875
1.40830078125
1.45341796875
1.5541259765625
1.5541259765625
1.5678222656249998
1.593603515625
1.6081054687499998
0.03544921875
0.0378662109375
0.9249023437499999
1.0691162109374999
1.36962890625
1.6951171875
1.972265625
3.0397705078125
3.018017578125
2.528173828125
2.1019775390624997
1.8884765625
1.7337890624999999
1.7748779296875
1.764404296875
1.6717529296875
1.635498046875
1.5605712890624999
1.5911865234375
1.5492919921875
1.5460693359375
1.5726562499999999
3.0397705078125
2.43955078125
2.101171875
1.9263427734374998
1.6266357421875
1.116650390625
0.2698974609375
0.0346435546875
0.120849609375
0.6968994140625
1.019970703125
1.1545166015625
1.2584472656249999
1.40185546875
1.3390136718749999
1.4800048828124999
1.56943359375
1.622607421875
1.667724609375
1.5718505859374998
1.5106201171875
0.0346435546875
0.8604492187499999
1.0578369140625
1.2415283203124998
1.63388671875
1.8763916015625
3.0421875
3.0421875
2.5877929687499996
2.2099365234375
1.9634033203124999
1.7611816406249998
1.77890625
1.76279296875
1.767626953125
1.6201904296874998
1.585546875
1.5734619140625
1.55009765625
1.5404296874999999
1.5484863281249999
3.0413818359375
2.49755859375
2.1793212890625
2.07861328125
1.67578125
1.4034667968749999
0.48581542968749997
0.037060546874999996
0.13857421875
0.49951171875
0.8443359374999999
1.1448486328125
1.2286376953125
1.3833251953124999
1.3317626953125
1.49853515625
1.5509033203125
1.5944091796875
1.5734619140625
1.5927978515624999
1.5525146484374999
0.0362548828125
0.605859375
1.058642578125
1.2673095703125
1.4800048828124999
1.7571533203124998
3.0470214843749996
3.0413818359375
2.7642333984375
2.3726806640625
2.0093261718749997
1.8087158203125
1.767626953125
1.7595703125
1.6693359374999999
1.7208984374999998
1.5605712890624999
1.574267578125
1.5533203125
1.5154541015624998
1.5597656249999998
3.0421875
2.9350341796875
2.189794921875
2.0246337890625
1.6967285156249998
1.3623779296874998
0.4084716796875
0.13857421875
0.037060546874999996
0.514013671875
0.85400390625
1.09248046875
1.1899658203124999
1.3656005859375
1.3704345703124998
1.3857421875
1.574267578125
1.5960205078124998
1.5887695312499999
1.5750732421875
1.5275390624999998
0.037060546874999996
0.0604248046875
1.0513916015625
1.1706298828125
1.4276367187499999
1.7990478515625
2.2171875
3.043798828125
2.785986328125
2.3855712890625
2.0496093749999997
1.8199951171875
1.751513671875
1.6943115234375
1.7740722656249999
1.8135498046874998
1.606494140625
1.5879638671874998
1.574267578125
1.5436523437499998
1.525927734375
1.7442626953125
3.01962890625
2.3203125
2.1180908203124997
1.7088134765624998
1.3527099609375
1.0505859375
0.2038330078125
0.0362548828125
0.3681884765625
0.7855224609375
1.0981201171875
1.1980224609374999
1.3172607421875
1.3897705078125
1.3986328124999998
1.5355957031249998
1.571044921875
1.5347900390625
1.554931640625
1.587158203125
0.038671874999999994
0.0378662109375
0.91845703125
1.1593505859375
1.416357421875
1.64677734375
1.9940185546875
3.043798828125
2.9463134765624996
2.50400390625
2.0649169921875
1.8828369140624999
1.783740234375
1.722509765625
1.7813232421874998
1.6572509765624999
1.5686279296874999
1.554931640625
1.6081054687499998
1.5533203125
1.5106201171875
1.5355957031249998
3.04541015625
2.4725830078124997
2.126953125
1.9505126953124998
1.6427490234375
1.1303466796875
0.356103515625
0.0362548828125
0.1313232421875
0.6856201171874999
0.9692138671874999
1.16337890625
1.332568359375
1.4195800781249999
1.4268310546874998
1.509814453125
1.5436523437499998
1.558154296875
1.5919921874999998
1.571044921875
1.5428466796875
0.0346435546875
0.8958984375
1.0828125
1.2616699218749998
1.6346923828125
1.896533203125
3.0429931640624996
3.0421875
2.570068359375
2.1986572265624997
1.9521240234375
1.7982421874999999
1.79501953125
1.7595703125
1.722509765625
1.6620849609375
1.56943359375
1.5726562499999999
1.53720703125
1.5557373046874998
1.5315673828124998
3.0429931640624996
2.5031982421874996
2.196240234375
1.960986328125
1.6894775390624999
1.3921875
0.32871093749999997
0.038671874999999994
0.14421386718749998
0.5583251953125
0.974853515625
1.1577392578124999
1.1819091796874999
1.3333740234375
1.32451171875
1.4711425781249998
1.55009765625
1.56943359375
1.5887695312499999
1.6371093749999999
1.5799072265624998
0.0346435546875
0.6276123046875
1.0417236328125
1.22783203125
1.448583984375
1.7217041015624999
3.0429931640624996
3.0421875
2.6627197265625
2.2171875
1.9408447265625
1.8224121093749999
1.783740234375
1.7394287109375
1.6685302734374998
1.6427490234375
1.5662109375
1.6524169921874998
1.609716796875
1.525927734375
1.5396240234374998
3.0421875
2.8810546875
2.2163818359375
2.0697509765624997
1.7007568359374998
1.4010498046875
0.710595703125
0.169189453125
0.0362548828125
0.5244873046874999
0.8773681640625
1.0820068359375
1.22783203125
1.38896484375
1.397021484375
1.377685546875
1.5492919921875
1.6137451171875
1.5879638671874998
1.5887695312499999
1.5686279296874999
0.0362548828125
0.5671875
1.0578369140625
1.1786865234375
1.4397216796874999
1.764404296875
2.479833984375
3.0429931640624996
2.7166992187499996
2.3549560546875
2.035107421875
1.819189453125
1.76279296875
1.6959228515625
1.767626953125
1.72412109375
1.542041015625
1.5444580078124999
1.5517089843749998
1.5412353515625
1.5565429687499999
3.0413818359375
2.9922363281249997
2.2913085937499997
2.1035888671875
1.738623046875
1.3752685546874999
1.0828125
0.2376708984375
0.037060546874999996
0.35690917968749997
0.7218749999999999
1.10859375
1.187548828125
1.3220947265624998
1.3631835937499999
1.4437499999999999
1.5347900390625
1.5525146484374999
1.561376953125
1.5670166015625
1.5670166015625
0.033837890625
0.0362548828125
0.9128173828124999
1.16015625
1.4058837890625
1.6773925781249999
2.1221191406249997
3.043798828125
3.0405761718749997
2.5370361328124997
2.0987548828125
1.8884765625
1.748291015625
1.7055908203124999
1.7635986328125
1.6717529296875
1.5960205078124998
1.56298828125
1.5621826171875
1.52109375
1.5484863281249999
1.5702392578125
3.0421875
2.3372314453125
2.125341796875
1.8981445312499998
1.400244140625
1.0634765625
0.375439453125
0.03544921875
0.3544921875
0.742822265625
0.9853271484374999
1.1980224609374999
1.2665039062499999
1.3728515625
1.3833251953124999
1.5436523437499998
1.5654052734375
1.5895751953125
1.5919921874999998
1.6024658203125
1.5364013671874999
0.0362548828125
0.9257080078125
1.090869140625
1.224609375
1.6137451171875
1.9247314453125
3.0462158203125
3.02607421875
2.5587890625
2.1615966796875
1.90458984375
1.7732666015624998
1.75634765625
1.7893798828124998
1.6693359374999999
1.6048828124999999
1.5484863281249999
1.5589599609375
1.5364013671874999
1.542041015625
1.5605712890624999
3.0429931640624996
2.5007812499999997
2.2034912109375
1.9867675781249998
1.6967285156249998
1.3672119140624999
0.13857421875
0.033837890625
0.12890625
0.546240234375
0.9611572265624999
1.1512939453125
1.2447509765625
1.4066894531249998
1.327734375
1.4735595703125
1.5879638671874998
1.5927978515624999
1.587158203125
1.593603515625
1.5364013671874999
0.03544921875
0.6251953124999999
1.0086914062499999
1.181103515625
1.442138671875
1.79501953125
3.0405761718749997
3.0421875
2.731201171875
2.2357177734375
1.98515625
1.8119384765625
1.8119384765625
1.8006591796875
1.7023681640625
1.7410400390624998
1.53720703125
1.5380126953125
1.5509033203125
1.545263671875
1.5541259765625
3.0413818359375
2.8528564453125
2.2236328125
2.067333984375
1.740234375
1.4123291015625
0.44553222656249997
0.11440429687499999
0.0362548828125
0.44150390624999997
0.85400390625
1.090869140625
1.158544921875
1.3849365234375
1.4332763671875
1.529150390625
1.53076171875
1.522705078125
1.538818359375
1.5766845703124999
1.5573486328125
0.033032226562499996
0.46083984375
0.961962890625
1.058642578125
1.4091064453125
1.72412109375
2.1938232421875
3.0429931640624996
2.866552734375
2.487890625
2.1744873046874997
1.87236328125
1.799853515625
1.7410400390624998
1.740234375
1.751513671875
1.56943359375
1.60166015625
1.611328125
1.55009765625
1.53720703125
3.0421875
3.0349365234374996
2.3597900390624997
2.1358154296875
1.8232177734375
1.4469726562499998
1.039306640625
0.06606445312499999
0.03544921875
0.28359375
0.6533935546874999
0.9676025390624999
1.1190673828125
1.2584472656249999
1.3591552734374999
1.3470703124999999
1.5412353515625
1.6081054687499998
1.603271484375
1.6008544921874999
1.5879638671874998
0.037060546874999996
0.03544921875
0.8660888671875
1.06025390625
1.3317626953125
1.6572509765624999
1.957763671875
3.043798828125
3.0043212890624997
2.608740234375
2.1873779296875
1.9311767578124999
1.8103271484374999
1.7418457031249999
1.7934082031249998
1.6209960937499999
1.6371093749999999
1.59521484375
1.5887695312499999
1.58232421875
1.5782958984375
1.638720703125
3.0421875
2.4443847656249997
2.2187988281249997
1.9948242187499998
1.609716796875
1.0755615234375
0.069287109375
0.0362548828125
0.23203125
0.6429199218749999
0.881396484375
1.0513916015625
1.232666015625
1.3672119140624999
1.38896484375
1.5605712890624999
1.6072998046875
1.5815185546875
1.6234130859375
1.6000488281249998
1.4848388671875
0.033837890625
0.7742431640624999
0.9579345703125
1.1456542968749999
1.593603515625
1.960986328125
3.0413818359375
3.0446044921874997
2.67158203125
2.328369140625
2.08828125
1.8409423828125
1.828857421875
1.8264404296874999
1.754736328125
1.74345703125
1.5782958984375
1.59521484375
1.5460693359375
1.5533203125
1.53076171875
3.043798828125
2.608740234375
2.3783203125
2.112451171875
1.7732666015624998
1.4010498046875
0.2618408203125
0.038671874999999994
0.038671874999999994
0.35690917968749997
0.7822998046874999
1.013525390625
1.0973144531249999
1.2979248046874998
1.2536132812499998
1.4574462890625
1.5017578125
1.529150390625
1.5202880859374999
1.5621826171875
1.5347900390625
0.03544921875
0.48662109374999996
0.9087890624999999
1.1335693359374999
1.43408203125
1.7635986328125
3.0389648437499996
3.0421875
2.908447265625
2.3960449218749997
2.080224609375
1.9062011718749998
1.8522216796875
1.8183837890624999
1.7168701171874998
1.716064453125
1.6371093749999999
1.5976318359375
1.6072998046875
1.571044921875
1.5992431640625
3.0429931640624996
3.0389648437499996
2.4468017578125
2.289697265625
1.8570556640625
1.4638916015624999
0.533349609375
0.037060546874999996
0.0362548828125
0.29326171875
0.59619140625
0.8370849609375
0.97646484375
1.248779296875
1.2777832031249998
1.4598632812499999
1.585546875
1.6048828124999999
1.606494140625
1.59521484375
1.60166015625
0.037060546874999996
0.3681884765625
0.8419189453125
0.9450439453124999
1.3172607421875
1.6854492187499999
2.56201171875
3.043798828125
2.924560546875
2.6111572265625
2.26875
2.0085205078125
1.9037841796875
1.803076171875
1.8707519531249999
1.82724609375
1.638720703125
1.5984375
1.6048828124999999
1.5831298828125
1.5492919921875
3.0429931640624996
3.0429931640624996
2.513671875
2.3646240234375
1.899755859375
1.442138671875
1.0409179687499999
0.0378662109375
0.037060546874999996
0.13857421875
0.4922607421875
0.8201660156249999
0.945849609375
1.1456542968749999
1.2479736328125
1.2721435546875
1.4888671875
1.5436523437499998
1.5702392578125
1.561376953125
1.5517089843749998
0.037060546874999996
0.03544921875
0.7323486328125
0.9498779296875
1.2262207031249999
1.6242187499999998
2.083447265625
3.04541015625
3.0429931640624996
2.7408691406249996
2.3952392578125
2.11728515625
1.9634033203124999
1.8739746093749998
1.880419921875
1.7104248046875
1.7748779296875
1.6201904296874998
1.6129394531249999
1.60166015625
1.5533203125
1.6161621093749998
3.04541015625
2.5313964843749996
2.408935546875
2.1978515625
1.8248291015625
1.1408203125
0.19497070312499998
0.037060546874999996
0.0459228515625
0.40927734374999997
0.6324462890625
0.8314453125
0.990966796875
1.1802978515625
1.2955078125
1.4945068359375
1.5380126953125
1.5090087890625
1.571044921875
1.5645996093749999
1.3623779296874998
0.0346435546875
0.6743408203125
0.71865234375
0.97001953125
1.5202880859374999
2.0109375
3.0429931640624996
3.0421875
2.8351318359374997
2.5450927734374997
2.338037109375
2.0898925781249997
1.9779052734375
1.9142578124999998
1.7740722656249999
1.7450683593749998
1.6612792968749999
1.6056884765625
1.5517089843749998
1.542041015625
1.5251220703125
3.0389648437499996
2.8077392578125
2.6232421875
2.344482421875
1.9948242187499998
1.5106201171875
0.17644042968749998
0.0362548828125
0.0362548828125
0.1893310546875
0.5244873046874999
0.6872314453124999
0.8644775390624999
1.1214843749999999
1.1537109374999999
1.3470703124999999
1.5170654296875
1.5460693359375
1.529150390625
1.5355957031249998
1.44052734375
0.0362548828125
0.31743164062499996
0.7065673828125
0.7178466796874999
1.0530029296874999
1.5492919921875
3.0429931640624996
3.0429931640624996
3.0413818359375
2.8359375
2.5201171875
2.2623046875
2.1358154296875
2.0214111328124997
1.8377197265624998
1.815966796875
1.6814208984374999
1.611328125
1.622607421875
1.5960205078124998
1.5686279296874999
3.0429931640624996
3.0405761718749997
2.7481201171875
2.6216308593749997
2.2034912109375
1.6081054687499998
0.0717041015625
0.037060546874999996
0.0394775390625
0.0378662109375
0.2255859375
0.42136230468749997
0.6098876953125
0.9410156249999999
1.071533203125
1.15048828125
1.36962890625
1.4115234374999999
1.496923828125
1.5557373046874998
1.4977294921875
0.037060546874999996
0.033837890625
0.5406005859374999
0.5043457031249999
0.9176513671875
1.5114257812499998
2.418603515625
3.043798828125
3.043798828125
2.9559814453124997
2.7610107421874996
2.5072265624999996
2.2905029296875
2.1535400390625
2.157568359375
2.0326904296875
1.7684326171875
1.6798095703125
1.6056884765625
1.5654052734375
1.5831298828125
2.2727783203125
3.0421875
2.8383544921875
2.8536621093749996
2.3323974609375
1.8095214843749998
1.0481689453125
0.0346435546875
0.033032226562499996
0.0394775390625
0.1329345703125
0.30454101562499997
0.37060546875
0.5849121093749999
0.7839111328124999
0.8999267578125
1.3446533203125
1.456640625
1.5428466796875
1.5807128906249999
1.5815185546875
0.597802734375
0.0378662109375
0.3343505859375
0.29970703125
0.631640625
1.22783203125
1.786962890625
3.0405761718749997
3.0421875
3.043798828125
2.9108642578125
2.6885009765624996
2.5128662109374997
2.4000732421874997
2.302587890625
1.93359375
1.8731689453125
1.7732666015624998
1.7523193359375
1.6798095703125
1.61455078125
1.7853515624999998
3.0397705078125
3.0381591796875
2.9527587890625
2.8190185546874997
2.3211181640625
1.738623046875
0.037060546874999996
0.0346435546875
0.03544921875
0.0378662109375
0.12568359375
0.18288574218749998
0.2360595703125
0.58974609375
0.8677001953125
0.936181640625
1.2745605468749999
1.3430419921874999
1.4155517578124999
1.4767822265625
1.2721435546875
0.0362548828125
0.095068359375
0.2263916015625
0.37302246093749997
0.733154296875
1.8304687499999999
3.043798828125
3.0429931640624996
3.0413818359375
3.005126953125
2.8778320312499996
2.7021972656249997
2.5716796874999996
2.4500244140625
2.513671875
2.0898925781249997
1.8892822265625
1.7829345703125
1.7080078125
1.635498046875
1.6395263671875
3.0413818359375
3.0421875
3.0413818359375
3.0429931640624996
2.5789306640625
1.8884765625
0.07412109374999999
0.0378662109375
0.0394775390625
0.0362548828125
0.03544921875
0.0394775390625
0.038671874999999994
0.278759765625
0.6840087890625
0.8362792968749999
1.026416015625
1.1400146484375
1.3559326171875
1.4308593749999998
1.456640625
0.041088867187499996
0.041088867187499996
0.23525390624999998
0.16677246093749998
0.5124023437499999
1.13115234375
2.6039062499999996
3.043798828125
3.0429931640624996
3.0413818359375
3.0421875
2.8955566406249997
2.7980712890625
2.72958984375
2.4629150390625
2.2969482421875
2.07861328125
1.9585693359374998
1.7829345703125
1.6371093749999999
1.6137451171875
3.0421875
3.0429931640624996
3.0389648437499996
3.043798828125
2.7400634765625
2.1970458984375
1.2528076171875
0.0378662109375
0.0362548828125
0.0378662109375
0.040283203125
0.0378662109375
0.038671874999999994
0.2118896484375
0.47453613281249996
0.4874267578125
0.8677001953125
1.1206787109375
1.2576416015624998
1.3921875
1.4203857421875
0.037060546874999996
0.03544921875
0.0620361328125
0.0378662109375
0.39316406249999997
0.9337646484375
1.7152587890625
3.0429931640624996
3.0397705078125
3.0446044921874997
3.0389648437499996
2.9455078125
2.8302978515625
2.7021972656249997
2.6619140624999997
2.38154296875
2.25263671875
2.0697509765624997
1.9352050781249999
1.8151611328125
1.6910888671875
2.7916259765625
3.0429931640624996
3.043798828125
3.043798828125
2.9326171875
2.410546875
1.4751708984374998
0.0362548828125
0.03544921875
0.037060546874999996
0.033032226562499996
0.033837890625
0.0394775390625
0.17241210937499998
0.265869140625
0.6356689453125
0.8290283203125
1.044140625
1.184326171875
1.3736572265625
1.4437499999999999
0.3198486328125
0.0362548828125
0.16677246093749998
0.0378662109375
0.146630859375
0.9812988281249999
1.780517578125
3.0429931640624996
3.043798828125
3.0397705078125
3.0421875
3.0002929687499997
2.8738037109374996
2.83271484375
2.760205078125
2.350927734375
2.2953369140624997
2.1003662109375
1.9940185546875
1.8280517578125
1.6935058593749999
1.6290527343749999
3.0421875
3.0421875
3.0446044921874997
3.0389648437499996
2.5015869140625
1.8820312499999998
0.32468261718749997
0.037060546874999996
0.03544921875
0.0362548828125
0.0378662109375
0.0515625
0.0378662109375
0.2376708984375
0.6308349609374999
0.7057617187499999
0.9474609374999999
1.126318359375
1.26328125
1.3382080078124998
1.3712402343749999
0.0443115234375
0.037060546874999996
0.064453125
0.0555908203125
0.49387207031249997
1.06025390625
3.04541015625
3.043798828125
3.0429931640624996
3.0462158203125
3.034130859375
2.9382568359374996
2.9656494140625
2.82626953125
3.0139892578125
2.4564697265624997
2.2510253906249997
2.0761962890625
1.93681640625
1.8216064453124998
1.7208984374999998
3.0413818359375
3.043798828125
3.0446044921874997
3.0421875
2.7529541015624996
2.196240234375
0.0394775390625
0.037060546874999996
0.0362548828125
0.041088867187499996
0.0362548828125
0.033032226562499996
0.0394775390625
0.1861083984375
0.5647705078124999
0.6123046875
0.9063720703125
1.068310546875
1.2076904296875
1.3382080078124998
1.3865478515624998
0.0362548828125
0.033032226562499996
0.130517578125
0.03544921875
0.3311279296875
0.8588378906249999
3.0421875
3.0421875
3.0413818359375
3.0413818359375
3.0405761718749997
2.9543701171874996
2.8713867187499997
2.795654296875
2.7545654296874997
2.7247558593749996
2.318701171875
2.1535400390625
2.0149658203125
1.812744140625
1.735400390625
3.0421875
3.0421875
3.0429931640624996
3.0405761718749997
2.9181152343749996
2.2905029296875
1.4115234374999999
0.0362548828125
0.037060546874999996
0.0362548828125
0.0362548828125
0.0362548828125
0.0362548828125
0.182080078125
0.270703125
0.439892578125
0.7299316406249999
0.90234375
1.0691162109374999
1.2624755859374999
1.3510986328124999
0.0378662109375
0.0322265625
0.038671874999999994
0.0394775390625
0.08942871093749999
0.8338623046875
1.6572509765624999
3.0405761718749997
3.0421875
3.0421875
3.0413818359375
2.9970703125
2.8858886718749996
2.9302001953124996
2.848828125
2.6377441406249997
2.38154296875
2.1793212890625
2.0197998046875
1.9078125
1.7692382812499998
2.9769287109375
3.043798828125
3.043798828125
3.0405761718749997
3.0099609375
2.4709716796875
1.780517578125
0.038671874999999994
0.03544921875
0.03544921875
0.037060546874999996
0.0362548828125
0.0362548828125
0.0378662109375
0.18449707031249998
0.539794921875
0.6711181640624999
0.8991210937499999
1.0433349609375
1.18271484375
1.303564453125
0.046728515624999994
0.0362548828125
0.0346435546875
0.0362548828125
0.10634765624999999
0.5019287109375
1.1093994140624999
3.0429931640624996
3.0429931640624996
3.043798828125
3.043798828125
3.0413818359375
2.9197265624999997
2.898779296875
2.8133789062499996
3.0389648437499996
2.5064208984375
2.23974609375
2.0898925781249997
1.93681640625
1.7829345703125
1.7579589843749999
3.043798828125
3.0429931640624996
3.037353515625
3.043798828125
2.8560791015625
1.8925048828125
0.0362548828125
0.0362548828125
0.037060546874999996
0.0346435546875
0.033032226562499996
0.0362548828125
0.0362548828125
0.1345458984375
0.1877197265625
0.5534912109375
0.8507812499999999
0.984521484375
1.1400146484375
1.3229003906249999
1.3591552734374999
0.0362548828125
0.037060546874999996
0.03544921875
0.03544921875
0.35126953125
0.91845703125
3.0429931640624996
3.043798828125
3.043798828125
3.0405761718749997
3.0413818359375
2.9737060546875
2.9285888671875
2.9688720703125
2.8705810546875
2.5209228515624997
2.4282714843749997
2.2171875
2.0471923828125
1.8731689453125
1.7474853515625
3.0413818359375
3.04541015625
3.043798828125
3.0421875
2.840771484375
2.2832519531249997
0.6936767578124999
0.037060546874999996
0.0322265625
0.0362548828125
0.0362548828125
0.0362548828125
0.037060546874999996
0.1490478515625
0.16435546874999998
0.488232421875
0.6421142578125
0.8096923828125
1.044140625
1.203662109375
1.2656982421874998
0.03544921875
0.0378662109375
0.042700195312499994
0.0394775390625
0.28037109374999997
0.7387939453125
1.5621826171875
3.0413818359375
3.043798828125
3.0421875
3.0429931640624996
3.0405761718749997
2.977734375
2.9865966796874996
3.0389648437499996
3.0446044921874997
2.528173828125
2.3718749999999997
2.1358154296875
1.957763671875
1.7974365234374998
3.0421875
3.0446044921874997
3.0397705078125
3.043798828125
3.0381591796875
2.5289794921874997
1.8224121093749999
0.037060546874999996
0.038671874999999994
0.033837890625
0.03544921875
0.033837890625
0.0362548828125
0.033837890625
0.12810058593749998
0.34562988281249996
0.515625
0.7339599609374999
0.9796874999999999
1.135986328125
1.2689208984375
0.033837890625
0.037060546874999996
0.040283203125
0.0378662109375
0.07009277343749999
0.523681640625
1.1400146484375
3.0421875
3.0413818359375
3.0421875
3.0413818359375
3.043798828125
2.9946533203124996
3.0349365234374996
2.98095703125
2.9350341796875
2.6530517578125
2.3436767578124997
2.2099365234375
2.080224609375
1.9247314453125
1.835302734375
3.043798828125
3.0421875
3.0429931640624996
3.0421875
2.9398681640624997
1.9005615234375
0.0362548828125
0.033032226562499996
0.037060546874999996
0.0378662109375
0.0322265625
0.038671874999999994
0.037060546874999996
0.08942871093749999
0.038671874999999994
0.36899414062499997
0.6920654296875
0.8024414062499999
0.9732421874999999
1.147265625
1.206884765625
0.0362548828125
0.037060546874999996
0.0378662109375
0.037060546874999996
0.09829101562499999
0.84111328125
3.0421875
3.043798828125
3.04541015625
3.04541015625
3.0405761718749997
3.0421875
3.0446044921874997
3.0413818359375
2.9511474609375
2.7424804687499997
2.4830566406249996
2.28486328125
2.1068115234375
1.9827392578124998
1.8731689453125
3.0429931640624996
3.0446044921874997
3.0421875
3.0405761718749997
2.9600097656249997
2.3960449218749997
0.5067626953125
0.037060546874999996
0.037060546874999996
0.0362548828125
0.037060546874999996
0.037060546874999996
0.0362548828125
0.08056640625
0.064453125
0.4552001953125
0.6187499999999999
0.7806884765625
0.9353759765624999
1.134375
1.181103515625
0.0362548828125
0.0362548828125
0.03544921875
0.037060546874999996
0.1973876953125
0.7339599609374999
1.6975341796874999
3.0421875
3.04541015625
3.0405761718749997
3.0429931640624996
3.0421875
3.0421875
3.0244628906249997
3.0389648437499996
3.0421875
2.6216308593749997
2.3420654296875
2.1777099609375
2.0149658203125
1.9134521484375
3.043798828125
3.0429931640624996
3.0421875
3.0421875
2.972900390625
2.437939453125
0.8886474609374999
0.0362548828125
0.0362548828125
0.037060546874999996
0.033837890625
0.040283203125
0.03544921875
0.03544921875
0.038671874999999994
0.1490478515625
0.5220703125
0.720263671875
0.8701171875
1.0489746093749999
1.142431640625
0.038671874999999994
0.038671874999999994
0.0322265625
0.040283203125
0.0733154296875
0.5204589843749999
1.5645996093749999
3.0429931640624996
3.0429931640624996
3.0405761718749997
3.0421875
3.0429931640624996
3.0220458984375
3.0405761718749997
3.0405761718749997
2.8834716796874997
2.6031005859375
2.4749999999999996
2.31708984375
2.13662109375
1.9730712890625
1.8860595703124998
3.0405761718749997
3.043798828125
3.0421875
3.0429931640624996
2.5475097656249996
1.8667236328124999
0.037060546874999996
0.033032226562499996
0.0362548828125
0.037060546874999996
0.0378662109375
0.037060546874999996
0.037060546874999996
0.041088867187499996
0.0362548828125
0.29648437499999997
0.5486572265624999
0.7162353515625
0.9321533203125
1.0304443359375
1.0731445312499999
0.0394775390625
0.0378662109375
0.038671874999999994
0.0394775390625
0.4487548828125
1.110205078125
3.0413818359375
3.0421875
3.0429931640624996
3.04541015625
3.0421875
3.0421875
3.043798828125
3.0381591796875
2.7593994140625
2.8786376953125
2.5571777343749997
2.3936279296875
2.21396484375
2.0230224609375
1.9150634765624999
3.0421875
3.0397705078125
3.0429931640624996
3.0421875
2.985791015625
2.47822265625
0.4189453125
0.03544921875
0.0362548828125
0.0362548828125
0.0378662109375
0.0362548828125
0.03544921875
0.10151367187499999
0.0362548828125
0.36496582031249997
0.4600341796875
0.605859375
0.82177734375
0.97001953125
1.0352783203125
0.040283203125
0.037060546874999996
0.037060546874999996
0.0362548828125
0.12165527343749999
0.688037109375
1.835302734375
3.043798828125
3.0421875
3.0429931640624996
3.0397705078125
3.043798828125
3.0413818359375
3.0099609375
3.0397705078125
3.0421875
2.6876953125
2.454052734375
2.3501220703125
2.157568359375
2.0085205078125
3.0446044921874997
3.0429931640624996
3.0429931640624996
3.0429931640624996
3.029296875
2.4766113281249997
0.7460449218749999
0.0362548828125
0.040283203125
0.03544921875
0.040283203125
0.03544921875
0.0362548828125
0.03544921875
0.037060546874999996
0.0362548828125
0.4197509765625
0.591357421875
0.7541015624999999
0.910400390625
1.00546875
0.0346435546875
0.0394775390625
0.0362548828125
0.040283203125
0.1087646484375
0.50595703125
1.9166748046875
3.04541015625
3.0413818359375
3.043798828125
3.0413818359375
3.0429931640624996
3.0429931640624996
3.0389648437499996
3.0446044921874997
2.6683593749999996
2.6619140624999997
2.5974609374999997
2.463720703125
2.4258544921875
2.1543457031249997
2.0939208984374997
3.0421875
3.0421875
3.0397705078125
3.0462158203125
2.631298828125
1.9432617187499999
0.033032226562499996
0.0378662109375
0.038671874999999994
0.0394775390625
0.0362548828125
0.033032226562499996
0.037060546874999996
0.0362548828125
0.042700195312499994
0.39799804687499996
0.5180419921875
0.6405029296875
0.8991210937499999
1.0328613281249999
0.990966796875
0.0362548828125
0.040283203125
0.037060546874999996
0.0378662109375
0.4632568359375
1.171435546875
3.0413818359375
3.0429931640624996
3.0421875
3.0405761718749997
3.0405761718749997
3.0446044921874997
3.0429931640624996
3.0413818359375
3.0317138671875
2.9761230468749997
2.6401611328124996
2.5007812499999997
2.3211181640625
2.1873779296875
2.0971435546875
3.0470214843749996
3.0446044921874997
3.0389648437499996
3.0413818359375
2.9302001953124996
2.4097412109375
0.4842041015625
0.038671874999999994
0.037060546874999996
0.037060546874999996
0.033837890625
0.038671874999999994
0.0346435546875
0.037060546874999996
0.037060546874999996
0.24733886718749998
0.38994140624999996
0.46567382812499997
0.684814453125
0.8096923828125
0.87333984375
0.0362548828125
0.037060546874999996
0.02900390625
0.0362548828125
0.0378662109375
0.555908203125
2.8858886718749996
3.0429931640624996
3.0429931640624996
3.0429931640624996
3.0421875
3.043798828125
3.0421875
3.0421875
2.9261718749999996
2.9366455078125
2.7424804687499997
2.608740234375
2.434716796875
2.27841796875
2.1003662109375
3.0413818359375
3.0446044921874997
3.0429931640624996
3.0413818359375
3.0365478515624997
2.5402587890625
0.3633544921875
0.0394775390625
0.037060546874999996
0.037060546874999996
0.0362548828125
0.0378662109375
0.03544921875
0.0362548828125
0.0362548828125
0.0362548828125
0.343212890625
0.5212646484375
0.69609375
0.8483642578124999
0.9289306640624999
0.0362548828125
0.037060546874999996
0.038671874999999994
0.037060546874999996
0.09345703124999999
0.6356689453125
2.5950439453125
3.0413818359375
3.0405761718749997
3.0421875
3.0421875
3.0446044921874997
3.04541015625
3.0421875
3.0421875
2.860107421875
2.7529541015624996
2.640966796875
2.5305908203125
2.37509765625
2.1487060546875
3.029296875
3.0429931640624996
3.0429931640624996
3.0413818359375
3.04541015625
2.578125
1.8385253906249999
0.03544921875
0.0346435546875
0.037060546874999996
0.037060546874999996
0.0362548828125
0.0346435546875
0.037060546874999996
0.037060546874999996
0.2054443359375
0.38107910156249997
0.554296875
0.6413085937499999
0.8096923828125
0.9079833984375
0.033837890625
0.0362548828125
0.0362548828125
0.0362548828125
0.0362548828125
0.21108398437499998
1.2858398437499998
3.0421875
3.043798828125
3.0446044921874997
3.0462158203125
3.0413818359375
3.04541015625
3.0421875
3.0405761718749997
3.043798828125
2.9140869140624996
2.6111572265625
2.5015869140625
2.2743896484375
2.144677734375
2.047998046875
3.0413818359375
3.0421875
3.0429931640624996
3.04541015625
2.7666503906249997
2.2566650390625
0.2666748046875
0.037060546874999996
0.040283203125
0.040283203125
0.0378662109375
0.0362548828125
0.03544921875
0.0362548828125
0.08137207031249999
0.28439941406249997
0.4729248046875
0.5857177734375
0.78955078125
0.9345703125
0.9740478515625
0.0362548828125
0.03544921875
0.03544921875
0.0362548828125
0.175634765625
0.7516845703124999
3.043798828125
3.043798828125
3.0429931640624996
3.0429931640624996
3.0405761718749997
3.04541015625
3.0429931640624996
3.0446044921874997
3.0470214843749996
2.7497314453125
2.6707763671875
2.53623046875
2.3203125
2.147900390625
1.9875732421874999
3.0389648437499996
3.04541015625
3.0446044921874997
3.0429931640624996
2.8794433593749997
2.421826171875
0.0394775390625
0.040283203125
0.0362548828125
0.033837890625
0.0362548828125
0.03544921875
0.0362548828125
0.09426269531249999
0.42539062499999997
0.34965820312499996
0.565576171875
0.8000244140624999
0.9869384765625
1.1512939453125
1.2616699218749998
0.037060546874999996
0.0394775390625
0.037060546874999996
0.037060546874999996
0.40283203125
0.9933837890624999
3.043798828125
3.0397705078125
3.0429931640624996
3.04541015625
3.0429931640624996
3.0397705078125
2.9906249999999996
2.9930419921875
2.96484375
2.8818603515624996
2.4161865234374997
2.2349121093749997
2.0616943359374997
1.928759765625
1.7507080078125
3.0413818359375
3.0421875
3.04541015625
3.0446044921874997
2.8939453124999996
2.2115478515625
1.2906738281249999
0.0378662109375
0.037060546874999996
0.038671874999999994
0.0362548828125
0.03544921875
0.03544921875
0.17241210937499998
0.3021240234375
0.7114013671874999
0.90556640625
1.0739501953125
1.21171875
1.46630859375
1.5484863281249999
0.041088867187499996
0.0362548828125
0.1409912109375
0.2384765625
0.423779296875
1.21171875
1.9617919921875
3.0421875
3.0405761718749997
3.0429931640624996
3.0405761718749997
2.9455078125
2.811767578125
2.7722900390625
2.6675537109375
2.34287109375
2.20751953125
1.9835449218749999
1.7797119140625
1.6645019531249998
1.5654052734375
1.5267333984375
3.0429931640624996
3.0421875
3.021240234375
2.7424804687499997
2.1825439453124997
1.4800048828124999
0.037060546874999996
0.037060546874999996
0.0378662109375
0.03544921875
0.0958740234375
0.191748046875
0.2513671875
0.459228515625
0.9635742187499999
1.069921875
1.3100097656249998
1.4679199218749999
1.571044921875
1.65
0.8612548828125
0.037060546874999996
0.24089355468749998
0.4890380859375
0.6904541015625
1.2568359375
1.8602783203125
3.04541015625
3.0405761718749997
3.0421875
2.8230468749999997
2.53623046875
2.289697265625
2.2099365234375
2.0069091796875
2.289697265625
1.754736328125
1.662890625
1.609716796875
1.5436523437499998
1.5436523437499998
1.4961181640624999
3.043798828125
3.0446044921874997
2.8456054687499996
2.631298828125
2.19140625
1.3156494140625
0.0362548828125
0.0378662109375
0.037060546874999996
0.11762695312499999
0.262646484375
0.47856445312499996
0.5607421874999999
0.8677001953125
1.10859375
1.2495849609374998
1.5009521484375
1.5750732421875
1.5944091796875
1.6330810546874999
1.5670166015625
0.03544921875
0.033032226562499996
0.7476562499999999
0.78955078125
1.1923828125
1.706396484375
3.0421875
3.043798828125
3.0421875
2.7448974609374996
2.5233398437499996
2.2534423828125
2.118896484375
2.1035888671875
1.9754882812499999
1.74345703125
1.619384765625
1.5726562499999999
1.5597656249999998
1.558154296875
1.5122314453124999
3.0421875
3.0462158203125
2.553955078125
2.505615234375
1.9795166015624999
1.5355957031249998
0.6195556640625
0.0346435546875
0.0362548828125
0.0539794921875
0.31904296875
0.6332519531249999
0.7218749999999999
1.03125
1.1561279296875
1.3736572265625
1.5106201171875
1.56943359375
1.619384765625
1.6209960937499999
1.577490234375
0.037060546874999996
0.040283203125
0.7057617187499999
0.8822021484375
1.2898681640624998
1.7217041015624999
2.25263671875
3.0405761718749997
3.043798828125
2.8069335937499997
2.4983642578125
2.1720703125
1.9916015624999999
1.9392333984374999
1.912646484375
1.8232177734375
1.6701416015625
1.5895751953125
1.5355957031249998
1.533984375
1.5380126953125
2.8423828125
3.0405761718749997
2.5885986328125
2.4693603515625
2.144677734375
1.6290527343749999
1.05380859375
0.037060546874999996
0.0346435546875
0.0362548828125
0.3923583984375
0.6614501953124999
0.8523925781249999
0.961962890625
1.1851318359375
1.413134765625
1.4219970703125
1.571044921875
1.6089111328124999
1.6459716796875
1.64677734375
0.22236328125
0.0314208984375
0.6405029296875
0.8660888671875
1.0852294921874999
1.4510009765624998
2.254248046875
3.0486328124999997
3.04541015625
2.872998046875
2.41376953125
2.1333984375
1.9263427734374998
1.8473876953125
1.8240234375
1.96904296875
1.6395263671875
1.6121337890624998
1.5799072265624998
1.5621826171875
1.5831298828125
1.5662109375
3.0429931640624996
2.6321044921874996
2.4419677734375
2.254248046875
1.6395263671875
1.2052734375
0.037060546874999996
0.033032226562499996
0.0362548828125
0.327099609375
0.5824951171875
0.881396484375
1.042529296875
1.2060791015624999
1.22138671875
1.4655029296875
1.5839355468749998
1.60166015625
1.62744140625
1.6346923828125
1.5476806640624998
0.040283203125
0.5929687499999999
0.865283203125
1.0223876953125
1.4687255859375
1.9110351562499999
3.043798828125
3.0421875
2.8778320312499996
2.5201171875
2.27197265625
1.9706542968749998
1.9223144531249998
1.8344970703124999
2.0044921875
1.6781982421875
1.5758789062499998
1.571044921875
1.5509033203125
1.5299560546875
1.5146484375
3.0421875
2.9068359375
2.415380859375
2.255859375
1.896533203125
1.426025390625
0.0733154296875
0.037060546874999996
0.0362548828125
0.14824218749999998
0.5849121093749999
0.8846191406249999
0.9933837890624999
1.22138671875
1.3390136718749999
1.5194824218749998
1.561376953125
1.56943359375
1.5919921874999998
1.611328125
1.5355957031249998
0.033837890625
0.1393798828125
0.8338623046875
1.0143310546875
1.3825195312499998
1.7571533203124998
3.0429931640624996
3.0421875
3.0446044921874997
2.6739990234374997
2.2582763671875
2.0117431640625
1.925537109375
1.843359375
1.8489990234375
1.8570556640625
1.59521484375
1.5791015625
1.577490234375
1.5315673828124998
1.558154296875
3.04541015625
3.0470214843749996
2.402490234375
2.341259765625
1.9053955078125
1.33740234375
0.6614501953124999
0.0362548828125
0.03544921875
0.214306640625
0.5607421874999999
0.84111328125
1.0159423828125
1.2141357421874999
1.3019531249999998
1.4711425781249998
1.6218017578125
1.6371093749999999
1.577490234375
1.5662109375
1.5678222656249998
0.037060546874999996
0.0362548828125
0.7782714843749999
1.0320556640625
1.2640869140625
1.8369140625
2.3404541015625
3.043798828125
3.0164062499999997
2.6369384765625
2.231689453125
2.0302734375
1.85947265625
1.8328857421875
1.796630859375
1.6975341796874999
1.58232421875
1.587158203125
1.67900390625
1.5750732421875
1.5815185546875
1.5807128906249999
3.0405761718749997
2.50400390625
2.2969482421875
1.9666259765624998
1.5557373046874998
1.15048828125
0.033032226562499996
0.037060546874999996
0.061230468749999996
0.4568115234375
0.7919677734374999
1.0014404296875
1.174658203125
1.3180664062499998
1.5057861328125
1.477587890625
1.5919921874999998
1.6234130859375
1.64677734375
1.5960205078124998
1.52109375
0.0394775390625
0.7468505859375
0.9732421874999999
1.1778808593749999
1.5444580078124999
1.9303710937499998
3.0413818359375
3.043798828125
2.7207275390624996
2.334814453125
2.0278564453125
1.880419921875
1.8949218749999999
1.828857421875
1.98515625
1.735400390625
1.546875
1.5436523437499998
1.529150390625
1.522705078125
1.5492919921875
3.04541015625
2.7158935546875
2.350927734375
2.141455078125
1.7909912109375
1.2238037109375
0.17482910156249998
0.0378662109375
0.0394775390625
0.4245849609375
0.7307373046875
0.9402099609375
1.1053710937499999
1.2721435546875
1.26005859375
1.59521484375
1.5847412109374999
1.603271484375
1.6000488281249998
1.5436523437499998
1.5194824218749998
0.040283203125
0.6614501953124999
0.97001953125
1.0868408203125
1.4373046875
1.8618896484374998
3.0429931640624996
3.043798828125
2.8093505859374996
2.4202148437499997
2.109228515625
1.8369140625
1.7958251953125
1.78857421875
1.7668212890625
1.6894775390624999
1.5976318359375
1.5984375
1.5678222656249998
1.5678222656249998
1.6081054687499998
3.043798828125
2.8045166015625
2.3203125
2.2034912109375
1.8006591796875
1.3559326171875
0.6340576171875
0.037060546874999996
0.0378662109375
0.2827880859375
0.6574218749999999
1.042529296875
1.0755615234375
1.2262207031249999
1.4034667968749999
1.4759765624999999
1.63388671875
1.638720703125
1.6089111328124999
1.6137451171875
1.571044921875
0.038671874999999994
0.24814453125
0.8822021484375
1.1174560546874999
1.416357421875
1.8135498046874998
3.0446044921874997
3.0446044921874997
2.94873046875
2.5168945312499997
2.1019775390624997
1.8844482421875
1.7861572265624999
1.7410400390624998
1.77568359375
1.77568359375
1.5766845703124999
1.5976318359375
1.5863525390625
1.58232421875
1.5283447265624999
3.0244628906249997
3.0429931640624996
2.3114501953124997
2.2405517578125
1.880419921875
1.3720458984375
0.8580322265625
0.03544921875
0.0378662109375
0.310986328125
0.6380859375
0.8564208984374999
1.0675048828125
1.3180664062499998
1.3527099609375
1.4920898437499999
1.5968261718749999
1.5758789062499998
1.609716796875
1.622607421875
1.6443603515624998
0.0378662109375
0.130517578125
0.823388671875
1.0594482421875
1.3148437499999999
1.8014648437499998
2.241357421875
3.0421875
2.9841796874999997
2.6095458984374997
2.255859375
1.9118408203125
1.7926025390625
1.8006591796875
1.7853515624999998
1.7217041015624999
1.5968261718749999
1.5243164062499999
1.5162597656249999
1.545263671875
1.5444580078124999
1.5412353515625
3.043798828125
2.463720703125
2.2196044921875
1.9110351562499999
1.506591796875
1.1206787109375
0.0765380859375
0.037060546874999996
0.12246093749999999
0.51884765625
0.8926757812499999
1.0433349609375
1.1786865234375
1.397021484375
1.5718505859374998
1.5750732421875
1.6153564453125
1.603271484375
1.6218017578125
1.5919921874999998
0.4970947265625
0.037060546874999996
0.7855224609375
1.02802734375
1.2318603515625
1.5251220703125
1.8659179687499998
3.0446044921874997
3.0397705078125
2.745703125
2.29453125
2.0020751953125
1.828857421875
1.7619873046874999
1.7724609375
1.9070068359374999
1.5968261718749999
1.546875
1.585546875
1.5645996093749999
1.5323730468749999
1.5492919921875
3.043798828125
2.6860839843749997
2.3267578125
2.1052001953125
1.79501953125
1.2052734375
0.037060546874999996
0.03544921875
0.037060546874999996
0.5470458984375
0.7871337890625
1.007080078125
1.1754638671875
1.3140380859374998
1.2834228515625
1.5082031249999999
1.61455078125
1.6153564453125
1.6177734375
1.622607421875
1.5662109375
0.037060546874999996
0.784716796875
1.0650878906249999
1.135986328125
1.458251953125
1.828857421875
3.0462158203125
3.0413818359375
2.75537109375
2.3396484374999997
2.0616943359374997
1.8111328125
1.8409423828125
1.812744140625
1.7845458984375
1.65
1.577490234375
1.5597656249999998
1.5484863281249999
1.5347900390625
1.5283447265624999
3.0389648437499996
2.7674560546875
2.296142578125
2.2405517578125
1.748291015625
1.3631835937499999
0.639697265625
0.033032226562499996
0.0362548828125
0.3230712890625
0.7017333984374999
1.0086914062499999
1.0481689453125
1.2479736328125
1.4501953125
1.5863525390625
1.5807128906249999
1.5702392578125
1.6048828124999999
1.6137451171875
1.5976318359375
0.0346435546875
0.2296142578125
0.8886474609374999
1.074755859375
1.4542236328125
1.8256347656249998
2.1624023437499997
3.0421875
2.9946533203124996
2.550732421875
2.128564453125
1.972265625
1.812744140625
1.791796875
1.8046875
1.7781005859374999
1.5718505859374998
1.55009765625
1.525927734375
1.5114257812499998
1.5275390624999998
2.9060302734374996
3.0421875
2.3227294921875
2.205908203125
1.8812255859375
1.4687255859375
0.6904541015625
0.0362548828125
0.0362548828125
0.30856933593749997
0.6904541015625
0.9837158203124999
1.116650390625
1.26005859375
1.3502929687499998
1.5001464843749999
1.5766845703124999
1.6089111328124999
1.5960205078124998
1.5879638671874998
1.56943359375
0.043505859375
0.037060546874999996
0.9063720703125
1.087646484375
1.2818115234374998
1.75634765625
2.1551513671875
3.0389648437499996
3.050244140625
2.55234375
2.225244140625
1.960986328125
1.76279296875
1.7418457031249999
1.7660156249999999
1.6475830078125
1.611328125
1.5718505859374998
1.5380126953125
1.5645996093749999
1.5114257812499998
1.5186767578125
3.0421875
2.5201171875
2.27197265625
1.93681640625
1.509814453125
1.1271240234375
0.037060546874999996
0.033837890625
0.12568359375
0.5776611328125
0.9732421874999999
1.0691162109374999
1.1496826171874999
1.300341796875
1.56298828125
1.4928955078125
1.622607421875
1.611328125
1.6330810546874999
1.6250244140624999
0.6147216796875
0.0362548828125
0.77666015625
1.0481689453125
1.2286376953125
1.5106201171875
1.844970703125
3.04541015625
3.04541015625
2.73603515625
2.2131591796875
1.977099609375
1.82080078125
1.7934082031249998
1.738623046875
1.8667236328124999
1.65966796875
1.5533203125
1.56943359375
1.5782958984375
1.533984375
1.5476806640624998
3.0429931640624996
2.6748046875
2.2880859375
2.083447265625
1.7531249999999998
1.1923828125
0.17241210937499998
0.033032226562499996
0.0378662109375
0.4761474609375
0.8193603515625
1.0385009765625
1.18916015625
1.3575439453125
1.3502929687499998
1.5573486328125
1.5968261718749999
1.5944091796875
1.585546875
1.5839355468749998
1.5436523437499998
0.033837890625
0.7065673828125
1.0159423828125
1.1609619140625
1.4493896484375
1.819189453125
3.043798828125
3.0421875
2.7303955078124997
2.3501220703125
2.0616943359374997
1.8256347656249998
1.8336914062499998
1.812744140625
1.8151611328125
1.6814208984374999
1.56943359375
1.5645996093749999
1.5686279296874999
1.5331787109375
1.542041015625
3.0405761718749997
2.7505371093749997
2.2913085937499997
2.2018798828125
1.7249267578124998
1.3994384765624999
0.5824951171875
0.0362548828125
0.038671874999999994
0.32468261718749997
0.717041015625
1.0828125
1.10859375
1.27939453125
1.4864501953125
1.49853515625
1.603271484375
1.609716796875
1.611328125
1.6169677734374999
1.5839355468749998
0.0362548828125
0.230419921875
0.9240966796875
1.0973144531249999
1.4429443359374998
1.8312744140625
2.28486328125
3.043798828125
2.8947509765625
2.513671875
2.0552490234375
1.8522216796875
1.77890625
1.7507080078125
1.7587646484375
1.7055908203124999
1.5750732421875
1.6129394531249999
1.5968261718749999
1.5766845703124999
1.5621826171875
2.8359375
3.0413818359375
2.3162841796875
2.20107421875
1.8715576171875
1.4679199218749999
0.9224853515625
0.041088867187499996
0.03544921875
0.33757324218749996
0.6654785156249999
0.968408203125
1.084423828125
1.2705322265624999
1.3607666015625
1.53076171875
1.5887695312499999
1.5726562499999999
1.574267578125
1.585546875
1.5662109375
0.04833984375
0.033032226562499996
0.926513671875
1.0884521484375
1.2656982421874998
1.7982421874999999
2.2107421874999997
3.04541015625
2.9922363281249997
2.5233398437499996
2.20751953125
1.9625976562499998
1.82080078125
1.812744140625
1.7990478515625
1.674169921875
1.58232421875
1.5637939453124998
1.6105224609375
1.5734619140625
1.525927734375
1.509814453125
3.043798828125
2.4629150390625
2.2171875
1.8884765625
1.4687255859375
1.1126220703125
0.298095703125
0.037060546874999996
0.167578125
0.5599365234375
0.9498779296875
1.090869140625
1.2076904296875
1.35673828125
1.5436523437499998
1.529150390625
1.5895751953125
1.5621826171875
1.5597656249999998
1.5645996093749999
0.7734375
0.03544921875
0.7613525390625
1.0433349609375
1.3027587890624999
1.56943359375
1.8554443359375
3.0429931640624996
3.043798828125
2.7207275390624996
2.2196044921875
1.9859619140625
1.8151611328125
1.76279296875
1.786962890625
1.9110351562499999
1.6306640625
1.5517089843749998
1.5686279296874999
1.5919921874999998
1.5766845703124999
1.5476806640624998
3.043798828125
2.6901123046874997
2.26875
2.0713623046875
1.79501953125
1.198828125
0.1071533203125
0.037060546874999996
0.037060546874999996
0.5454345703125
0.878173828125
1.068310546875
1.18271484375
1.3148437499999999
1.3575439453125
1.4848388671875
1.6298583984375
1.60166015625
1.58232421875
1.609716796875
1.5517089843749998
0.037060546874999996
0.7299316406249999
1.0513916015625
1.1625732421875
1.4840332031249999
1.8022705078124999
3.0429931640624996
3.0397705078125
2.727978515625
2.333203125
2.031884765625
1.8312744140625
1.786962890625
1.77890625
1.8119384765625
1.5960205078124998
1.5895751953125
1.5678222656249998
1.533984375
1.5364013671874999
1.545263671875
3.0429931640624996
2.7730957031249996
2.309033203125
2.1922119140625
1.7611816406249998
1.4026611328124998
0.863671875
0.0322265625
0.0362548828125
0.33676757812499997
0.6703125
0.978076171875
1.1174560546874999
1.3285400390625
1.5041748046874999
1.4880615234374999
1.5895751953125
1.5670166015625
1.56298828125
1.5815185546875
1.5686279296874999
0.0394775390625
0.233642578125
0.9240966796875
1.139208984375
1.4671142578124998
1.82080078125
2.9592041015625
3.043798828125
2.91650390625
2.4693603515625
2.0979492187499997
1.8949218749999999
1.8014648437499998
1.7684326171875
1.7990478515625
1.722509765625
1.5605712890624999
1.5791015625
1.5573486328125
1.545263671875
1.5517089843749998
2.7747070312499997
3.043798828125
2.3114501953124997
2.209130859375
1.8465820312499999
1.3301513671874998
0.6888427734375
0.1329345703125
0.0394775390625
0.2876220703125
0.631640625
0.9450439453124999
1.1053710937499999
1.2914794921875
1.384130859375
1.5678222656249998
1.622607421875
1.5919921874999998
1.5807128906249999
1.5686279296874999
1.545263671875
0.1426025390625
0.1232666015625
0.9498779296875
1.1287353515625
1.33740234375
1.754736328125
2.1454833984375
3.0421875
2.9817626953125
2.4911132812499996
2.147900390625
1.8788085937499999
1.7901855468749999
1.751513671875
1.7442626953125
1.7289550781249998
1.6242187499999998
1.58232421875
1.5895751953125
1.6089111328124999
1.561376953125
2.2453857421875
3.034130859375
2.4548583984375
2.247802734375
1.8683349609375
1.5718505859374998
1.1448486328125
0.120849609375
0.0362548828125
0.16435546874999998
0.5808837890624999
0.9611572265624999
1.1375976562499999
1.20849609375
1.3825195312499998
1.5202880859374999
1.5017578125
1.6072998046875
1.5984375
1.5791015625
1.5758789062499998
0.7629638671875
0.0362548828125
0.7782714843749999
1.06669921875
1.264892578125
1.5428466796875
2.09150390625
3.0429931640624996
3.0429931640624996
2.7142822265624997
2.165625
1.9658203125
1.8385253906249999
1.8038818359375
1.7571533203124998
1.925537109375
1.6089111328124999
1.5686279296874999
1.56943359375
1.5364013671874999
1.5243164062499999
1.529150390625
3.0421875
2.50400390625
2.289697265625
2.0488037109375
1.5621826171875
1.2334716796875
0.16838378906249998
0.033032226562499996
0.1119873046875
0.48581542968749997
0.807275390625
1.1093994140624999
1.1835205078125
1.361572265625
1.3768798828125
1.533984375
1.5654052734375
1.587158203125
1.5726562499999999
1.577490234375
1.542041015625
0.037060546874999996
0.720263671875
1.0691162109374999
1.1674072265625
1.4115234374999999
1.803076171875
2.9269775390625
3.043798828125
2.7666503906249997
2.3420654296875
2.00771484375
1.8062988281249999
1.7595703125
1.8248291015625
1.8739746093749998
1.6814208984374999
1.5597656249999998
1.5484863281249999
1.5444580078124999
1.558154296875
1.5589599609375
3.043798828125
2.7432861328125
2.18173828125
2.0729736328125
1.7257324218749999
1.3905761718749998
0.1941650390625
0.0362548828125
0.038671874999999994
0.33354492187499996
0.7959960937499999
1.0530029296874999
1.13115234375
1.3100097656249998
1.4912841796874998
1.506591796875
1.6435546875
1.61455078125
1.5847412109374999
1.5758789062499998
1.590380859375
0.0362548828125
0.2376708984375
1.042529296875
1.1271240234375
1.480810546875
1.8216064453124998
2.9342285156249996
3.043798828125
2.92294921875
2.3879882812499997
2.064111328125
1.8780029296874998
1.7635986328125
1.7426513671875
1.7499023437499999
1.7168701171874998
1.5605712890624999
1.58232421875
1.5597656249999998
1.529150390625
1.5380126953125
2.7239501953125
2.8794433593749997
2.3050048828125
2.1535400390625
1.851416015625
1.4236083984374999
0.855615234375
0.045117187499999996
0.0394775390625
0.3552978515625
0.71865234375
0.9812988281249999
1.110205078125
1.2947021484374999
1.3744628906249998
1.4074951171874999
1.5815185546875
1.6209960937499999
1.6411376953124999
1.641943359375
1.59521484375
0.0797607421875
0.14018554687499998
0.9595458984374999
1.1126220703125
1.4630859374999998
1.7781005859374999
2.1406494140625
3.0381591796875
2.9197265624999997
2.5201171875
2.1567626953125
1.8747802734374999
1.783740234375
1.767626953125
1.7499023437499999
1.6475830078125
1.5863525390625
1.5702392578125
1.58232421875
1.5525146484374999
1.5484863281249999
2.260693359375
3.04541015625
2.447607421875
2.20751953125
1.8844482421875
1.5404296874999999
1.007080078125
0.23686523437499998
0.0378662109375
0.15468749999999998
0.6388916015624999
0.942626953125
1.1617675781249999
1.2802001953125
1.3736572265625
1.4888671875
1.5444580078124999
1.5807128906249999
1.5887695312499999
1.6121337890624998
1.5799072265624998
0.823388671875
0.033032226562499996
0.7669921875
1.0965087890625
1.2995361328125
1.558154296875
2.08828125
3.0397705078125
3.0470214843749996
2.5837646484374996
2.24619140625
1.9569580078125
1.7821289062499999
1.7797119140625
1.754736328125
1.9134521484375
1.6765869140624998
1.5863525390625
1.5460693359375
1.525927734375
1.5218994140625
1.5146484375
3.0421875
2.457275390625
2.2421630859375
2.07216796875
1.585546875
1.2608642578125
0.1611328125
0.0362548828125
0.12568359375
0.5551025390625
0.8435302734375
1.090869140625
1.1778808593749999
1.3446533203125
1.4832275390624998
1.5106201171875
1.6137451171875
1.5919921874999998
1.6008544921874999
1.5992431640625
1.5484863281249999
0.03544921875
0.72509765625
1.058642578125
1.1045654296875
1.4848388671875
1.8014648437499998
3.0470214843749996
3.0413818359375
2.69091796875
2.3146728515625
1.9779052734375
1.8175781249999998
1.8377197265624998
1.7829345703125
1.8344970703124999
1.5678222656249998
1.5678222656249998
1.571044921875
1.5396240234374998
1.529150390625
1.5927978515624999
3.0429931640624996
2.760205078125
2.2760009765625
2.096337890625
1.7458740234374999
1.4010498046875
0.185302734375
0.037060546874999996
0.0378662109375
0.35690917968749997
0.816943359375
1.0352783203125
1.17626953125
1.4066894531249998
1.4961181640624999
1.442138671875
1.5992431640625
1.5919921874999998
1.6129394531249999
1.5718505859374998
1.5766845703124999
0.033032226562499996
0.24814453125
1.0884521484375
1.1674072265625
1.5017578125
1.832080078125
2.9930419921875
3.0429931640624996
2.9124755859375
2.4041015624999997
2.05283203125
1.8506103515624999
1.764404296875
1.7249267578124998
1.7611816406249998
1.667724609375
1.5396240234374998
1.5509033203125
1.5621826171875
1.5662109375
1.545263671875
2.7505371093749997
2.8609130859375
2.302587890625
2.14951171875
1.7579589843749999
1.3317626953125
0.758935546875
0.14421386718749998
0.033837890625
0.322265625
0.6840087890625
1.055419921875
1.1375976562499999
1.3253173828125
1.3905761718749998
1.4896728515625
1.5968261718749999
1.5525146484374999
1.5573486328125
1.5847412109374999
1.5887695312499999
0.0394775390625
0.1119873046875
0.8958984375
1.0916748046875
1.480810546875
1.7861572265624999
2.109228515625
3.0397705078125
3.0236572265625
2.550732421875
2.1116455078125
1.91748046875
1.812744140625
1.7523193359375
1.78857421875
1.651611328125
1.561376953125
1.542041015625
1.5396240234374998
1.5621826171875
1.542041015625
2.215576171875
3.043798828125
2.4532470703125
2.1857666015625
1.880419921875
1.5202880859374999
0.9208740234374999
0.17482910156249998
0.0378662109375
0.153076171875
0.6823974609375
0.9595458984374999
1.1545166015625
1.31162109375
1.42119140625
1.529150390625
1.60166015625
1.6129394531249999
1.606494140625
1.5984375
1.590380859375
0.7758544921874999
0.0362548828125
0.9394042968749999
1.1255126953124999
1.2834228515625
1.7700439453124999
2.0600830078125
3.0421875
3.0421875
2.54267578125
2.1978515625
1.9223144531249998
1.7466796875
1.7184814453125
1.72412109375
1.5758789062499998
1.6266357421875
1.61455078125
1.6089111328124999
1.5895751953125
1.5517089843749998
1.554931640625
3.0421875
2.4516357421875
2.2534423828125
2.0423583984375
1.5517089843749998
1.2479736328125
0.1168212890625
0.0378662109375
0.13615722656249998
0.5309326171875
0.84111328125
1.1053710937499999
1.268115234375
1.397021484375
1.477587890625
1.509814453125
1.5799072265624998
1.5799072265624998
1.609716796875
1.5984375
1.5533203125
0.0314208984375
0.7516845703124999
1.0820068359375
1.284228515625
1.5082031249999999
1.7893798828124998
3.043798828125
3.0429931640624996
2.70380859375
2.26552734375
1.9601806640625
1.8095214843749998
1.7901855468749999
1.7619873046874999
1.8232177734375
1.63388671875
1.5460693359375
1.5621826171875
1.5645996093749999
1.56298828125
1.5734619140625
3.043798828125
2.7593994140625
2.230078125
2.04638671875
1.7152587890625
1.3446533203125
0.45842285156249996
0.0362548828125
0.0362548828125
0.43828124999999996
0.7887451171875
1.044140625
1.19560546875
1.377685546875
1.509814453125
1.5202880859374999
1.60166015625
1.5750732421875
1.585546875
1.6048828124999999
1.5444580078124999
0.037060546874999996
0.2199462890625
1.05380859375
1.10859375
1.4912841796874998
1.828857421875
2.54267578125
3.0462158203125
2.7908203124999997
2.3960449218749997
2.0810302734375
1.8812255859375
1.786962890625
1.735400390625
1.767626953125
1.6975341796874999
1.5750732421875
1.590380859375
1.5758789062499998
1.5662109375
1.5847412109374999
2.6119628906249996
2.8834716796874997
2.26875
