1.5460693359375
1.5396240234374998
1.5106201171875
1.5251220703125
1.5106201171875
1.5146484375
1.52109375
2.0987548828125
1.66611328125
1.58232421875
1.5645996093749999
1.5194824218749998
1.46953125
1.3188720703124999
1.224609375
1.340625
1.4155517578124999
1.4413330078125
1.4783935546875
1.477587890625
1.5106201171875
1.5073974609374998
1.5315673828124998
1.5275390624999998
1.529150390625
1.5275390624999998
1.53076171875
1.5412353515625
0.903955078125
1.4630859374999998
1.50498046875
1.4928955078125
1.5412353515625
1.5984375
1.8586669921874999
2.006103515625
1.748291015625
1.6000488281249998
1.5557373046874998
1.5541259765625
1.5589599609375
1.546875
1.558154296875
1.5122314453124999
1.506591796875
1.525927734375
1.5186767578125
1.53076171875
1.4953124999999998
1.738623046875
1.7426513671875
1.5597656249999998
1.5766845703124999
1.5186767578125
1.464697265625
1.281005859375
1.3188720703124999
1.2858398437499998
1.40185546875
1.4445556640625
1.4759765624999999
1.4832275390624998
1.4953124999999998
1.4928955078125
1.509814453125
1.5355957031249998
1.5331787109375
1.5138427734375
1.529150390625
1.5315673828124998
1.3011474609375
1.2858398437499998
1.5114257812499998
1.4791992187499998
1.5323730468749999
1.5984375
1.92392578125
1.9988525390624998
1.674169921875
1.6081054687499998
1.55009765625
1.5605712890624999
1.5492919921875
1.5573486328125
1.5396240234374998
1.522705078125
1.5218994140625
1.5315673828124998
1.53076171875
1.522705078125
1.509814453125
1.5879638671874998
2.0044921875
1.574267578125
1.56298828125
1.558154296875
1.5041748046874999
1.4469726562499998
1.31162109375
1.2254150390625
1.3494873046875
1.4300537109375
1.4598632812499999
1.4671142578124998
1.4832275390624998
1.5001464843749999
1.5243164062499999
1.5154541015624998
1.5412353515625
1.558154296875
1.5009521484375
1.5347900390625
1.458251953125
1.003857421875
1.493701171875
1.4381103515625
1.5251220703125
1.5637939453124998
1.5847412109374999
2.109228515625
1.7740722656249999
1.6177734375
1.5525146484374999
1.5758789062499998
1.5541259765625
1.5750732421875
1.561376953125
1.5484863281249999
1.5243164062499999
1.5090087890625
1.5202880859374999
1.5235107421874998
1.5235107421874998
1.513037109375
2.0584716796875
1.5992431640625
1.5678222656249998
1.561376953125
1.52109375
1.4711425781249998
1.3108154296874999
1.235888671875
1.3317626953125
1.409912109375
1.4364990234375
1.4655029296875
1.4574462890625
1.5025634765625
1.5170654296875
1.522705078125
1.5355957031249998
1.5170654296875
1.5428466796875
1.5428466796875
1.5380126953125
0.9249023437499999
1.4518066406249999
1.509814453125
1.4711425781249998
1.5315673828124998
1.6040771484374998
1.8788085937499999
2.012548828125
1.6636962890625
1.5944091796875
1.561376953125
1.5460693359375
1.5670166015625
1.53720703125
1.5517089843749998
1.53076171875
1.509814453125
1.5299560546875
1.5251220703125
1.513037109375
1.5114257812499998
1.9827392578124998
1.7611816406249998
1.5517089843749998
1.5863525390625
1.5243164062499999
1.477587890625
1.327734375
1.276171875
1.2673095703125
1.3825195312499998
1.4373046875
1.4735595703125
1.4526123046875
1.4735595703125
1.5033691406249998
1.50498046875
1.525927734375
1.5436523437499998
1.53076171875
1.529150390625
1.5275390624999998
1.0207763671874999
1.24072265625
1.5138427734375
1.4711425781249998
1.5057861328125
1.5831298828125
1.6483886718749998
2.012548828125
1.7152587890625
1.6161621093749998
1.5702392578125
1.5533203125
1.5557373046874998
1.5597656249999998
1.5726562499999999
1.538818359375
1.51787109375
1.5170654296875
1.53076171875
1.5162597656249999
1.533984375
1.5404296874999999
2.0334960937499997
1.577490234375
1.5734619140625
1.5517089843749998
1.5017578125
1.397021484375
1.34384765625
1.222998046875
1.3736572265625
1.44052734375
1.461474609375
1.4711425781249998
1.496923828125
1.506591796875
1.50498046875
1.529150390625
1.529150390625
1.5275390624999998
1.525927734375
1.5243164062499999
1.4703369140625
0.9603515625
1.5283447265624999
1.4783935546875
1.5412353515625
1.5404296874999999
1.6161621093749998
2.0689453125
1.85302734375
1.622607421875
1.5992431640625
1.5597656249999998
1.5460693359375
1.5758789062499998
1.545263671875
1.5573486328125
1.5331787109375
1.509814453125
1.5347900390625
1.5162597656249999
1.5186767578125
1.5218994140625
2.012548828125
1.622607421875
1.5750732421875
1.56298828125
1.50498046875
1.490478515625
1.2608642578125
1.219775390625
1.3261230468749998
1.409912109375
1.445361328125
1.4800048828124999
1.4598632812499999
1.496923828125
1.496923828125
1.5041748046874999
1.5492919921875
1.5331787109375
1.546875
1.53720703125
1.5267333984375
0.9232910156249999
1.4252197265625
1.49853515625
1.4671142578124998
1.5492919921875
1.5960205078124998
1.9182861328124998
1.8377197265624998
1.67578125
1.5992431640625
1.5605712890624999
1.5597656249999998
1.5557373046874998
1.55009765625
1.5484863281249999
1.5364013671874999
1.5235107421874998
1.5347900390625
1.51787109375
1.5251220703125
1.522705078125
1.90458984375
1.8248291015625
1.5589599609375
1.5702392578125
1.5218994140625
1.4703369140625
1.2938964843749998
1.2938964843749998
1.2455566406249998
1.3656005859375
1.4606689453125
1.4655029296875
1.4735595703125
1.5315673828124998
1.4993408203124998
1.4953124999999998
1.5251220703125
1.5347900390625
1.5283447265624999
1.53076171875
1.5323730468749999
1.09892578125
1.1778808593749999
1.5194824218749998
1.4679199218749999
1.5218994140625
1.59521484375
1.7853515624999998
2.0431640625
1.719287109375
1.638720703125
1.5541259765625
1.5621826171875
1.5509033203125
1.5492919921875
1.55009765625
1.525927734375
1.50498046875
1.5154541015624998
1.5194824218749998
1.513037109375
1.525927734375
1.529150390625
2.0737792968749997
1.546875
1.56943359375
1.5645996093749999
1.4800048828124999
1.4228027343749998
1.340625
1.2221923828124999
1.3583496093749998
1.4276367187499999
1.4526123046875
1.474365234375
1.480810546875
1.5009521484375
1.5283447265624999
1.538818359375
1.5404296874999999
1.5355957031249998
1.5355957031249998
1.5347900390625
1.5235107421874998
0.9160400390625
1.4912841796874998
1.490478515625
1.5041748046874999
1.5750732421875
1.5927978515624999
2.0197998046875
1.9053955078125
1.6451660156249999
1.5895751953125
1.5734619140625
1.5364013671874999
1.571044921875
1.561376953125
1.56298828125
1.5364013671874999
1.533984375
1.5041748046874999
1.5162597656249999
1.5114257812499998
1.5202880859374999
2.0971435546875
1.6459716796875
1.5589599609375
1.5750732421875
1.5057861328125
1.4558349609374999
1.252001953125
1.2189697265625
1.3148437499999999
1.4034667968749999
1.4493896484375
1.4872558593749998
1.47275390625
1.5114257812499998
1.5146484375
1.5251220703125
1.5557373046874998
1.5380126953125
1.5114257812499998
1.5235107421874998
1.5404296874999999
0.9031494140624999
1.3962158203125
1.522705078125
1.4759765624999999
1.5589599609375
1.60166015625
1.7926025390625
1.9086181640625
1.6822265625
1.6081054687499998
1.5460693359375
1.5476806640624998
1.5436523437499998
1.5428466796875
1.5509033203125
1.5243164062499999
1.509814453125
1.5299560546875
1.525927734375
1.5186767578125
1.5146484375
1.8071044921875
1.8973388671875
1.5525146484374999
1.5927978515624999
1.5355957031249998
1.4832275390624998
1.29228515625
1.287451171875
1.2439453125
1.3905761718749998
1.4389160156249998
1.461474609375
1.464697265625
1.4993408203124998
1.5017578125
1.4912841796874998
1.53076171875
1.5331787109375
1.529150390625
1.53720703125
1.5589599609375
1.1867431640625
1.1174560546874999
1.6048828124999999
1.4759765624999999
1.5146484375
1.5726562499999999
1.72734375
2.0536376953124997
1.7466796875
1.61455078125
1.5726562499999999
1.5678222656249998
1.5396240234374998
1.561376953125
1.5533203125
1.5492919921875
1.5154541015624998
1.5154541015624998
1.5283447265624999
1.52109375
1.5154541015624998
1.5186767578125
2.0947265625
1.5605712890624999
1.5815185546875
1.554931640625
1.48564453125
1.4510009765624998
1.2866455078124999
1.2560302734375
1.3527099609375
1.4219970703125
1.4493896484375
1.4872558593749998
1.4800048828124999
1.4945068359375
1.5162597656249999
1.5355957031249998
1.53076171875
1.525927734375
1.5331787109375
1.542041015625
1.5299560546875
1.0256103515625
1.4977294921875
1.4961181640624999
1.4711425781249998
1.5791015625
1.6072998046875
1.9948242187499998
1.8014648437499998
1.6451660156249999
1.5791015625
1.5509033203125
1.5605712890624999
1.5533203125
1.5412353515625
1.55009765625
1.5355957031249998
1.5122314453124999
1.5082031249999999
1.513037109375
1.5090087890625
1.5283447265624999
2.0906982421875
1.6910888671875
1.5758789062499998
1.58232421875
1.513037109375
1.4606689453125
1.255224609375
1.232666015625
1.2866455078124999
1.4236083984374999
1.4638916015624999
1.4711425781249998
1.46630859375
1.4993408203124998
1.493701171875
1.53076171875
1.546875
1.5267333984375
1.5364013671874999
1.5315673828124998
1.513037109375
0.8950927734374999
1.353515625
1.5154541015624998
1.4872558593749998
1.546875
1.6072998046875
2.0012695312499997
1.9223144531249998
1.67900390625
1.5895751953125
1.577490234375
1.55009765625
1.538818359375
1.542041015625
1.5645996093749999
1.5541259765625
1.533984375
1.5484863281249999
1.5347900390625
1.5299560546875
1.51787109375
1.6959228515625
1.9384277343749998
1.5589599609375
1.5831298828125
1.5444580078124999
1.45341796875
1.3510986328124999
1.3172607421875
1.2262207031249999
1.3873535156249999
1.43408203125
1.4469726562499998
1.448583984375
1.5025634765625
1.4759765624999999
1.5138427734375
1.533984375
1.5428466796875
1.5355957031249998
1.533984375
1.5484863281249999
1.3220947265624998
1.061865234375
1.5235107421874998
1.456640625
1.509814453125
1.5637939453124998
1.6693359374999999
2.0745849609375
1.7764892578125
1.622607421875
1.5702392578125
1.5678222656249998
1.533984375
1.5750732421875
1.5573486328125
1.533984375
1.5283447265624999
1.5114257812499998
1.506591796875
1.529150390625
1.53076171875
1.5154541015624998
2.018994140625
1.5758789062499998
1.5718505859374998
1.5525146484374999
1.493701171875
1.4598632812499999
1.3285400390625
1.235888671875
1.3422363281249998
1.4139404296875
1.4655029296875
1.4735595703125
1.458251953125
1.5025634765625
1.5299560546875
1.5315673828124998
1.5267333984375
1.5396240234374998
1.5412353515625
1.5355957031249998
1.5331787109375
0.968408203125
1.4687255859375
1.496923828125
1.4840332031249999
1.5525146484374999
1.5662109375
1.9134521484375
1.843359375
1.6636962890625
1.6024658203125
1.5686279296874999
1.561376953125
1.561376953125
1.542041015625
1.545263671875
1.52109375
1.51787109375
1.5283447265624999
1.5218994140625
1.5235107421874998
1.513037109375
2.051220703125
1.7257324218749999
1.5678222656249998
1.5605712890624999
1.4977294921875
1.464697265625
1.219775390625
1.2665039062499999
1.2544189453124999
1.4219970703125
1.4735595703125
1.4783935546875
1.4574462890625
1.5146484375
1.5082031249999999
1.4791992187499998
1.546875
1.5355957031249998
1.5323730468749999
1.5347900390625
1.5186767578125
0.9337646484375
1.2995361328125
1.593603515625
1.461474609375
1.5444580078124999
1.61455078125
1.9384277343749998
1.9658203125
1.6894775390624999
1.611328125
1.5565429687499999
1.5525146484374999
1.55009765625
1.533984375
1.538818359375
1.5460693359375
1.522705078125
1.5251220703125
1.5202880859374999
1.5194824218749998
1.5114257812499998
1.6129394531249999
1.9916015624999999
1.5678222656249998
1.577490234375
1.5476806640624998
1.4558349609374999
1.3962158203125
1.2890625
1.271337890625
1.3849365234375
1.4429443359374998
1.4751708984374998
1.4703369140625
1.4912841796874998
1.50498046875
1.4945068359375
1.5364013671874999
1.5444580078124999
1.5251220703125
1.533984375
1.5331787109375
1.4236083984374999
1.2318603515625
1.5299560546875
1.480810546875
1.5082031249999999
1.574267578125
1.6653076171874999
2.0455810546874997
1.732177734375
1.6105224609375
1.585546875
1.5686279296874999
1.53720703125
1.5678222656249998
1.56298828125
1.5235107421874998
1.5355957031249998
1.5146484375
1.49853515625
1.5122314453124999
1.529150390625
1.5243164062499999
2.054443359375
1.5984375
1.5831298828125
1.5509033203125
1.5122314453124999
1.46953125
1.319677734375
1.2205810546875
1.329345703125
1.413134765625
1.442138671875
1.46630859375
1.4630859374999998
1.5106201171875
1.5090087890625
1.52109375
1.5355957031249998
1.5299560546875
1.5275390624999998
1.5380126953125
1.5138427734375
0.936181640625
1.464697265625
1.4993408203124998
1.49853515625
1.558154296875
1.5960205078124998
2.0488037109375
1.8820312499999998
1.6556396484375
1.6081054687499998
1.5517089843749998
1.5525146484374999
1.561376953125
1.554931640625
1.554931640625
1.525927734375
1.5202880859374999
1.52109375
1.5299560546875
1.5218994140625
1.5122314453124999
1.9875732421874999
1.7660156249999999
1.571044921875
1.5815185546875
1.5146484375
1.4759765624999999
1.2383056640624999
1.2818115234374998
1.2906738281249999
1.44052734375
1.4300537109375
1.46953125
1.4655029296875
1.4961181640624999
1.5033691406249998
1.4703369140625
1.5444580078124999
1.5275390624999998
1.533984375
1.5331787109375
1.5355957031249998
0.9917724609374999
1.235888671875
1.5162597656249999
1.480810546875
1.5194824218749998
1.611328125
1.8111328125
2.0093261718749997
1.7055908203124999
1.5984375
1.5702392578125
1.5428466796875
1.561376953125
1.5460693359375
1.5533203125
1.5380126953125
1.5170654296875
1.529150390625
1.5194824218749998
1.525927734375
1.5202880859374999
1.5436523437499998
1.8473876953125
1.5597656249999998
1.56298828125
1.525927734375
1.4751708984374998
1.4115234374999999
1.31162109375
1.271337890625
1.377685546875
1.432470703125
1.4671142578124998
1.4606689453125
1.482421875
1.5009521484375
1.4953124999999998
1.5573486328125
1.5364013671874999
1.5323730468749999
1.5364013671874999
1.5428466796875
1.493701171875
1.158544921875
1.5251220703125
1.480810546875
1.5202880859374999
1.5815185546875
1.6129394531249999
1.9988525390624998
1.7797119140625
1.6443603515624998
1.5766845703124999
1.5637939453124998
1.5565429687499999
1.5887695312499999
1.5509033203125
1.5476806640624998
1.546875
1.5114257812499998
1.546875
1.5436523437499998
1.5057861328125
1.50498046875
2.0818359374999997
1.5968261718749999
1.5758789062499998
1.5557373046874998
1.5001464843749999
1.482421875
1.3019531249999998
1.224609375
1.34384765625
1.4316650390624999
1.4501953125
1.482421875
1.47275390625
1.5033691406249998
1.49853515625
1.4896728515625
1.5347900390625
1.533984375
1.5444580078124999
1.5364013671874999
1.529150390625
0.9216796875
1.4501953125
1.4848388671875
1.4880615234374999
1.5565429687499999
1.59521484375
2.044775390625
1.877197265625
1.6725585937499998
1.5758789062499998
1.558154296875
1.5404296874999999
1.5589599609375
1.55009765625
1.545263671875
1.5380126953125
1.5162597656249999
1.5364013671874999
1.5299560546875
1.5154541015624998
1.5267333984375
1.9223144531249998
1.8256347656249998
1.56298828125
1.5782958984375
1.5347900390625
1.4816162109375
1.300341796875
1.27294921875
1.303564453125
1.4034667968749999
1.442138671875
1.4767822265625
1.4671142578124998
1.5041748046874999
1.49853515625
1.5218994140625
1.5347900390625
1.529150390625
1.538818359375
1.5476806640624998
1.5243164062499999
1.09248046875
1.3978271484375
1.4977294921875
1.4945068359375
1.5041748046874999
1.6024658203125
1.7458740234374999
2.0343017578125
1.687060546875
1.611328125
1.5782958984375
1.5637939453124998
1.5509033203125
1.5412353515625
1.5444580078124999
1.545263671875
1.5106201171875
1.522705078125
1.51787109375
1.5154541015624998
1.5218994140625
1.51787109375
1.8812255859375
1.5509033203125
1.5718505859374998
1.5436523437499998
1.4848388671875
1.4437499999999999
1.2963134765625
1.252001953125
1.3688232421875
1.4364990234375
1.46953125
1.4735595703125
1.4783935546875
1.49853515625
1.5033691406249998
1.5404296874999999
1.5509033203125
1.5323730468749999
1.5412353515625
1.5299560546875
1.2777832031249998
1.0948974609375
1.5251220703125
1.4912841796874998
1.5017578125
1.5686279296874999
1.6105224609375
2.060888671875
1.8006591796875
1.6242187499999998
1.593603515625
1.5589599609375
1.5436523437499998
1.5750732421875
1.55009765625
1.558154296875
1.5444580078124999
1.53076171875
1.5235107421874998
1.52109375
1.5243164062499999
1.5106201171875
2.09150390625
1.64677734375
1.5670166015625
1.5686279296874999
1.5476806640624998
1.432470703125
1.2568359375
1.239111328125
1.316455078125
1.4445556640625
1.46630859375
1.4840332031249999
1.4630859374999998
1.5041748046874999
1.5025634765625
1.5364013671874999
1.5589599609375
1.5444580078124999
1.5315673828124998
1.533984375
1.51787109375
0.9152343749999999
1.4123291015625
1.4977294921875
1.5017578125
1.5509033203125
1.5734619140625
2.00771484375
1.8949218749999999
1.6862548828125
1.5911865234375
1.5670166015625
1.5444580078124999
1.554931640625
1.5509033203125
1.5541259765625
1.5162597656249999
1.5114257812499998
1.522705078125
1.525927734375
1.5170654296875
1.5186767578125
1.8264404296874999
1.6886718749999998
1.5517089843749998
1.5734619140625
1.5114257812499998
1.4598632812499999
1.3309570312499999
1.2906738281249999
1.2987304687499999
1.384130859375
1.4574462890625
1.46953125
1.4526123046875
1.5090087890625
1.5009521484375
1.5194824218749998
1.5364013671874999
1.529150390625
1.5299560546875
1.5331787109375
1.5218994140625
1.184326171875
1.3430419921874999
1.52109375
1.4679199218749999
1.5484863281249999
1.6040771484374998
1.6701416015625
2.0898925781249997
1.7249267578124998
1.5976318359375
1.5718505859374998
1.5573486328125
1.5509033203125
1.56298828125
1.5364013671874999
1.5662109375
1.4953124999999998
1.513037109375
1.5251220703125
1.5202880859374999
1.5106201171875
1.6725585937499998
1.928759765625
1.5645996093749999
1.5541259765625
1.5444580078124999
1.490478515625
1.4598632812499999
1.31162109375
1.2447509765625
1.3801025390625
1.4364990234375
1.46953125
1.4759765624999999
1.4945068359375
1.5138427734375
1.522705078125
1.5412353515625
1.5114257812499998
1.5315673828124998
1.5315673828124998
1.5170654296875
1.353515625
1.0505859375
1.4920898437499999
1.46630859375
1.5025634765625
1.56943359375
1.585546875
2.083447265625
1.8264404296874999
1.6403320312499998
1.5621826171875
1.5605712890624999
1.5492919921875
1.558154296875
1.5541259765625
1.5645996093749999
1.5412353515625
1.5162597656249999
1.5186767578125
1.5114257812499998
1.5202880859374999
1.5251220703125
2.083447265625
1.65
1.5718505859374998
1.56943359375
1.5106201171875
1.4469726562499998
1.2270263671875
1.2383056640624999
1.3462646484374998
1.4155517578124999
1.456640625
1.50498046875
1.456640625
1.5090087890625
1.5170654296875
1.5025634765625
1.5396240234374998
1.5162597656249999
1.5484863281249999
1.5428466796875
1.522705078125
0.9152343749999999
1.3728515625
1.4953124999999998
1.4880615234374999
1.538818359375
1.5799072265624998
2.0101318359375
1.9013671875
1.6524169921874998
1.6008544921874999
1.571044921875
1.5404296874999999
1.5621826171875
1.546875
1.5428466796875
1.513037109375
1.5162597656249999
1.529150390625
1.506591796875
1.5323730468749999
1.513037109375
1.754736328125
1.7249267578124998
1.5525146484374999
1.585546875
1.5243164062499999
1.456640625
1.3792968749999999
1.2689208984375
1.2955078125
1.3849365234375
1.456640625
1.47275390625
1.4671142578124998
1.5017578125
1.5017578125
1.5235107421874998
1.5347900390625
1.5364013671874999
1.5331787109375
1.5364013671874999
1.5283447265624999
1.2705322265624999
1.3092041015625
1.5347900390625
1.4832275390624998
1.53720703125
1.6008544921874999
1.651611328125
2.0488037109375
1.719287109375
1.5984375
1.5645996093749999
1.558154296875
1.5605712890624999
1.5686279296874999
1.5251220703125
1.5509033203125
1.50498046875
1.509814453125
1.542041015625
1.5275390624999998
1.513037109375
1.6153564453125
2.002880859375
1.5782958984375
1.5839355468749998
1.546875
1.4961181640624999
1.46953125
1.3027587890624999
1.2503906249999999
1.3462646484374998
1.42119140625
1.4590576171874998
1.4655029296875
1.4598632812499999
1.5090087890625
1.5275390624999998
1.538818359375
1.5355957031249998
1.5412353515625
1.53720703125
1.52109375
1.445361328125
1.0014404296875
1.4953124999999998
1.4928955078125
1.506591796875
1.5662109375
1.5726562499999999
2.0391357421875
1.8739746093749998
1.6524169921874998
1.590380859375
1.5525146484374999
1.5355957031249998
1.5573486328125
1.5484863281249999
1.5380126953125
1.5364013671874999
1.5186767578125
1.5138427734375
1.5235107421874998
1.5194824218749998
1.5122314453124999
2.09150390625
1.6935058593749999
1.590380859375
1.5637939453124998
1.5033691406249998
1.4477783203124999
1.2028564453125
1.2560302734375
1.3309570312499999
1.42119140625
1.4348876953124998
1.4840332031249999
1.4389160156249998
1.4920898437499999
1.5025634765625
1.5299560546875
1.5412353515625
1.506591796875
1.5476806640624998
1.5396240234374998
1.5162597656249999
0.9071777343749999
1.327734375
1.4993408203124998
1.4598632812499999
1.5565429687499999
1.58232421875
1.9110351562499999
1.9593749999999999
1.6604736328124998
1.6056884765625
1.5637939453124998
1.5557373046874998
1.5589599609375
1.5412353515625
1.55009765625
1.5202880859374999
1.5138427734375
1.533984375
1.5146484375
1.5138427734375
1.5243164062499999
1.706396484375
1.7611816406249998
1.5428466796875
1.5791015625
1.5186767578125
1.4719482421874999
1.36962890625
1.2673095703125
1.2866455078124999
1.3873535156249999
1.4413330078125
1.4501953125
1.4703369140625
1.4896728515625
1.513037109375
1.5194824218749998
1.5444580078124999
1.5347900390625
1.525927734375
1.5218994140625
1.5355957031249998
1.3607666015625
1.2640869140625
1.5243164062499999
1.474365234375
1.4993408203124998
1.5831298828125
1.6564453124999998
2.0657226562499997
1.7466796875
1.6266357421875
1.577490234375
1.5726562499999999
1.5428466796875
1.554931640625
1.5525146484374999
1.5654052734375
1.5090087890625
1.513037109375
1.5347900390625
1.513037109375
1.5283447265624999
1.5033691406249998
2.0326904296875
1.5766845703124999
1.5734619140625
1.5557373046874998
1.49853515625
1.4630859374999998
1.2697265624999998
1.252001953125
1.329345703125
1.4147460937499998
1.458251953125
1.482421875
1.480810546875
1.509814453125
1.5186767578125
1.522705078125
1.5380126953125
1.5315673828124998
1.538818359375
1.5509033203125
1.5162597656249999
0.9732421874999999
1.482421875
1.5009521484375
1.4961181640624999
1.5525146484374999
1.5678222656249998
1.9142578124999998
1.828857421875
1.651611328125
1.5895751953125
1.574267578125
1.5436523437499998
1.5791015625
1.554931640625
1.533984375
1.5218994140625
1.5202880859374999
1.52109375
1.5138427734375
1.52109375
1.525927734375
2.0560546875
1.7370117187499998
1.558154296875
1.56298828125
1.522705078125
1.456640625
1.216552734375
1.2858398437499998
1.2826171874999999
1.3946044921874998
1.4364990234375
1.47275390625
1.46630859375
1.5009521484375
1.5033691406249998
1.522705078125
1.5364013671874999
1.5525146484374999
1.5670166015625
1.5275390624999998
1.5275390624999998
0.9369873046874999
1.2898681640624998
1.5251220703125
1.4574462890625
1.5355957031249998
1.606494140625
1.6443603515624998
2.1084228515625
1.7120361328125
1.6185791015625
1.5750732421875
1.554931640625
1.5509033203125
1.5484863281249999
1.5517089843749998
1.5525146484374999
1.5194824218749998
1.5146484375
1.52109375
1.5218994140625
1.5267333984375
1.6024658203125
1.9875732421874999
1.5815185546875
1.5887695312499999
1.55009765625
1.49853515625
1.45341796875
1.3108154296874999
1.2495849609374998
1.35673828125
1.4348876953124998
1.45341796875
1.458251953125
1.4767822265625
1.5170654296875
1.5218994140625
1.5275390624999998
1.5299560546875
1.5283447265624999
1.53720703125
1.5396240234374998
1.445361328125
0.9861328125
1.496923828125
1.490478515625
1.5122314453124999
1.5533203125
1.6089111328124999
1.8336914062499998
1.87236328125
1.6403320312499998
1.609716796875
1.5605712890624999
1.5484863281249999
1.5718505859374998
1.5428466796875
1.5654052734375
1.5428466796875
1.5170654296875
1.5235107421874998
1.5138427734375
1.5057861328125
1.5186767578125
2.0955322265625
1.6806152343749998
1.5758789062499998
1.5750732421875
1.5114257812499998
1.4759765624999999
1.1851318359375
1.2439453125
1.30517578125
1.41796875
1.456640625
1.456640625
1.4542236328125
1.4953124999999998
1.525927734375
1.5436523437499998
1.5492919921875
1.5364013671874999
1.5364013671874999
1.5323730468749999
1.5315673828124998
0.9152343749999999
1.32451171875
1.50498046875
1.4783935546875
1.542041015625
1.6008544921874999
1.6685302734374998
2.031884765625
1.6935058593749999
1.61455078125
1.5597656249999998
1.545263671875
1.5436523437499998
1.5444580078124999
1.542041015625
1.5484863281249999
1.5275390624999998
1.525927734375
1.5154541015624998
1.5186767578125
1.5243164062499999
1.6427490234375
1.9706542968749998
1.5557373046874998
1.58232421875
1.5573486328125
1.4888671875
1.3921875
1.235888671875
1.2479736328125
1.3905761718749998
1.4574462890625
1.4638916015624999
1.458251953125
1.4993408203124998
1.496923828125
1.509814453125
1.5114257812499998
1.5444580078124999
1.5323730468749999
1.5347900390625
1.5235107421874998
1.384130859375
1.0119140625
1.5186767578125
1.47275390625
1.5275390624999998
1.5573486328125
1.59521484375
2.0906982421875
1.8046875
1.6395263671875
1.5509033203125
1.5839355468749998
1.5557373046874998
1.5621826171875
1.5565429687499999
1.545263671875
1.5275390624999998
1.4848388671875
1.5476806640624998
1.5202880859374999
1.5138427734375
1.5243164062499999
2.0947265625
1.670947265625
1.5766845703124999
1.5597656249999998
1.5235107421874998
1.4622802734375
1.2101074218749999
1.2431396484375
1.3502929687499998
1.4244140625
1.4542236328125
1.474365234375
1.4655029296875
1.5194824218749998
1.496923828125
1.5315673828124998
1.5283447265624999
1.5235107421874998
1.52109375
1.529150390625
1.522705078125
0.8999267578125
1.3478759765625
1.5106201171875
1.4880615234374999
1.5412353515625
1.590380859375
1.8046875
2.0415527343749997
1.699951171875
1.6081054687499998
1.5637939453124998
1.5533203125
1.5492919921875
1.5533203125
1.5605712890624999
1.554931640625
1.52109375
1.52109375
1.5243164062499999
1.5194824218749998
1.5202880859374999
1.740234375
1.941650390625
1.5589599609375
1.5686279296874999
1.5517089843749998
1.4510009765624998
1.327734375
1.287451171875
1.2689208984375
1.3929931640625
1.4397216796874999
1.4518066406249999
1.4622802734375
1.4703369140625
1.5235107421874998
1.5162597656249999
1.5347900390625
1.525927734375
1.525927734375
1.5533203125
1.5186767578125
1.3108154296874999
1.0634765625
1.51787109375
1.47275390625
1.5082031249999999
1.5662109375
1.6443603515624998
2.1358154296875
1.7579589843749999
1.6129394531249999
1.574267578125
1.56943359375
1.546875
1.545263671875
1.5380126953125
1.5565429687499999
1.5396240234374998
1.53076171875
1.542041015625
1.5138427734375
1.5170654296875
1.5243164062499999
2.1076171875
1.58232421875
1.5726562499999999
1.58232421875
1.49853515625
1.4461669921875
1.1738525390624999
1.2383056640624999
1.3422363281249998
1.4316650390624999
1.4558349609374999
1.482421875
1.477587890625
1.5017578125
1.509814453125
1.52109375
1.5444580078124999
1.546875
1.5251220703125
1.533984375
1.5267333984375
0.8854248046875
1.4832275390624998
1.5001464843749999
1.4800048828124999
1.5484863281249999
1.5839355468749998
1.9118408203125
1.98193359375
1.6403320312499998
1.603271484375
1.5678222656249998
1.546875
1.554931640625
1.5436523437499998
1.5396240234374998
1.5194824218749998
1.4977294921875
1.538818359375
1.5323730468749999
1.5235107421874998
1.5323730468749999
1.82080078125
1.7072021484375
1.5331787109375
1.5782958984375
1.5146484375
1.45341796875
1.2697265624999998
1.229443359375
1.30517578125
1.400244140625
1.4429443359374998
1.4735595703125
1.4655029296875
1.5025634765625
1.5001464843749999
1.5162597656249999
1.5235107421874998
1.5323730468749999
1.53720703125
1.5396240234374998
1.5267333984375
1.21494140625
1.3075927734375
1.5186767578125
1.4767822265625
1.5114257812499998
1.593603515625
1.6483886718749998
2.0923095703125
1.6951171875
1.6169677734374999
1.5782958984375
1.5637939453124998
1.5492919921875
1.5637939453124998
1.55009765625
1.5573486328125
1.525927734375
1.5243164062499999
1.5154541015624998
1.5267333984375
1.509814453125
1.5235107421874998
1.9706542968749998
1.5654052734375
1.5927978515624999
1.5492919921875
1.4816162109375
1.4268310546874998
1.2858398437499998
1.2503906249999999
1.3704345703124998
1.4276367187499999
1.4679199218749999
1.4671142578124998
1.4679199218749999
1.50498046875
1.5033691406249998
1.5082031249999999
1.545263671875
1.5331787109375
1.52109375
1.5404296874999999
1.5573486328125
1.0239990234375
1.5017578125
1.5025634765625
1.4832275390624998
1.554931640625
1.5645996093749999
2.035107421875
1.92392578125
1.638720703125
1.5678222656249998
1.5565429687499999
1.546875
1.5758789062499998
1.5404296874999999
1.5476806640624998
1.5146484375
1.5364013671874999
1.5275390624999998
1.5194824218749998
1.53076171875
1.522705078125
2.0979492187499997
1.6733642578124999
1.5492919921875
1.574267578125
1.5235107421874998
1.46630859375
1.3341796874999998
1.248779296875
1.2914794921875
1.3865478515624998
1.45341796875
1.4759765624999999
1.456640625
1.4961181640624999
1.4953124999999998
1.5218994140625
1.5460693359375
1.545263671875
1.529150390625
1.5283447265624999
1.542041015625
0.8886474609374999
1.3664062499999998
1.5218994140625
1.4703369140625
1.5460693359375
1.603271484375
1.6604736328124998
2.0818359374999997
1.683837890625
1.6153564453125
1.577490234375
1.5557373046874998
1.558154296875
1.5565429687499999
1.56298828125
1.5460693359375
1.5017578125
1.513037109375
1.496923828125
1.5057861328125
1.5331787109375
1.7337890624999999
1.9303710937499998
1.5476806640624998
1.5863525390625
1.5355957031249998
1.4880615234374999
1.432470703125
1.2834228515625
1.2399169921875
1.3494873046875
1.45341796875
1.46953125
1.4622802734375
1.480810546875
1.4993408203124998
1.5114257812499998
1.5404296874999999
1.5331787109375
1.525927734375
1.5251220703125
1.522705078125
1.2785888671874999
1.06025390625
1.5202880859374999
1.4961181640624999
1.5033691406249998
1.5815185546875
1.5758789062499998
2.01416015625
1.796630859375
1.6483886718749998
1.58232421875
1.5637939453124998
1.5509033203125
1.56298828125
1.5605712890624999
1.554931640625
1.53720703125
1.5138427734375
1.5404296874999999
1.522705078125
1.5235107421874998
1.5154541015624998
2.115673828125
1.6556396484375
1.5758789062499998
1.561376953125
1.5009521484375
1.4638916015624999
1.2060791015624999
1.2423339843749999
1.3100097656249998
1.4316650390624999
1.4413330078125
1.4630859374999998
1.4542236328125
1.5017578125
1.5033691406249998
1.5218994140625
1.538818359375
1.538818359375
1.5517089843749998
1.5517089843749998
1.5355957031249998
0.862060546875
1.3801025390625
1.5114257812499998
1.4880615234374999
1.5331787109375
1.5887695312499999
1.8014648437499998
1.9303710937499998
1.6806152343749998
1.6048828124999999
1.5734619140625
1.5541259765625
1.5541259765625
1.5750732421875
1.5637939453124998
1.5525146484374999
1.522705078125
1.52109375
1.5275390624999998
1.5122314453124999
1.525927734375
1.7893798828124998
1.8868652343749999
1.5605712890624999
1.5766845703124999
1.5396240234374998
1.4840332031249999
1.3108154296874999
1.2987304687499999
1.255224609375
1.3857421875
1.432470703125
1.4542236328125
1.4671142578124998
1.5106201171875
1.5082031249999999
1.5009521484375
1.5267333984375
1.5275390624999998
1.5162597656249999
1.5323730468749999
1.529150390625
1.2270263671875
1.100537109375
1.533984375
1.4791992187499998
1.5218994140625
1.5637939453124998
1.6048828124999999
2.0794189453125
1.8054931640624998
1.64677734375
1.5734619140625
1.5541259765625
1.546875
1.5702392578125
1.5726562499999999
1.538818359375
1.5323730468749999
1.496923828125
1.5186767578125
1.5283447265624999
1.5267333984375
1.5146484375
2.1084228515625
1.6218017578125
1.5863525390625
1.5654052734375
1.5041748046874999
1.4356933593749999
1.2689208984375
1.2350830078125
1.340625
1.4276367187499999
1.4356933593749999
1.4719482421874999
1.456640625
1.5033691406249998
1.533984375
1.5364013671874999
1.5525146484374999
1.5235107421874998
1.5404296874999999
1.5194824218749998
1.5202880859374999
0.8999267578125
1.4091064453125
1.4791992187499998
1.4864501953125
1.5404296874999999
1.6185791015625
1.9666259765624998
1.9682373046875
1.6806152343749998
1.5863525390625
1.571044921875
1.5597656249999998
1.56298828125
1.5444580078124999
1.5509033203125
1.538818359375
1.513037109375
1.5267333984375
1.5154541015624998
1.5235107421874998
1.5090087890625
1.8570556640625
1.877197265625
1.574267578125
1.5782958984375
1.53076171875
1.4751708984374998
1.3100097656249998
1.281005859375
1.2914794921875
1.4115234374999999
1.44052734375
1.4590576171874998
1.47275390625
1.496923828125
1.506591796875
1.4816162109375
1.5315673828124998
1.545263671875
1.5323730468749999
1.5444580078124999
1.5476806640624998
1.1545166015625
1.134375
1.5073974609374998
1.477587890625
1.5267333984375
1.5807128906249999
1.7128417968749998
2.0794189453125
1.72412109375
1.6048828124999999
1.5815185546875
1.5654052734375
1.5404296874999999
1.571044921875
1.5525146484374999
1.545263671875
1.5041748046874999
1.5122314453124999
1.5355957031249998
1.5106201171875
1.533984375
1.5170654296875
2.1164794921875
1.5670166015625
1.5678222656249998
1.5637939453124998
1.4848388671875
1.4437499999999999
1.2439453125
1.2479736328125
1.368017578125
1.4203857421875
1.4397216796874999
1.4606689453125
1.4671142578124998
1.5082031249999999
1.5017578125
1.5404296874999999
1.5283447265624999
1.5267333984375
1.5275390624999998
1.5315673828124998
1.513037109375
0.889453125
1.5202880859374999
1.4800048828124999
1.509814453125
1.5637939453124998
1.5799072265624998
1.9295654296875
1.9859619140625
1.6475830078125
1.5766845703124999
1.574267578125
1.542041015625
1.5799072265624998
1.5428466796875
1.554931640625
1.525927734375
1.5090087890625
1.5251220703125
1.525927734375
1.5275390624999998
1.5073974609374998
1.9118408203125
1.6564453124999998
1.5670166015625
1.5670166015625
1.522705078125
1.4558349609374999
1.2310546875
1.2238037109375
1.297119140625
1.4171630859375
1.43408203125
1.4751708984374998
1.4622802734375
1.513037109375
1.5001464843749999
1.5146484375
1.5525146484374999
1.5323730468749999
1.5347900390625
1.5355957031249998
1.5243164062499999
1.0812011718749999
1.3631835937499999
1.52109375
1.4800048828124999
1.5114257812499998
1.611328125
1.7128417968749998
2.08828125
1.6781982421875
1.6024658203125
1.56298828125
1.561376953125
1.5484863281249999
1.5404296874999999
1.5605712890624999
1.542041015625
1.5106201171875
1.5186767578125
1.5251220703125
1.522705078125
1.5251220703125
1.5146484375
1.9190917968749999
1.546875
1.5718505859374998
1.538818359375
1.4880615234374999
1.432470703125
1.2721435546875
1.2528076171875
1.3688232421875
1.4550292968749998
1.4735595703125
1.4791992187499998
1.4880615234374999
1.4977294921875
1.5057861328125
1.496923828125
1.5355957031249998
1.5275390624999998
1.5251220703125
1.5235107421874998
1.529150390625
1.0900634765625
1.5251220703125
1.47275390625
1.4920898437499999
1.5791015625
1.5927978515624999
2.0600830078125
1.7652099609374998
1.6314697265625
1.5879638671874998
1.5541259765625
1.5541259765625
1.5686279296874999
1.5565429687499999
1.5364013671874999
1.542041015625
1.52109375
1.5355957031249998
1.5243164062499999
1.5565429687499999
1.5106201171875
2.1003662109375
1.65
1.5815185546875
1.5670166015625
1.51787109375
1.4751708984374998
1.297119140625
1.2173583984375
1.31162109375
1.4155517578124999
1.456640625
1.4671142578124998
1.44052734375
1.50498046875
1.5162597656249999
1.5315673828124998
1.529150390625
1.5355957031249998
1.53720703125
1.525927734375
1.5202880859374999
0.9007324218749999
1.4139404296875
1.5122314453124999
1.4751708984374998
1.5702392578125
1.5919921874999998
1.71123046875
1.9835449218749999
1.6653076171874999
1.6048828124999999
1.5637939453124998
1.55009765625
1.5589599609375
1.5597656249999998
1.5533203125
1.5444580078124999
1.5090087890625
1.53076171875
1.525927734375
1.513037109375
1.5299560546875
1.819189453125
1.8683349609375
1.5565429687499999
1.5718505859374998
1.5355957031249998
1.4759765624999999
1.2947021484374999
1.281005859375
1.2528076171875
1.3591552734374999
1.4493896484375
1.464697265625
1.477587890625
1.4840332031249999
1.5033691406249998
1.4920898437499999
1.5275390624999998
1.5686279296874999
1.529150390625
1.522705078125
1.554931640625
1.171435546875
1.1190673828125
1.5484863281249999
1.4800048828124999
1.529150390625
1.561376953125
1.6072998046875
2.0858642578124997
1.754736328125
1.6427490234375
1.593603515625
1.5557373046874998
1.5444580078124999
1.545263671875
1.546875
1.561376953125
1.5299560546875
1.5267333984375
1.5283447265624999
1.513037109375
1.522705078125
1.5073974609374998
2.0979492187499997
1.6427490234375
1.5766845703124999
1.5565429687499999
1.5114257812499998
1.4703369140625
1.20849609375
1.2310546875
1.316455078125
1.4348876953124998
1.4590576171874998
1.4767822265625
1.4510009765624998
1.50498046875
1.482421875
1.4912841796874998
1.554931640625
1.5364013671874999
1.5243164062499999
1.53720703125
1.5347900390625
0.889453125
1.42119140625
1.5041748046874999
1.4783935546875
1.5396240234374998
1.6137451171875
1.9392333984374999
1.861083984375
1.6572509765624999
1.59521484375
1.571044921875
1.5509033203125
1.5492919921875
1.546875
1.5662109375
1.5509033203125
1.5009521484375
1.5380126953125
1.5202880859374999
1.509814453125
1.5073974609374998
1.893310546875
1.8441650390625
1.5678222656249998
1.5863525390625
1.545263671875
1.4630859374999998
1.2350830078125
1.2656982421874998
1.271337890625
1.4026611328124998
1.4316650390624999
1.4832275390624998
1.4912841796874998
1.5090087890625
1.51787109375
1.4977294921875
1.533984375
1.5323730468749999
1.5154541015624998
1.5380126953125
1.5283447265624999
1.1142333984375
1.1666015625
1.5275390624999998
1.4606689453125
1.5235107421874998
1.574267578125
1.5976318359375
2.102783203125
1.7684326171875
1.622607421875
1.5807128906249999
1.5517089843749998
1.542041015625
1.5541259765625
1.5621826171875
1.5299560546875
1.53076171875
1.5170654296875
1.5251220703125
1.529150390625
1.5299560546875
1.5162597656249999
2.0842529296875
1.6169677734374999
1.574267578125
1.56298828125
1.5041748046874999
1.4203857421875
1.2616699218749998
1.2221923828124999
1.377685546875
1.43408203125
1.44052734375
1.4735595703125
1.46630859375
1.4961181640624999
1.5114257812499998
1.5162597656249999
1.546875
1.53720703125
1.529150390625
1.53076171875
1.5170654296875
0.8991210937499999
1.4469726562499998
1.4928955078125
1.4751708984374998
1.5589599609375
1.619384765625
2.0689453125
1.8659179687499998
1.6773925781249999
1.5702392578125
1.5444580078124999
1.561376953125
1.5404296874999999
1.5476806640624998
1.5509033203125
1.5347900390625
1.5186767578125
1.5299560546875
1.538818359375
1.5331787109375
1.5186767578125
1.9472900390624999
1.812744140625
1.5654052734375
1.5807128906249999
1.5122314453124999
1.4550292968749998
1.2576416015624998
1.27939453125
1.2745605468749999
1.4107177734374998
1.448583984375
1.4703369140625
1.4437499999999999
1.5170654296875
1.5025634765625
1.5025634765625
1.5380126953125
1.533984375
1.5476806640624998
1.5412353515625
1.533984375
1.0368896484374999
1.2012451171875
1.5968261718749999
1.480810546875
1.513037109375
1.5847412109374999
1.7378173828124999
2.0649169921875
1.7080078125
1.6081054687499998
1.5750732421875
1.5670166015625
1.5557373046874998
1.55009765625
1.55009765625
1.5283447265624999
1.51787109375
1.5243164062499999
1.5186767578125
1.5323730468749999
1.5025634765625
1.53720703125
2.0818359374999997
1.5565429687499999
1.571044921875
1.546875
1.4783935546875
1.4228027343749998
1.3019531249999998
1.2616699218749998
1.3583496093749998
1.4203857421875
1.4477783203124999
1.4961181640624999
1.4719482421874999
1.5162597656249999
1.5146484375
1.5355957031249998
1.53076171875
1.5114257812499998
1.533984375
1.5404296874999999
1.5186767578125
0.9273193359374999
1.5170654296875
1.4735595703125
1.5041748046874999
1.554931640625
1.5879638671874998
2.0496093749999997
1.8989501953124999
1.6306640625
1.5887695312499999
1.5645996093749999
1.5573486328125
1.5589599609375
1.545263671875
1.5525146484374999
1.538818359375
1.50498046875
1.5283447265624999
1.5114257812499998
1.50498046875
1.5355957031249998
1.998046875
1.6250244140624999
1.56943359375
1.5960205078124998
1.4928955078125
1.47275390625
1.2318603515625
1.24072265625
1.3204833984375
1.4091064453125
1.4598632812499999
1.464697265625
1.4445556640625
1.5073974609374998
1.5114257812499998
1.5001464843749999
1.5428466796875
1.529150390625
1.5243164062499999
1.5283447265624999
1.529150390625
0.9949951171875
1.4187744140624998
1.5082031249999999
1.4961181640624999
1.5235107421874998
1.6185791015625
1.791796875
2.04638671875
1.6806152343749998
1.619384765625
1.5509033203125
1.5404296874999999
1.5428466796875
1.5484863281249999
1.5525146484374999
1.5734619140625
1.4945068359375
1.533984375
1.5251220703125
1.5275390624999998
1.5162597656249999
1.5114257812499998
1.8538330078124998
1.5686279296874999
1.5782958984375
1.529150390625
1.458251953125
1.4268310546874998
1.2802001953125
1.2624755859374999
1.3849365234375
1.44052734375
1.4526123046875
1.47275390625
1.490478515625
1.5001464843749999
1.4896728515625
1.545263671875
1.5186767578125
1.5283447265624999
1.5323730468749999
1.5436523437499998
1.4896728515625
1.174658203125
1.533984375
1.4816162109375
1.5041748046874999
1.561376953125
1.609716796875
2.0326904296875
1.7619873046874999
1.6411376953124999
1.5927978515624999
1.56943359375
1.5436523437499998
1.546875
1.5476806640624998
1.5525146484374999
1.5509033203125
1.4920898437499999
1.5218994140625
1.513037109375
1.513037109375
1.5057861328125
2.096337890625
1.6298583984375
1.5766845703124999
1.5597656249999998
1.5041748046874999
1.46630859375
1.284228515625
1.2254150390625
1.335791015625
1.4091064453125
1.4429443359374998
1.474365234375
1.482421875
1.5025634765625
1.509814453125
1.5154541015624998
1.5492919921875
1.5218994140625
1.554931640625
1.525927734375
1.53076171875
0.9144287109375
1.44052734375
1.5154541015624998
1.46953125
1.561376953125
1.5976318359375
1.799853515625
2.0471923828125
1.6564453124999998
1.5984375
1.5605712890624999
1.56298828125
1.5533203125
1.5364013671874999
1.5243164062499999
1.5404296874999999
1.5146484375
1.5347900390625
1.529150390625
1.533984375
1.5235107421874998
1.9166748046875
1.82724609375
1.5460693359375
1.5895751953125
1.5283447265624999
1.456640625
1.4034667968749999
1.2882568359375
1.2511962890625
1.3784912109374998
1.4518066406249999
1.4767822265625
1.4800048828124999
1.482421875
1.49853515625
1.5001464843749999
1.53076171875
1.522705078125
1.5444580078124999
1.5202880859374999
1.5267333984375
1.0578369140625
1.1899658203124999
1.5283447265624999
1.46953125
1.5194824218749998
1.5839355468749998
1.6209960937499999
2.102783203125
1.7208984374999998
1.6121337890624998
1.5766845703124999
1.5645996093749999
1.5476806640624998
1.5654052734375
1.561376953125
1.5396240234374998
1.53720703125
1.496923828125
1.5299560546875
1.5186767578125
1.5106201171875
1.5114257812499998
2.099560546875
1.603271484375
1.5839355468749998
1.5517089843749998
1.5033691406249998
1.4751708984374998
1.2818115234374998
1.2383056640624999
1.3253173828125
1.426025390625
1.4598632812499999
1.474365234375
1.4542236328125
1.5090087890625
1.5202880859374999
1.5202880859374999
1.5283447265624999
1.5323730468749999
1.5364013671874999
1.5444580078124999
1.5235107421874998
0.9249023437499999
1.4510009765624998
1.49853515625
1.50498046875
1.5444580078124999
1.622607421875
1.7700439453124999
1.9279541015625
1.6604736328124998
1.6056884765625
1.5662109375
1.5573486328125
1.5589599609375
1.5436523437499998
1.5621826171875
1.5509033203125
1.5106201171875
1.5146484375
1.5041748046874999
1.5194824218749998
1.5243164062499999
1.9779052734375
1.780517578125
1.5702392578125
1.5791015625
1.52109375
1.4574462890625
1.232666015625
1.2544189453124999
1.2866455078124999
1.409912109375
1.4389160156249998
1.4832275390624998
1.474365234375
1.5001464843749999
1.493701171875
1.506591796875
1.5275390624999998
1.545263671875
1.5347900390625
1.5517089843749998
1.5073974609374998
1.02158203125
1.2310546875
1.5299560546875
1.4848388671875
1.5428466796875
1.5863525390625
1.6153564453125
2.04638671875
1.7281494140625
1.6250244140624999
1.5533203125
1.5428466796875
1.554931640625
1.53076171875
1.5428466796875
1.5243164062499999
1.5275390624999998
1.545263671875
1.5396240234374998
1.5202880859374999
1.5202880859374999
1.5154541015624998
2.0560546875
1.5444580078124999
1.56943359375
1.5605712890624999
1.5017578125
1.4228027343749998
1.2511962890625
1.2350830078125
1.3752685546874999
1.4276367187499999
1.4558349609374999
1.464697265625
1.4719482421874999
1.5057861328125
1.5251220703125
1.522705078125
1.5444580078124999
1.525927734375
1.5412353515625
1.5436523437499998
1.50498046875
0.9369873046874999
1.4767822265625
1.4872558593749998
1.4961181640624999
1.5565429687499999
1.619384765625
2.060888671875
1.8739746093749998
1.641943359375
1.5726562499999999
1.5412353515625
1.5645996093749999
1.5605712890624999
1.5734619140625
1.5509033203125
1.5243164062499999
1.4993408203124998
1.5275390624999998
1.5347900390625
1.5122314453124999
1.5202880859374999
2.018994140625
1.6250244140624999
1.5726562499999999
1.5637939453124998
1.496923828125
1.4735595703125
1.248779296875
1.27294921875
1.316455078125
1.4139404296875
1.4638916015624999
1.4630859374999998
1.4469726562499998
1.4888671875
1.4864501953125
1.5154541015624998
1.533984375
1.5235107421874998
1.5412353515625
1.5267333984375
1.5275390624999998
0.9571289062499999
1.2802001953125
1.509814453125
1.4816162109375
1.5331787109375
1.603271484375
1.735400390625
2.0987548828125
1.7337890624999999
1.6040771484374998
1.56943359375
1.554931640625
1.5605712890624999
1.5509033203125
1.554931640625
1.53720703125
1.5218994140625
1.522705078125
1.51787109375
1.5114257812499998
1.5122314453124999
1.5662109375
1.8377197265624998
1.5662109375
1.5758789062499998
1.5436523437499998
1.46630859375
1.3656005859375
1.300341796875
1.255224609375
1.3752685546874999
1.44052734375
1.4655029296875
1.461474609375
1.4888671875
1.5154541015624998
1.493701171875
1.529150390625
1.55009765625
1.5275390624999998
1.5299560546875
1.5315673828124998
1.4759765624999999
0.9571289062499999
1.5267333984375
1.4840332031249999
1.5073974609374998
1.60166015625
1.603271484375
2.1052001953125
1.828857421875
1.622607421875
1.585546875
1.5517089843749998
1.5404296874999999
1.542041015625
1.5517089843749998
1.5492919921875
1.5315673828124998
1.5138427734375
1.50498046875
1.53076171875
1.5162597656249999
1.5090087890625
2.0818359374999997
1.6056884765625
1.574267578125
1.574267578125
1.50498046875
1.477587890625
1.2254150390625
1.2383056640624999
1.3301513671874998
1.405078125
1.4469726562499998
1.4735595703125
1.4800048828124999
1.5218994140625
1.5251220703125
1.5090087890625
1.53720703125
1.5323730468749999
1.5275390624999998
1.5428466796875
1.5251220703125
0.928125
1.4381103515625
1.509814453125
1.4816162109375
1.558154296875
1.6129394531249999
1.7845458984375
2.038330078125
1.66611328125
1.5927978515624999
1.5702392578125
1.5476806640624998
1.5670166015625
1.546875
1.5492919921875
1.5412353515625
1.5162597656249999
1.5186767578125
1.522705078125
1.5194824218749998
1.5243164062499999
1.9714599609374999
1.7942138671874999
1.5573486328125
1.58232421875
1.5106201171875
1.4711425781249998
1.3688232421875
1.27294921875
1.2955078125
1.3712402343749999
1.3792968749999999
1.4679199218749999
1.4574462890625
1.490478515625
1.5154541015624998
1.5009521484375
1.5404296874999999
1.522705078125
1.558154296875
1.5235107421874998
1.50498046875
1.0505859375
1.2383056640624999
1.538818359375
1.4735595703125
1.5194824218749998
1.6056884765625
1.6306640625
2.10439453125
1.7410400390624998
1.6177734375
1.5766845703124999
1.5573486328125
1.545263671875
1.5557373046874998
1.5597656249999998
1.5114257812499998
1.5275390624999998
1.5154541015624998
1.5202880859374999
1.509814453125
1.5194824218749998
1.53720703125
2.0584716796875
1.6048828124999999
1.5621826171875
1.5541259765625
1.4880615234374999
1.4107177734374998
1.284228515625
1.2439453125
1.340625
1.4284423828125
1.4389160156249998
1.474365234375
1.4630859374999998
1.513037109375
1.5090087890625
1.5146484375
1.5412353515625
1.5347900390625
1.5380126953125
1.53076171875
1.51787109375
0.9249023437499999
1.4630859374999998
1.4687255859375
1.4961181640624999
1.558154296875
1.5968261718749999
2.1148681640625
1.8046875
1.6443603515624998
1.5807128906249999
1.561376953125
1.5976318359375
1.5621826171875
1.5509033203125
1.5355957031249998
1.5275390624999998
1.5251220703125
1.546875
1.525927734375
1.522705078125
1.5057861328125
2.0020751953125
1.6266357421875
1.5573486328125
1.5831298828125
1.5194824218749998
1.482421875
1.2560302734375
1.2584472656249999
1.3156494140625
1.4107177734374998
1.4316650390624999
1.46630859375
1.4767822265625
1.5355957031249998
1.493701171875
1.5251220703125
1.5484863281249999
1.5436523437499998
1.53720703125
1.5315673828124998
1.5251220703125
0.9796874999999999
1.4187744140624998
1.513037109375
1.4912841796874998
1.558154296875
1.6250244140624999
1.85625
2.02060546875
1.6604736328124998
1.5984375
1.56298828125
1.55009765625
1.5444580078124999
1.5517089843749998
1.5444580078124999
1.533984375
1.5162597656249999
1.522705078125
1.5243164062499999
1.513037109375
1.51787109375
1.88525390625
1.8312744140625
1.5597656249999998
1.5605712890624999
1.51787109375
1.4630859374999998
1.2987304687499999
1.239111328125
1.2673095703125
1.3873535156249999
1.4493896484375
1.45341796875
1.47275390625
1.458251953125
1.5025634765625
1.5009521484375
1.5275390624999998
1.5355957031249998
1.5380126953125
1.529150390625
1.5396240234374998
1.1279296875
1.1577392578124999
1.506591796875
1.4703369140625
1.5170654296875
1.5791015625
1.619384765625
2.0375244140624997
1.7015624999999999
1.609716796875
1.577490234375
1.5557373046874998
1.5509033203125
1.558154296875
1.5589599609375
1.5355957031249998
1.52109375
1.5186767578125
1.533984375
1.5235107421874998
1.5114257812499998
1.5186767578125
2.08505859375
1.6532226562499999
1.58232421875
1.546875
1.5106201171875
1.4203857421875
1.2568359375
1.24716796875
1.3712402343749999
1.4364990234375
1.4606689453125
1.4703369140625
1.4638916015624999
1.4993408203124998
1.5170654296875
1.5186767578125
1.5509033203125
1.525927734375
1.5331787109375
1.5404296874999999
1.533984375
0.9192626953124999
1.4445556640625
1.4816162109375
1.5033691406249998
1.5525146484374999
1.5831298828125
2.1060058593749997
1.843359375
1.625830078125
1.5782958984375
1.5565429687499999
1.5436523437499998
1.554931640625
1.5492919921875
1.5557373046874998
1.5194824218749998
1.51787109375
1.5243164062499999
1.49853515625
1.52109375
1.533984375
1.91748046875
1.6403320312499998
1.5734619140625
1.606494140625
1.5122314453124999
1.4590576171874998
1.2536132812499998
1.271337890625
1.32451171875
1.4034667968749999
1.4518066406249999
1.4687255859375
1.46953125
1.5162597656249999
1.5017578125
1.525927734375
1.5396240234374998
1.533984375
1.533984375
1.5323730468749999
1.5315673828124998
1.0771728515624999
1.3881591796875
1.525927734375
1.48564453125
1.5436523437499998
1.6177734375
1.7096191406249999
2.051220703125
1.6910888671875
1.6024658203125
1.5557373046874998
1.5533203125
1.5645996093749999
1.5525146484374999
1.55009765625
1.5492919921875
1.5025634765625
1.5299560546875
1.5299560546875
1.5154541015624998
1.5073974609374998
1.7926025390625
1.8884765625
1.5509033203125
1.5605712890624999
1.5267333984375
1.47275390625
1.3978271484375
1.2890625
1.271337890625
1.3873535156249999
1.448583984375
1.4711425781249998
1.4719482421874999
1.4703369140625
1.506591796875
1.4977294921875
1.5597656249999998
1.5404296874999999
1.5331787109375
1.5396240234374998
1.6081054687499998
1.2221923828124999
1.103759765625
1.5218994140625
1.4719482421874999
1.5033691406249998
1.5831298828125
1.6121337890624998
2.096337890625
1.7362060546875
1.6379150390625
1.554931640625
1.542041015625
1.5299560546875
1.554931640625
1.5686279296874999
1.5428466796875
1.5315673828124998
1.5396240234374998
1.5275390624999998
1.5073974609374998
1.5154541015624998
1.522705078125
2.086669921875
1.5645996093749999
1.5758789062499998
1.5589599609375
1.482421875
1.4107177734374998
1.3349853515624999
1.2141357421874999
1.3502929687499998
1.4445556640625
1.4598632812499999
1.4791992187499998
1.4687255859375
1.5082031249999999
1.5041748046874999
1.5146484375
1.5517089843749998
1.5331787109375
1.4550292968749998
1.5412353515625
1.5275390624999998
0.9224853515625
1.4977294921875
1.493701171875
1.5025634765625
1.5565429687499999
1.5895751953125
2.075390625
1.8385253906249999
1.6290527343749999
1.5879638671874998
1.55009765625
1.5517089843749998
1.5670166015625
1.561376953125
1.5476806640624998
1.5162597656249999
1.5057861328125
1.5364013671874999
1.5202880859374999
1.5154541015624998
1.5194824218749998
2.0794189453125
1.6733642578124999
1.5525146484374999
1.5799072265624998
1.49853515625
1.4598632812499999
1.2721435546875
1.2479736328125
1.3180664062499998
1.3825195312499998
1.4655029296875
1.4751708984374998
1.4501953125
1.49853515625
1.5114257812499998
1.5364013671874999
1.533984375
1.5267333984375
1.5299560546875
1.529150390625
1.5364013671874999
0.9353759765624999
1.340625
1.5170654296875
1.496923828125
1.5476806640624998
1.606494140625
1.6612792968749999
2.0020751953125
1.6830322265625
1.603271484375
1.5654052734375
1.55009765625
1.5517089843749998
1.5436523437499998
1.5645996093749999
1.5517089843749998
1.5106201171875
1.522705078125
1.5323730468749999
1.513037109375
1.5146484375
1.69189453125
1.9231201171874999
1.546875
1.5726562499999999
1.5404296874999999
1.4832275390624998
1.3390136718749999
1.3092041015625
1.2544189453124999
1.3905761718749998
1.448583984375
1.461474609375
1.480810546875
1.4888671875
1.5162597656249999
1.5106201171875
1.5509033203125
1.5428466796875
1.5283447265624999
1.5347900390625
1.525927734375
1.3398193359375
1.0707275390625
1.5299560546875
1.47275390625
1.5218994140625
1.5605712890624999
1.6314697265625
2.10439453125
1.7611816406249998
1.5960205078124998
1.5662109375
1.5484863281249999
1.5347900390625
1.525927734375
1.5565429687499999
1.5380126953125
1.51787109375
1.529150390625
1.5251220703125
1.51787109375
1.5001464843749999
1.5243164062499999
2.083447265625
1.5718505859374998
1.5766845703124999
1.5517089843749998
1.4719482421874999
1.4574462890625
1.222998046875
1.2374999999999998
1.3414306640625
1.4316650390624999
1.4598632812499999
1.4840332031249999
1.4606689453125
1.51787109375
1.5194824218749998
1.522705078125
1.542041015625
1.5355957031249998
1.5323730468749999
1.5251220703125
1.546875
0.9740478515625
1.4953124999999998
1.5033691406249998
1.4945068359375
1.5557373046874998
1.59521484375
1.9706542968749998
1.78857421875
1.6379150390625
1.5678222656249998
1.5637939453124998
1.546875
1.5637939453124998
1.558154296875
1.5525146484374999
1.5186767578125
1.50498046875
1.5170654296875
1.5251220703125
1.5154541015624998
1.5138427734375
2.0294677734374997
1.7257324218749999
1.5404296874999999
1.5758789062499998
1.5170654296875
1.4510009765624998
1.2576416015624998
1.2511962890625
1.2995361328125
1.3913818359374999
1.4864501953125
1.4542236328125
1.47275390625
1.5041748046874999
1.5033691406249998
1.5243164062499999
1.5025634765625
1.5331787109375
1.529150390625
1.53720703125
1.5235107421874998
0.9724365234375
1.3100097656249998
1.5082031249999999
1.4864501953125
1.5364013671874999
1.6137451171875
1.7474853515625
2.0294677734374997
1.7120361328125
1.6218017578125
1.571044921875
1.5589599609375
1.5396240234374998
1.5355957031249998
1.5678222656249998
1.5476806640624998
1.50498046875
1.5154541015624998
1.52109375
1.5082031249999999
1.509814453125
1.5919921874999998
1.980322265625
1.55009765625
1.5807128906249999
1.5637939453124998
1.461474609375
1.3623779296874998
1.30517578125
1.2560302734375
1.3873535156249999
1.4461669921875
1.46953125
1.4767822265625
1.5001464843749999
1.49853515625
1.5218994140625
1.5396240234374998
1.5243164062499999
1.5444580078124999
1.5299560546875
1.5347900390625
1.4429443359374998
1.0030517578125
1.52109375
1.477587890625
1.51787109375
1.585546875
1.6153564453125
2.07861328125
1.8038818359375
1.6153564453125
1.574267578125
1.5484863281249999
1.5412353515625
1.5436523437499998
1.5895751953125
1.5162597656249999
1.522705078125
1.5154541015624998
1.5154541015624998
1.525927734375
1.4872558593749998
1.5251220703125
2.03994140625
1.5847412109374999
1.5750732421875
1.5533203125
1.4703369140625
1.4518066406249999
1.232666015625
1.248779296875
1.3229003906249999
1.42119140625
1.464697265625
1.4816162109375
1.474365234375
1.5017578125
1.5194824218749998
1.509814453125
1.546875
1.5380126953125
1.5380126953125
1.53720703125
1.5154541015624998
0.9547119140625
1.456640625
1.5162597656249999
1.4977294921875
1.5654052734375
1.603271484375
2.0246337890625
1.8659179687499998
1.667724609375
1.5847412109374999
1.5597656249999998
1.5396240234374998
1.558154296875
1.5460693359375
1.5605712890624999
1.5275390624999998
1.4928955078125
1.5146484375
1.5315673828124998
1.5138427734375
1.5041748046874999
1.960986328125
1.7603759765625
1.5726562499999999
1.56943359375
1.5194824218749998
1.4622802734375
1.2439453125
1.2777832031249998
1.2850341796875
1.416357421875
1.44052734375
1.482421875
1.4751708984374998
1.5170654296875
1.49853515625
1.5170654296875
1.545263671875
1.56298828125
1.522705078125
1.5154541015624998
1.53076171875
1.013525390625
1.2616699218749998
1.5323730468749999
1.4735595703125
1.545263671875
1.5944091796875
1.6943115234375
2.047998046875
1.714453125
1.6081054687499998
1.5758789062499998
1.5492919921875
1.554931640625
1.546875
1.5444580078124999
1.5476806640624998
1.5114257812499998
1.529150390625
1.5267333984375
1.51787109375
1.509814453125
1.5380126953125
1.835302734375
1.5645996093749999
1.561376953125
1.5436523437499998
1.4655029296875
1.4058837890625
1.2866455078124999
1.2737548828124998
1.380908203125
1.4429443359374998
1.4671142578124998
1.4751708984374998
1.4759765624999999
1.5033691406249998
1.4848388671875
1.5315673828124998
1.5484863281249999
1.609716796875
1.5565429687499999
1.5396240234374998
1.4920898437499999
1.1674072265625
1.5162597656249999
1.4816162109375
1.506591796875
1.5782958984375
1.606494140625
2.099560546875
1.7080078125
1.625830078125
1.561376953125
1.55009765625
1.5476806640624998
1.5517089843749998
1.5444580078124999
1.5347900390625
1.525927734375
1.5283447265624999
1.5267333984375
1.5082031249999999
1.5162597656249999
1.513037109375
2.0504150390625
1.61455078125
1.5662109375
1.5525146484374999
1.4977294921875
1.493701171875
1.229443359375
1.2374999999999998
1.327734375
1.4381103515625
1.4638916015624999
1.461474609375
1.4671142578124998
1.53076171875
1.5162597656249999
1.5025634765625
1.5380126953125
1.525927734375
1.5404296874999999
1.5243164062499999
1.5275390624999998
0.9385986328125
1.4445556640625
1.51787109375
1.4848388671875
1.5557373046874998
1.60166015625
1.957763671875
1.9118408203125
1.67578125
1.5815185546875
1.5734619140625
1.5525146484374999
1.5686279296874999
1.5492919921875
1.5517089843749998
1.5355957031249998
1.5235107421874998
1.52109375
1.5275390624999998
1.5154541015624998
1.506591796875
1.8981445312499998
1.8014648437499998
1.5484863281249999
1.5670166015625
1.525927734375
1.464697265625
1.2673095703125
1.27294921875
1.2890625
1.40830078125
1.4477783203124999
1.4711425781249998
1.4638916015624999
1.50498046875
1.5154541015624998
1.4606689453125
1.5243164062499999
1.5283447265624999
1.5355957031249998
1.5412353515625
1.5347900390625
1.09248046875
1.1464599609375
1.5090087890625
1.4840332031249999
1.5138427734375
1.609716796875
1.6886718749999998
2.0616943359374997
1.7345947265625
1.6306640625
1.5597656249999998
1.5476806640624998
1.5517089843749998
1.5347900390625
1.5541259765625
1.5444580078124999
1.5275390624999998
1.5323730468749999
1.53076171875
1.5025634765625
1.5057861328125
1.5170654296875
1.8892822265625
1.5621826171875
1.55009765625
1.5347900390625
1.474365234375
1.4195800781249999
1.2544189453124999
1.2544189453124999
1.368017578125
1.45341796875
1.474365234375
1.4832275390624998
1.474365234375
1.5186767578125
1.5009521484375
1.5331787109375
1.5364013671874999
1.542041015625
1.5323730468749999
1.5404296874999999
1.5057861328125
1.1271240234375
1.5283447265624999
1.4953124999999998
1.5194824218749998
1.5750732421875
1.5911865234375
2.07861328125
1.7418457031249999
1.6242187499999998
1.5758789062499998
1.5533203125
1.5476806640624998
1.5533203125
1.546875
1.55009765625
1.5355957031249998
1.5202880859374999
1.5114257812499998
1.5218994140625
1.51787109375
1.5218994140625
2.0810302734375
1.6250244140624999
1.6000488281249998
1.5726562499999999
1.5114257812499998
1.4630859374999998
1.2431396484375
1.2302490234374999
1.3100097656249998
1.4348876953124998
1.4590576171874998
1.4791992187499998
1.4816162109375
1.5090087890625
1.5138427734375
1.506591796875
1.5283447265624999
1.5275390624999998
1.5436523437499998
1.538818359375
1.5404296874999999
0.9321533203125
1.416357421875
1.5001464843749999
1.4977294921875
1.5541259765625
1.59521484375
1.9182861328124998
1.93359375
1.6669189453125
1.590380859375
1.558154296875
1.5517089843749998
1.5605712890624999
1.5509033203125
1.538818359375
1.533984375
1.5146484375
1.5347900390625
1.5202880859374999
1.5194824218749998
1.5138427734375
1.851416015625
1.835302734375
1.56298828125
1.5678222656249998
1.533984375
1.4630859374999998
1.2737548828124998
1.2995361328125
1.3092041015625
1.397021484375
1.4493896484375
1.4630859374999998
1.4630859374999998
1.5090087890625
1.509814453125
1.5122314453124999
1.542041015625
1.538818359375
1.5331787109375
1.5380126953125
1.5404296874999999
1.1496826171874999
1.3720458984375
1.5355957031249998
1.4840332031249999
1.5162597656249999
1.61455078125
1.6806152343749998
2.0729736328125
1.6765869140624998
1.593603515625
1.558154296875
1.546875
1.546875
1.5492919921875
1.558154296875
1.51787109375
1.5267333984375
1.5275390624999998
1.53076171875
1.5331787109375
1.5202880859374999
1.4679199218749999
1.896533203125
1.5678222656249998
1.5799072265624998
1.5355957031249998
1.4703369140625
1.4316650390624999
1.2850341796875
1.26005859375
1.3664062499999998
1.4389160156249998
1.4679199218749999
1.4800048828124999
1.4759765624999999
1.5114257812499998
1.5243164062499999
1.5299560546875
1.5355957031249998
1.525927734375
1.5404296874999999
1.5283447265624999
1.3019531249999998
1.09248046875
1.5283447265624999
1.490478515625
1.50498046875
1.5782958984375
1.5968261718749999
2.064111328125
1.735400390625
1.6282470703124998
1.5807128906249999
1.5597656249999998
1.5525146484374999
1.5565429687499999
1.538818359375
1.5444580078124999
1.5235107421874998
1.5122314453124999
1.5331787109375
1.529150390625
1.5162597656249999
1.5138427734375
2.080224609375
1.638720703125
1.5734619140625
1.5645996093749999
1.5033691406249998
1.46953125
1.2938964843749998
1.2423339843749999
1.3188720703124999
1.4244140625
1.448583984375
1.48564453125
1.50498046875
1.496923828125
1.50498046875
1.533984375
1.5243164062499999
1.5331787109375
1.545263671875
1.5218994140625
1.509814453125
0.9273193359374999
1.40185546875
1.4953124999999998
1.480810546875
1.5364013671874999
1.5976318359375
1.8699462890624998
1.98193359375
1.6822265625
1.6008544921874999
1.5662109375
1.5492919921875
1.561376953125
1.5476806640624998
1.554931640625
1.5283447265624999
1.5041748046874999
1.5170654296875
1.5194824218749998
1.506591796875
1.5146484375
1.7732666015624998
1.7088134765624998
1.5404296874999999
1.5791015625
1.5082031249999999
1.4638916015624999
1.281005859375
1.303564453125
1.2995361328125
1.4107177734374998
1.4542236328125
1.474365234375
1.46953125
1.48564453125
1.513037109375
1.51787109375
1.5146484375
1.5283447265624999
1.542041015625
1.5323730468749999
1.5283447265624999
1.2415283203124998
1.3229003906249999
1.5347900390625
1.4767822265625
1.5283447265624999
1.5887695312499999
1.714453125
2.054443359375
1.6822265625
1.5968261718749999
1.56943359375
1.5484863281249999
1.5444580078124999
1.5492919921875
1.546875
1.542041015625
1.5235107421874998
1.49853515625
1.529150390625
1.52109375
1.5323730468749999
1.6185791015625
1.93359375
1.5654052734375
1.5702392578125
1.5404296874999999
1.4928955078125
1.4550292968749998
1.319677734375
1.2238037109375
1.3470703124999999
1.4469726562499998
1.4735595703125
1.4767822265625
1.4735595703125
1.509814453125
1.5331787109375
1.5267333984375
1.546875
1.5323730468749999
1.53720703125
1.5267333984375
1.4026611328124998
1.03125
1.490478515625
1.4912841796874998
1.5106201171875
1.5460693359375
1.56943359375
2.0794189453125
1.7635986328125
1.6298583984375
1.587158203125
1.5525146484374999
1.5565429687499999
1.558154296875
1.5525146484374999
1.5404296874999999
1.5347900390625
1.5090087890625
1.52109375
1.513037109375
1.5122314453124999
1.5170654296875
2.064111328125
1.5799072265624998
1.5670166015625
1.5791015625
1.50498046875
1.4655029296875
1.2890625
1.2366943359375
1.3583496093749998
1.4252197265625
1.4510009765624998
1.4719482421874999
1.46630859375
1.5138427734375
1.4920898437499999
1.525927734375
1.5364013671874999
1.5267333984375
1.5315673828124998
1.5718505859374998
1.525927734375
0.928125
1.4953124999999998
1.5202880859374999
1.4816162109375
1.522705078125
1.5968261718749999
1.8071044921875
1.98837890625
1.6572509765624999
1.593603515625
1.561376953125
1.5436523437499998
1.5597656249999998
1.55009765625
1.5492919921875
1.5218994140625
1.5090087890625
1.52109375
1.5218994140625
1.5106201171875
1.5251220703125
1.9940185546875
1.732177734375
1.53720703125
1.5879638671874998
1.5251220703125
1.458251953125
1.3269287109374999
1.2665039062499999
1.2858398437499998
1.3913818359374999
1.456640625
1.4655029296875
1.4655029296875
1.4888671875
1.513037109375
1.5122314453124999
1.5412353515625
1.5355957031249998
1.53720703125
1.5218994140625
1.546875
0.9949951171875
1.2737548828124998
1.5323730468749999
1.4816162109375
1.5283447265624999
1.5895751953125
1.638720703125
1.98837890625
1.7055908203124999
1.609716796875
1.5645996093749999
1.546875
1.53720703125
1.5533203125
1.5509033203125
1.5315673828124998
1.522705078125
1.5251220703125
1.5275390624999998
1.5243164062499999
1.5194824218749998
1.5702392578125
1.996435546875
1.5960205078124998
1.56943359375
1.5509033203125
1.4961181640624999
1.4058837890625
1.26005859375
1.2528076171875
1.36962890625
1.4510009765624998
1.4703369140625
1.4719482421874999
1.4920898437499999
1.490478515625
1.5194824218749998
1.4558349609374999
1.5492919921875
1.5404296874999999
1.542041015625
1.5428466796875
1.4711425781249998
1.0046630859374999
1.49853515625
1.4816162109375
1.4953124999999998
1.5597656249999998
1.6379150390625
2.031884765625
1.8304687499999999
1.6089111328124999
1.5702392578125
1.5444580078124999
1.5525146484374999
1.561376953125
1.5573486328125
1.5412353515625
1.5484863281249999
1.5122314453124999
1.5243164062499999
1.5186767578125
1.5146484375
1.5138427734375
2.0197998046875
1.5887695312499999
1.5726562499999999
1.5662109375
1.513037109375
1.46953125
1.2544189453124999
1.2697265624999998
1.3382080078124998
1.41796875
1.4461669921875
1.4800048828124999
1.4687255859375
1.5146484375
1.5057861328125
1.5364013671874999
1.5315673828124998
1.5251220703125
1.545263671875
1.5251220703125
1.5323730468749999
0.9837158203124999
1.448583984375
1.5082031249999999
1.482421875
1.5525146484374999
1.6218017578125
1.7281494140625
2.035107421875
1.66611328125
1.59521484375
1.5662109375
1.5662109375
1.5597656249999998
1.5444580078124999
1.5517089843749998
1.5267333984375
1.5033691406249998
1.4920898437499999
1.5251220703125
1.53076171875
1.5146484375
1.9360107421875
1.7692382812499998
1.546875
1.5670166015625
1.5331787109375
1.4598632812499999
1.3857421875
1.287451171875
1.297119140625
1.3986328124999998
1.458251953125
1.4840332031249999
1.4679199218749999
1.5041748046874999
1.49853515625
1.5082031249999999
1.525927734375
1.5331787109375
1.5323730468749999
1.5460693359375
1.5218994140625
1.0328613281249999
1.2560302734375
1.5380126953125
1.4791992187499998
